# k  (h/Mpc)    Pcb(k)  (Mpc/h)^3    Pcb_linear(k)  (Mpc/h)^3
     0.00783031         11251.9         11312.8 
       0.013688         13621.2         13943.1 
       0.019231           13784         13965.6 
      0.0249154         12729.6           12698 
      0.0312784         10704.2         10780.7 
      0.0375637         8935.01         9057.06 
      0.0433917         7839.17         7861.85 
      0.0492413         6982.37          7052.9 
      0.0555754         6462.55          6484.8 
      0.0619321         5867.88         6053.67 
       0.067871         5540.41         5639.82 
      0.0738098         5101.83         5152.83 
      0.0800417          4556.9         4575.78 
      0.0862327         3981.43         4000.83 
      0.0921407          3530.9         3518.13 
      0.0982031         3194.16         3132.42 
       0.104506         2872.95         2856.22 
       0.110769         2706.05         2681.92 
       0.116806         2622.07         2566.63 
       0.122832          2480.3         2460.83 
       0.129052         2347.31         2329.42 
       0.135211         2234.48         2166.13 
       0.141259         2035.99         1983.61 
       0.147318         1849.04         1800.08 
       0.153489         1714.37         1634.46 
       0.159709         1626.46         1503.23 
       0.165845         1494.05         1410.93 
       0.171974          1467.1         1347.93 
       0.178125         1421.73         1300.73 
       0.184229         1326.77            1256 
        0.19034         1298.58         1203.39 
       0.196428         1249.38         1139.74 
       0.202534         1157.15         1067.59 
       0.208729         1124.49         992.974 
       0.214876         1066.75         925.069 
       0.220989         999.677         868.675 
       0.227147         974.799         824.545 
        0.23329         938.849         791.253 
       0.239377          928.94         764.809 
       0.245482         883.992         740.216 
       0.251667         850.537         713.562 
       0.257832         837.997         683.584 
       0.263955          792.23         650.884 
       0.270079         763.387         617.259 
        0.27624         729.662         585.043 
       0.282372         714.508         556.513 
        0.28843         706.274         532.724 
       0.294538         670.671         512.821 
       0.300721         653.133         495.731 
        0.30691         641.114         480.093 
       0.313033         613.051         464.723 
       0.319153         603.779          448.62 
       0.325316          592.98          431.58 
        0.33145         578.672         414.241 
       0.337538         557.251         397.457 
       0.343633         541.349         381.754 
       0.349808         528.128         367.469 
       0.355968         517.964          354.86 
       0.362074         500.471         343.751 
       0.368217         497.455         333.473 
       0.374374          488.21         323.567 
       0.380519         468.683         313.747 
       0.386598         463.548         303.901 
       0.392688         452.292         294.003 
        0.39888         440.574         284.107 
       0.405048         431.997          274.64 
       0.411186         430.397         265.826 
       0.417313         424.424         257.707 
       0.423458          412.23         250.182 
       0.429607         400.805         243.168 
       0.435692         394.797         236.571 
       0.441815         387.972         230.105 
       0.447964         379.382         223.713 
       0.454126         374.839         217.402 
       0.460267         368.751          211.22 
       0.466387         361.677         205.234 
        0.47254         356.736         199.477 
       0.478662         348.609         194.051 
       0.484765         344.258         188.928 
       0.490885         340.559         184.056 
       0.497035          333.89          179.39 
       0.503198          332.83         174.889 
       0.509342         324.737         170.523 
       0.515458         319.394         166.268 
       0.521598         314.022         162.101 
       0.527764         309.686         158.036 
       0.533884          307.98         154.133 
           0.54          303.11         150.373 
       0.546137         296.393         146.747 
       0.552299          295.26         143.258 
       0.558452         290.257         139.918 
       0.564573         288.018         136.714 
       0.570708         283.031         133.599 
       0.576825         278.171         130.576 
       0.582926         276.068         127.639 
       0.589034         271.754         124.781 
       0.595184         269.912         121.989 
       0.601379          265.46         119.266 
       0.607522         259.933         116.652 
       0.613639         258.795         114.132 
       0.619772         257.409         111.686 
       0.625918         253.354         109.312 
       0.632068         249.678          107.01 
       0.638161         247.969         104.797 
         0.6443         245.228         102.631 
       0.650464         241.365         100.517 
       0.656582         239.239         98.4752 
       0.662703         237.704         96.4866 
       0.668861         233.115         94.5403 
       0.675024          232.39         92.6461 
       0.681124         229.385         90.8243 
       0.687237         227.433         89.0502 
       0.693381         224.262         87.3182 
       0.699536         222.753         85.6313 
       0.705665         220.336         83.9978 
       0.711789         217.955         82.4092 
       0.717957         215.808         80.8508 
        0.72409         213.112          79.341 
       0.730186          214.24         77.8783 
       0.736317         210.551         76.4441 
       0.742472         207.944         75.0406 
       0.748622         205.199         73.6737 
        0.75476         205.649         72.3441 
       0.760888         202.853         71.0498 
       0.767043          199.94         69.7827 
       0.773185         198.573         68.5497 
       0.779291         196.055         67.3541 
       0.785407         195.151         66.1857 
       0.791564         193.377         65.0381 
       0.797719         190.225         63.9186 
       0.803834         191.308         62.8329 
       0.809972         189.003         61.7687 
       0.816124         185.959         60.7271 
       0.822261         184.816         59.7125 
       0.828378         184.372         58.7243 
       0.834502          181.88         57.7579 
       0.840667         181.672         56.8072 
       0.846816         178.528         55.8808 
       0.852925         177.847         54.9811 
       0.859047         176.118         54.0995 
       0.865192         175.642         53.2346 
       0.871341         173.449         52.3881 
       0.877463         171.898         51.5641 
       0.883569         171.774         50.7601 
       0.889708         170.044         49.9693 
       0.895864         168.418         49.1935 
       0.902008         166.759         48.4359 
       0.908149         165.247         47.6949 
       0.914301         164.441         46.9683 
       0.920448         164.126         46.2577 
       0.926574         161.732         45.5643 
       0.932687         161.428         44.8868 
       0.938823         160.077         44.2207 
       0.944975         159.045         43.5668 
       0.951105         157.449         42.9285 
       0.957225           156.6         42.3042 
       0.963368         155.583         41.6903 
       0.969511         153.771         41.0886 
       0.975621         152.345         40.5021 
       0.981748         151.673         39.9257 
       0.987916         150.941         39.3569 
        0.99406         149.858         38.8014 
        1.00019         148.878         38.2579 
        1.00632         147.844         37.7253 
        1.01246         146.807         37.2021 
        1.01859          145.69         36.6898 
        1.02471         144.643         36.1879 
        1.03085         143.575         35.6937 
        1.03698         142.535         35.2098 
        1.04314         142.199         34.7329 
        1.04929         141.401         34.2661 
        1.05541         140.396         33.8097 
        1.06154          139.08         33.3606 
        1.06769         138.315         32.9191 
        1.07382         137.652         32.4871 
        1.07993         136.425         32.0638 
        1.08607         135.805         31.6465 
        1.09222         134.748         31.2362 
        1.09836         133.962         30.8337 
        1.10449         132.982         30.4388 
        1.11063          132.08         30.0505 
        1.11677         131.444         29.6691 
         1.1229         130.357         29.2951 
        1.12903         129.602         28.9272 
        1.13518         128.695         28.5654 
        1.14131         128.117           28.21 
        1.14745         127.254         27.8609 
        1.15359         126.081         27.5177 
        1.15973         125.704         27.1802 
        1.16584         124.916         26.8499 
        1.17197         124.283         26.5246 
        1.17811         123.126         26.2038 
        1.18424         122.567         25.8892 
        1.19038         121.849          25.579 
        1.19652         121.126         25.2739 
        1.20267         120.274         24.9739 
        1.20881          119.42         24.6788 
        1.21495         119.058          24.389 
        1.22108         118.239         24.1038 
         1.2272         117.411          23.824 
        1.23334         117.035          23.548 
        1.23949         116.431         23.2757 
        1.24562          115.49         23.0085 
        1.25174         114.975         22.7459 
        1.25789         114.032         22.4866 
        1.26402         113.776         22.2319 
        1.27014         112.883         21.9818 
        1.27628         111.986         21.7348 
        1.28244         111.756         21.4911 
        1.28858         110.792         21.2515 
        1.29471         110.197         21.0162 
        1.30084         109.418         20.7846 
        1.30697         108.903         20.5562 
        1.31312          108.22         20.3309 
        1.31925         107.435         20.1098 
        1.32537         107.029         19.8921 
        1.33151         106.806          19.677 
        1.33765         105.739         19.4651 
        1.34378          105.47         19.2568 
        1.34992         104.993         19.0515 
        1.35606         104.259         18.8487 
         1.3622         104.044         18.6492 
        1.36833         102.869         18.4531 
        1.37445         102.705           18.26 
        1.38059         102.099          18.069 
        1.38675         101.341         17.8804 
        1.39288          100.71         17.6951 
        1.39901         100.177         17.5126 
        1.40515         99.7709         17.3323 
         1.4113         99.1687         17.1546 
        1.41742         98.6382         16.9801 
        1.42355         98.3064         16.8077 
         1.4297         97.5204         16.6371 
        1.43585         97.0305         16.4691 
        1.44198         96.2659         16.3039 
        1.44809          95.721         16.1414 
        1.45423         95.6792         15.9805 
        1.46036         94.7619         15.8221 
        1.46649         94.2364         15.6658 
        1.47263         93.7708         15.5115 
        1.47877         93.2538         15.3594 
        1.48491         92.8564         15.2091 
        1.49104         91.9219         15.0611 
        1.49718         91.7473         14.9149 
        1.50333         91.3706         14.7705 
        1.50947         90.8981         14.6283 
         1.5156         90.5226         14.4882 
        1.52172         89.7361           14.35 
        1.52787         89.4286         14.2133 
          1.534         88.8779         14.0785 
        1.54013         88.5285         13.9456 
        1.54627         87.8026         13.8142 
        1.55241         87.6738         13.6845 
        1.55855         86.8888         13.5567 
        1.56467         86.3185         13.4308 
         1.5708         85.8264         13.3062 
        1.57695         85.6049          13.183 
        1.58308         85.0833         13.0616 
        1.58922         85.0054         12.9417 
        1.59535         84.6052         12.8234 
         1.6015         83.8504         12.7064 
        1.60764         83.3667         12.5909 
        1.61376         83.0707         12.4771 
        1.61989         82.4995         12.3647 
        1.62604         82.1596         12.2534 
        1.63218          81.833         12.1435 
        1.63831         81.3084         12.0353 
        1.64444         80.8526         11.9283 
        1.65059         80.4273         11.8224 
        1.65673          80.139         11.7179 
        1.66285         79.6107          11.615 
        1.66898         79.0856         11.5133 
        1.67512          78.652         11.4126 
        1.68127          78.428          11.313 
         1.6874         77.8909         11.2148 
        1.69353          77.475         11.1179 
        1.69967         77.1254         11.0219 
        1.70581         76.8053          10.927 
        1.71193         76.2918         10.8337 
        1.71806         76.0143         10.7412 
        1.72421         75.5511         10.6496 
        1.73035         75.2217         10.5592 
        1.73649         74.7406         10.4699 
        1.74262         74.3442         10.3817 
        1.74876         73.9798         10.2945 
        1.75489         73.6007         10.2084 
        1.76101         73.2231         10.1234 
        1.76715         72.8619         10.0392 
        1.77329         72.4532         9.95583 
        1.77943         72.2689         9.87341 
        1.78557         71.8936         9.79205 
        1.79171         71.3661         9.71159 
        1.79785         70.9484         9.63203 
        1.80399         70.8392         9.55338 
        1.81012         70.2981         9.47572 
        1.81625          69.952         9.39895 
        1.82239         69.6115         9.32293 
        1.82853         69.1865         9.24779 
        1.83466         68.8069         9.17355 
        1.84078         68.5972          9.1002 
        1.84692         68.4219         9.02754 
        1.85306         67.9956         8.95559 
         1.8592         67.6483         8.88454 
        1.86533         67.2642          8.8143 
        1.87147         66.9127         8.74474 
        1.87761         66.3938          8.6759 
        1.88375         66.2372         8.60789 
        1.88988         65.7079         8.54069 
        1.89601         65.6598         8.47416 
        1.90215         65.1223         8.40829 
        1.90829         64.8038         8.34316 
        1.91442         64.4675         8.27872 
        1.92056         64.3586         8.21501 
         1.9267         63.8837         8.15192 
        1.93284          63.648         8.08945 
        1.93897         63.2869         8.02775 
        1.94509         62.9615         7.96684 
        1.95123         62.6726          7.9064 
        1.95737         62.4006         7.84655 
        1.96349         62.1173         7.78748 
        1.96964         61.7529         7.72884 
        1.97578         61.4072         7.67079 
        1.98192          61.047         7.61345 
        1.98805         60.6145         7.55669 
        1.99419         60.6023         7.50051 
        2.00033         60.1005         7.44488 
        2.00647         59.8625         7.38982 
         2.0126         59.6134         7.33542 
        2.01874         59.5058         7.28149 
        2.02488         59.1169         7.22805 
        2.03101         58.7554         7.17525 
        2.03714         58.5173         7.12302 
        2.04328         58.2354         7.07126 
        2.04941         57.7508         7.02006 
        2.05554         57.6116          6.9694 
        2.06167         57.3264         6.91918 
        2.06781          57.064         6.86944 
        2.07396         56.7699         6.82013 
        2.08009          56.474         6.77138 
        2.08622         56.2354         6.72317 
        2.09237         55.9809         6.67534 
        2.09851         55.5007         6.62796 
        2.10464           55.35         6.58113 
        2.11077         55.1644          6.5348 
        2.11691          54.859         6.48882 
        2.12305          54.551         6.44328 
        2.12918          54.256         6.39829 
        2.13531         54.0341         6.35373 
        2.14145         53.7424         6.30949 
         2.1476         53.6521         6.26562 
        2.15372         53.2609         6.22238 
        2.15985         52.9694         6.17952 
        2.16599         52.7237         6.13693 
        2.17213         52.4572          6.0948 
        2.17827         52.1899         6.05307 
         2.1844         51.8709         6.01177 
        2.19054          51.816         5.97084 
        2.19666         51.5683         5.93035 
         2.2028         51.1863          5.8902 
        2.20893          50.928         5.85041 
        2.21508         50.5948         5.81093 
        2.22122          50.409         5.77182 
        2.22736          50.183         5.73314 
        2.23349         49.9567         5.69483 
        2.23962         49.7683         5.65685 
        2.24577         49.4659         5.61918 
         2.2519         49.2288         5.58191 
        2.25802         49.0098         5.54504 
        2.26417         48.7502          5.5084 
        2.27031         48.5747         5.47206 
        2.27644         48.3606         5.43615 
        2.28257         48.0272         5.40057 
        2.28872         47.8773         5.36524 
        2.29486         47.6569         5.33023 
        2.30099         47.2861         5.29561 
        2.30712         47.1823         5.26128 
        2.31326         46.9903          5.2272 
         2.3194         46.7066         5.19344 
        2.32553         46.4912         5.16004 
        2.33166         46.2817         5.12694 
         2.3378         46.0209         5.09409 
        2.34394         45.8359         5.06152 
        2.35007         45.5978         5.02928 
        2.35619         45.3882         4.99736 
        2.36233         45.1663         4.96565 
        2.36848         44.9667         4.93414 
        2.37462         44.6602         4.90298 
        2.38075         44.5475         4.87211 
        2.38689         44.3072         4.84148 
        2.39303         44.1293         4.81113 
        2.39916         43.8799         4.78107 
        2.40529         43.7386         4.75126 
        2.41143         43.5297         4.72169 
        2.41757         43.3448         4.69236 
         2.4237         43.1624         4.66334 
        2.42983         42.9016         4.63456 
        2.43598         42.7193         4.60595 
        2.44211         42.4132         4.57763 
        2.44823         42.2836         4.54961 
        2.45437         42.0919         4.52175 
        2.46052         41.7907          4.4941 
        2.46665         41.6553         4.46673 
        2.47279         41.4522         4.43959 
        2.47892         41.2867         4.41267 
        2.48507         41.1491         4.38594 
         2.4912         40.8218         4.35949 
