# k  (h/Mpc)    Pcb(k)  (Mpc/h)^3    Pcb_linear(k)  (Mpc/h)^3
     0.00783031         417.548         420.868 
       0.013688         514.446          519.12 
       0.019231         518.308         520.112 
      0.0249154         472.934         472.978 
      0.0312784          401.75         401.604 
      0.0375637         337.339         337.415 
      0.0433917         293.631         292.898 
      0.0492413         262.879         262.767 
      0.0555754         242.179         241.607 
      0.0619321         224.548         225.548 
       0.067871         209.908         210.131 
      0.0738098         191.912         191.988 
      0.0800417         170.765         170.489 
      0.0862327         149.182         149.068 
      0.0921407         131.183         131.083 
      0.0982031         117.153         116.713 
       0.104506         106.339         106.422 
       0.110769         99.8688          99.928 
       0.116806         95.8713         95.6323 
       0.122832         91.5589         91.6905 
       0.129052         86.8593         86.7944 
       0.135211         80.9501         80.7103 
       0.141259         73.9856         73.9097 
       0.147318         67.0044         67.0713 
       0.153489         61.0361         60.9005 
       0.159709         56.2699         56.0107 
       0.165845         52.4987         52.5718 
       0.171974         50.5103         50.2245 
       0.178125         48.6709         48.4658 
       0.184229         46.8333         46.7989 
        0.19034         45.0759         44.8388 
       0.196428         42.6581         42.4672 
       0.202534         39.7435          39.779 
       0.208729           37.21         36.9987 
       0.214876         34.8314         34.4685 
       0.220989         32.4858         32.3673 
       0.227147         31.0938          30.723 
        0.23329         29.8554         29.4825 
       0.239377         28.8772         28.4972 
       0.245482          27.911         27.5808 
       0.251667          26.799         26.5877 
       0.257832         25.8402         25.4707 
       0.263955         24.5117         24.2523 
       0.270079         23.2689         22.9994 
        0.27624         22.0045          21.799 
       0.282372         20.9735          20.736 
        0.28843         20.2281         19.8496 
       0.294538         19.4515          19.108 
       0.300721         18.7175         18.4712 
        0.30691         18.2358         17.8886 
       0.313033         17.6214         17.3159 
       0.319153         17.1492         16.7159 
       0.325316         16.3401          16.081 
        0.33145         15.6946         15.4349 
       0.337538         15.1062         14.8095 
       0.343633         14.5726         14.2244 
       0.349808         14.0073         13.6922 
       0.355968         13.5183         13.2223 
       0.362074         13.1676         12.8084 
       0.368217         12.7582         12.4254 
       0.374374         12.4562         12.0563 
       0.380519          12.006         11.6904 
       0.386598         11.6104         11.3235 
       0.392688         11.2251         10.9548 
        0.39888         10.9025          10.586 
       0.405048         10.5646         10.2333 
       0.411186         10.2236         9.90487 
       0.417313         9.92433         9.60236 
       0.423458         9.60045         9.32197 
       0.429607         9.39586          9.0606 
       0.435692          9.1684         8.81479 
       0.441815         8.87909         8.57387 
       0.447964         8.60275         8.33573 
       0.454126         8.41433         8.10056 
       0.460267         8.22794         7.87019 
       0.466387         7.97952         7.64718 
        0.47254         7.78701         7.43268 
       0.478662         7.56436         7.23048 
       0.484765         7.37712         7.03961 
       0.490885         7.16922         6.85808 
       0.497035         6.97325         6.68419 
       0.503198         6.83671          6.5165 
       0.509342         6.63951          6.3538 
       0.515458         6.50894         6.19526 
       0.521598         6.35579         6.03999 
       0.527764         6.22956         5.88854 
       0.533884         6.03352         5.74312 
           0.54         5.91197         5.60302 
       0.546137         5.74937         5.46791 
       0.552299         5.63254         5.33791 
       0.558452         5.50466         5.21345 
       0.564573         5.39439         5.09405 
       0.570708          5.2756           4.978 
       0.576825         5.16237         4.86537 
       0.582926         5.04048         4.75593 
       0.589034         4.94986         4.64942 
       0.595184         4.85954         4.54539 
       0.601379          4.7341         4.44393 
       0.607522         4.63166         4.34655 
       0.613639         4.52309         4.25266 
       0.619772         4.45114         4.16151 
       0.625918         4.35746         4.07304 
       0.632068         4.27772         3.98726 
       0.638161         4.18856         3.90481 
         0.6443          4.1019         3.82411 
       0.650464         4.01855         3.74535 
       0.656582         3.96118         3.66926 
       0.662703         3.88376         3.59517 
       0.668861         3.78485         3.52264 
       0.675024         3.71945         3.45206 
       0.681124         3.69165         3.38418 
       0.687237         3.60121         3.31808 
       0.693381         3.51257         3.25354 
       0.699536         3.47381         3.19069 
       0.705665         3.40895         3.12982 
       0.711789         3.33135         3.07063 
       0.717957         3.27282         3.01256 
        0.72409         3.22017         2.95631 
       0.730186         3.18241         2.90181 
       0.736317         3.10937         2.84837 
       0.742472         3.06725         2.79607 
       0.748622          3.0179         2.74514 
        0.75476         2.94865          2.6956 
       0.760888         2.91431         2.64737 
       0.767043         2.83812         2.60016 
       0.773185          2.8035         2.55422 
       0.779291         2.77772         2.50967 
       0.785407         2.72133         2.46613 
       0.791564         2.67685         2.42337 
       0.797719         2.63151         2.38166 
       0.803834          2.5911          2.3412 
       0.809972         2.54841         2.30155 
       0.816124         2.50904         2.26274 
       0.822261         2.47304         2.22493 
       0.828378          2.4311         2.18811 
       0.834502         2.39379         2.15211 
       0.840667         2.36466         2.11668 
       0.846816         2.32258         2.08216 
       0.852925         2.28431         2.04864 
       0.859047         2.25083         2.01579 
       0.865192         2.21893         1.98356 
       0.871341         2.18907         1.95202 
       0.877463          2.1497         1.92132 
       0.883569         2.12165         1.89136 
       0.889708         2.09541          1.8619 
       0.895864         2.06483         1.83299 
       0.902008         2.02836         1.80476 
       0.908149         2.00386         1.77715 
       0.914301         1.97943         1.75008 
       0.920448         1.95328          1.7236 
       0.926574         1.93261         1.69776 
       0.932687         1.90193         1.67252 
       0.938823         1.86635          1.6477 
       0.944975         1.84916         1.62333 
       0.951105         1.81294         1.59955 
       0.957225         1.79418         1.57629 
       0.963368         1.77468         1.55341 
       0.969511          1.7533         1.53099 
       0.975621         1.72413         1.50914 
       0.981748         1.69325         1.48766 
       0.987916         1.67574         1.46647 
        0.99406          1.6601         1.44577 
        1.00019         1.63703         1.42552 
        1.00632         1.62148         1.40567 
        1.01246         1.59763         1.38618 
        1.01859         1.57796         1.36709 
        1.02471         1.55131         1.34839 
        1.03085         1.53289         1.32997 
        1.03698         1.51783         1.31195 
        1.04314         1.49889         1.29418 
        1.04929         1.48364         1.27678 
        1.05541         1.45834         1.25978 
        1.06154         1.44617         1.24304 
        1.06769         1.43093         1.22659 
        1.07382         1.41035          1.2105 
        1.07993         1.39287         1.19473 
        1.08607         1.37904         1.17917 
        1.09222         1.35885         1.16389 
        1.09836         1.34835         1.14889 
        1.10449         1.32543         1.13418 
        1.11063         1.31097         1.11971 
        1.11677         1.29912          1.1055 
         1.1229         1.27893         1.09156 
        1.12903         1.26977         1.07785 
        1.13518         1.25157         1.06437 
        1.14131         1.23985         1.05113 
        1.14745         1.22774         1.03812 
        1.15359         1.21196         1.02533 
        1.15973         1.19929         1.01276 
        1.16584         1.18433         1.00045 
        1.17197         1.16986         0.98833 
        1.17811         1.15713        0.976375 
        1.18424         1.14479        0.964655 
        1.19038         1.13066        0.953093 
        1.19652         1.12269        0.941727 
        1.20267         1.11241        0.930547 
        1.20881         1.09506        0.919552 
        1.21495         1.08588        0.908753 
        1.22108         1.07534        0.898129 
         1.2272         1.05979        0.887702 
        1.23334         1.05128        0.877416 
        1.23949         1.04166        0.867271 
        1.24562         1.03023        0.857315 
        1.25174         1.02051        0.847531 
        1.25789         1.00658        0.837871 
        1.26402        0.997194         0.82838 
        1.27014         0.98434         0.81906 
        1.27628        0.978113        0.809856 
        1.28244        0.968152        0.800777 
        1.28858        0.956062         0.79185 
        1.29471        0.946101         0.78308 
        1.30084        0.938276        0.774452 
        1.30697        0.931564        0.765942 
        1.31312        0.920855        0.757548 
        1.31925        0.911724        0.749307 
        1.32537        0.903628        0.741198 
        1.33151        0.893566         0.73318 
        1.33765        0.885176        0.725287 
        1.34378        0.875237        0.717526 
        1.34992        0.870089        0.709874 
        1.35606        0.859562        0.702318 
         1.3622        0.852405        0.694886 
        1.36833         0.84455         0.68758 
        1.37445         0.83635        0.680383 
        1.38059        0.828506        0.673267 
        1.38675        0.820556        0.666237 
        1.39288        0.812583        0.659336 
        1.39901         0.80552        0.652536 
        1.40515        0.797252        0.645816 
         1.4113        0.793329        0.639195 
        1.41742        0.783565        0.632692 
        1.42355        0.774266        0.626268 
         1.4297        0.770461        0.619914 
        1.43585        0.761729        0.613651 
        1.44198        0.755807        0.607499 
        1.44809        0.748303        0.601443 
        1.45423        0.742506        0.595449 
        1.46036        0.735814        0.589546 
        1.46649         0.72821        0.583723 
        1.47263         0.72178        0.577973 
        1.47877        0.719299        0.572304 
        1.48491        0.708163        0.566703 
        1.49104        0.705724        0.561189 
        1.49718        0.696894        0.555744 
        1.50333        0.692416        0.550363 
        1.50947        0.687282        0.545065 
         1.5156        0.680698        0.539844 
        1.52172        0.675508        0.534693 
        1.52787         0.66814        0.529599 
          1.534        0.664745        0.524577 
        1.54013        0.658363        0.519626 
        1.54627        0.652854         0.51473 
        1.55241        0.646507        0.509897 
        1.55855        0.641724        0.505134 
        1.56467        0.636563        0.500444 
         1.5708        0.630903        0.495801 
        1.57695        0.625204         0.49121 
        1.58308        0.619054        0.486688 
        1.58922        0.616019        0.482221 
        1.59535        0.609685        0.477811 
         1.6015         0.60477         0.47345 
        1.60764        0.600235        0.469146 
        1.61376        0.595296        0.464908 
        1.61989        0.590771        0.460719 
        1.62604        0.584878        0.456572 
        1.63218        0.582128        0.452479 
        1.63831        0.576327        0.448446 
        1.64444        0.572487        0.444461 
        1.65059        0.567392        0.440515 
        1.65673        0.562866        0.436621 
        1.66285         0.55913        0.432785 
        1.66898        0.555018        0.428995 
        1.67512        0.549093        0.425243 
        1.68127        0.544812        0.421532 
         1.6874         0.54225        0.417874 
        1.69353        0.537144        0.414262 
        1.69967        0.533565        0.410684 
        1.70581        0.530096         0.40715 
        1.71193        0.526041        0.403672 
        1.71806        0.522136        0.400226 
        1.72421        0.517622        0.396815 
        1.73035        0.512456        0.393447 
        1.73649         0.51141        0.390119 
        1.74262        0.505379        0.386832 
        1.74876        0.502569        0.383581 
        1.75489        0.499317        0.380374 
        1.76101        0.494618        0.377205 
        1.76715        0.491412        0.374068 
        1.77329         0.48793        0.370963 
        1.77943         0.48421        0.367892 
        1.78557        0.482206        0.364861 
        1.79171        0.478344        0.361863 
        1.79785        0.474208        0.358898 
        1.80399         0.46959        0.355968 
        1.81012        0.467528        0.353074 
        1.81625        0.464695        0.350213 
        1.82239        0.461643        0.347381 
        1.82853        0.457588        0.344581 
        1.83466        0.454139        0.341815 
        1.84078        0.450526        0.339082 
        1.84692        0.448136        0.336375 
        1.85306        0.445505        0.333694 
         1.8592        0.441883        0.331046 
        1.86533        0.439471        0.328429 
        1.87147        0.434946        0.325837 
        1.87761        0.432488        0.323272 
        1.88375        0.429893        0.320738 
        1.88988        0.426127        0.318234 
        1.89601        0.422822        0.315755 
        1.90215         0.42098        0.313301 
        1.90829        0.417361        0.310874 
        1.91442          0.4154        0.308473 
        1.92056         0.41331        0.306099 
         1.9267         0.40949        0.303748 
        1.93284        0.406411         0.30142 
        1.93897        0.404415        0.299122 
        1.94509        0.402188        0.296852 
        1.95123        0.398185          0.2946 
        1.95737        0.395897         0.29237 
        1.96349        0.393325        0.290169 
        1.96964        0.390911        0.287984 
        1.97578         0.38797        0.285821 
        1.98192        0.386104        0.283684 
        1.98805         0.38378        0.281569 
        1.99419         0.38165        0.279476 
        2.00033        0.378907        0.277403 
        2.00647        0.376374        0.275352 
         2.0126        0.374026        0.273325 
        2.01874        0.371844        0.271315 
        2.02488        0.369059        0.269324 
        2.03101        0.366614        0.267356 
        2.03714        0.365491         0.26541 
        2.04328        0.361824        0.263482 
        2.04941        0.360377        0.261574 
        2.05554         0.35804        0.259686 
        2.06167        0.355745        0.257815 
        2.06781        0.352347        0.255962 
        2.07396        0.351557        0.254124 
        2.08009        0.348966        0.252308 
        2.08622         0.34707        0.250512 
        2.09237        0.344981        0.248729 
        2.09851         0.34219        0.246964 
        2.10464        0.340499        0.245219 
        2.11077        0.337611        0.243493 
        2.11691         0.33627         0.24178 
        2.12305        0.334533        0.240083 
        2.12918        0.332118        0.238407 
        2.13531        0.330421        0.236746 
        2.14145         0.32813        0.235098 
         2.1476         0.32644        0.233463 
        2.15372        0.324701        0.231852 
        2.15985        0.322088        0.230255 
        2.16599        0.320646        0.228668 
        2.17213        0.318922        0.227098 
        2.17827        0.316491        0.225543 
         2.1844        0.315466        0.224004 
        2.19054        0.313569        0.222479 
        2.19666        0.311625        0.220971 
         2.2028        0.309053        0.219475 
        2.20893         0.30805        0.217992 
        2.21508        0.306239        0.216521 
        2.22122        0.304661        0.215063 
        2.22736        0.301997        0.213622 
        2.23349        0.300069        0.212195 
        2.23962        0.298839         0.21078 
        2.24577        0.297378        0.209376 
         2.2519        0.295805        0.207988 
        2.25802        0.293943        0.206614 
        2.26417        0.292348        0.205248 
        2.27031        0.290614        0.203894 
        2.27644        0.290031        0.202556 
        2.28257        0.287475        0.201231 
        2.28872        0.286205        0.199914 
        2.29486        0.284442         0.19861 
        2.30099        0.282739         0.19732 
        2.30712        0.281282        0.196041 
        2.31326        0.279618        0.194771 
         2.3194         0.27844        0.193513 
        2.32553        0.276731        0.192268 
        2.33166        0.275468        0.191035 
         2.3378        0.273812        0.189811 
        2.34394        0.272373        0.188597 
        2.35007        0.270768        0.187396 
        2.35619        0.268844        0.186207 
        2.36233         0.26777        0.185025 
        2.36848        0.266539        0.183851 
        2.37462        0.265481         0.18269 
        2.38075        0.263886         0.18154 
        2.38689        0.262654        0.180399 
        2.39303        0.261099        0.179267 
        2.39916         0.25957        0.178147 
        2.40529         0.25848        0.177037 
        2.41143        0.256608        0.175935 
        2.41757        0.255496        0.174842 
         2.4237        0.254185        0.173761 
        2.42983        0.253217        0.172688 
        2.43598        0.251774        0.171622 
        2.44211        0.249681        0.170567 
        2.44823        0.249295        0.169523 
        2.45437        0.248229        0.168485 
        2.46052        0.246706        0.167455 
        2.46665        0.245247        0.166435 
        2.47279         0.24396        0.165424 
        2.47892         0.24316        0.164421 
        2.48507        0.241708        0.163425 
         2.4912        0.240591        0.162439 
