# k  (h/Mpc)    P(k)  (Mpc/h)^3    P_linear(k)  (Mpc/h)^3
     0.00783031         10452.9         10506.8 
       0.013688         13056.9         13360.8 
       0.019231         13691.1         13876.9 
      0.0249154         13133.7         13129.8 
      0.0312784         11487.5         11604.7 
      0.0375637         9838.89           10008 
      0.0433917         8695.52         8752.17 
      0.0492413         7690.74         7801.65 
      0.0555754         7038.55          7086.8 
      0.0619321         6354.51         6586.48 
       0.067871         6063.02         6199.79 
      0.0738098          5708.7         5803.99 
      0.0800417          5256.6         5333.16 
      0.0862327         4725.14         4814.66 
      0.0921407         4257.74         4311.85 
      0.0982031         3848.92         3837.05 
       0.104506         3407.02         3427.91 
       0.110769         3130.32         3122.89 
       0.116806         2980.24         2916.62 
       0.122832         2801.55          2772.7 
       0.129052         2677.86         2656.85 
       0.135211          2605.3         2544.21 
       0.141259         2436.24          2415.7 
       0.147318         2260.97         2263.43 
       0.153489         2122.75         2091.52 
       0.159709         2012.02         1916.91 
       0.165845         1823.82         1759.72 
       0.171974         1763.14         1629.05 
       0.178125         1687.41         1528.23 
       0.184229         1562.32         1454.98 
        0.19034         1537.27         1400.32 
       0.196428         1494.98         1354.31 
       0.202534         1406.84         1307.39 
       0.208729         1383.17         1252.83 
       0.214876         1324.95         1190.19 
       0.220989         1246.13         1122.05 
       0.227147          1211.3         1052.66 
        0.23329         1160.06         988.151 
       0.239377         1142.44         932.788 
       0.245482         1083.71         887.401 
       0.251667         1043.24         851.056 
       0.257832         1030.22         821.886 
       0.263955         980.595         796.477 
       0.270079         952.016         771.451 
        0.27624         913.493          744.42 
       0.282372         898.191         714.926 
        0.28843         888.207         683.874 
       0.294538         843.232         652.114 
       0.300721          821.29         621.377 
        0.30691          805.28         593.481 
       0.313033         770.909         569.542 
       0.319153         760.097         549.137 
       0.325316         748.938         531.495 
        0.33145         733.073         515.691 
       0.337538         707.654         500.677 
       0.343633         689.112         485.437 
       0.349808         673.555         469.421 
       0.355968         661.272         452.874 
       0.362074         639.626         436.354 
       0.368217         636.942         420.187 
       0.374374         625.894         404.945 
       0.380519          601.85         391.083 
       0.386598         596.409         378.725 
       0.392688         583.189         367.573 
        0.39888         568.183          357.16 
       0.405048          558.37         347.307 
       0.411186         556.465         337.718 
       0.417313         551.141         328.145 
       0.423458         534.519         318.473 
       0.429607         520.263         308.847 
       0.435692         513.453         299.511 
       0.441815         504.639         290.475 
       0.447964         495.421         281.927 
       0.454126         489.605         273.943 
       0.460267         481.808         266.523 
       0.466387         474.119         259.602 
        0.47254         466.946         252.993 
       0.478662         457.705         246.631 
       0.484765         453.004         240.409 
       0.490885         448.144         234.269 
       0.497035         439.497         228.188 
       0.503198         439.143         222.209 
       0.509342         428.925         216.425 
       0.515458         421.846         210.903 
       0.521598         416.225         205.618 
       0.527764         409.469         200.563 
       0.533884         407.433         195.782 
           0.54         402.032         191.217 
       0.546137         394.082         186.803 
       0.552299         393.287         182.496 
       0.558452         387.066         178.288 
       0.564573          383.41         174.193 
       0.570708          378.63          170.19 
       0.576825         371.752         166.307 
       0.582926         369.474         162.551 
       0.589034         364.008         158.913 
       0.595184         361.533         155.382 
       0.601379         355.812         151.962 
       0.607522         349.374         148.699 
       0.613639         348.066         145.557 
       0.619772         346.605         142.499 
       0.625918         340.842         139.512 
       0.632068         336.998         136.596 
       0.638161         334.461          133.78 
         0.6443          331.05         131.019 
       0.650464          326.56         128.324 
       0.656582         323.717         125.726 
       0.662703         321.548         123.202 
       0.668861         316.211         120.736 
       0.675024         314.656          118.34 
       0.681124         310.948         116.039 
       0.687237         308.616         113.798 
       0.693381         304.892         111.609 
       0.699536          302.55         109.475 
       0.705665         299.582         107.404 
       0.711789         297.572         105.387 
       0.717957         293.926         103.404 
        0.72409         290.673         101.481 
       0.730186         292.487         99.6177 
       0.736317         287.104         97.7914 
       0.742472         284.132         96.0056 
       0.748622          281.03         94.2685 
        0.75476         280.928         92.5806 
       0.760888         277.582         90.9384 
       0.767043         274.594         89.3309 
       0.773185         273.157         87.7663 
       0.779291         269.105         86.2482 
       0.785407         268.338         84.7634 
       0.791564         265.655         83.3035 
       0.797719         261.589         81.8782 
       0.803834         263.651          80.495 
       0.809972         260.092         79.1388 
       0.816124          256.65         77.8109 
       0.822261          254.51         76.5174 
       0.828378         254.305         75.2577 
       0.834502         250.506         74.0258 
       0.840667         250.621         72.8141 
       0.846816         246.237         71.6334 
       0.852925         245.959         70.4868 
       0.859047         243.592         69.3631 
       0.865192         243.234         68.2606 
       0.871341         239.917         67.1815 
       0.877463         237.894         66.1307 
       0.883569         237.359         65.1052 
       0.889708         235.096         64.0963 
       0.895864         233.183         63.1064 
       0.902008         231.229         62.1395 
       0.908149         229.374         61.1936 
       0.914301         228.113         60.2659 
       0.920448         227.303         59.3585 
       0.926574         225.129         58.4731 
       0.932687         224.077         57.6078 
       0.938823         222.181          56.757 
       0.944975         221.153         55.9216 
       0.951105         218.861         55.1061 
       0.957225         217.401         54.3084 
       0.963368         216.792         53.5239 
       0.969511         213.401          52.755 
       0.975621         212.315         52.0054 
       0.981748         211.324         51.2686 
       0.987916         210.351         50.5415 
        0.99406         208.592         49.8314 
        1.00019         207.336         49.1364 
        1.00632         206.446         48.4554 
        1.01246         204.876         47.7863 
        1.01859         202.982         47.1311 
        1.02471          201.46          46.489 
        1.03085         200.521         45.8568 
        1.03698         199.227         45.2377 
        1.04314         198.858         44.6275 
        1.04929         197.567         44.0301 
        1.05541         196.067          43.446 
        1.06154          194.41         42.8712 
        1.06769         193.137          42.306 
        1.07382         192.644         41.7529 
        1.07993           190.6         41.2109 
        1.08607          189.52         40.6765 
        1.09222         188.342          40.151 
        1.09836         187.609         39.6355 
        1.10449         185.868         39.1296 
        1.11063         184.839         38.6321 
        1.11677         183.979         38.1435 
         1.1229         182.593         37.6643 
        1.12903         181.708         37.1929 
        1.13518         180.416         36.7292 
        1.14131         179.591         36.2737 
        1.14745         178.097         35.8263 
        1.15359         176.534         35.3863 
        1.15973         176.192         34.9536 
        1.16584         175.287         34.5302 
        1.17197         174.165         34.1131 
        1.17811         172.624         33.7018 
        1.18424         171.974         33.2984 
        1.19038         170.862         32.9005 
        1.19652         169.555         32.5093 
        1.20267         168.673         32.1245 
        1.20881          167.46         31.7461 
        1.21495         167.207         31.3743 
        1.22108         165.901         31.0087 
         1.2272         164.582         30.6497 
        1.23334         164.031         30.2956 
        1.23949         163.417         29.9463 
        1.24562         162.213         29.6035 
        1.25174         161.197         29.2666 
        1.25789         159.998         28.9339 
        1.26402          159.81         28.6071 
        1.27014         158.871         28.2861 
        1.27628         157.085         27.9691 
        1.28244          156.66         27.6564 
        1.28858          155.63         27.3488 
        1.29471          154.76         27.0467 
        1.30084         153.772         26.7495 
        1.30697         152.837         26.4562 
        1.31312         151.954          26.167 
        1.31925         150.862          25.883 
        1.32537         150.487         25.6035 
        1.33151         149.701         25.3272 
        1.33765         148.313         25.0551 
        1.34378           148.2         24.7876 
        1.34992         147.342         24.5238 
        1.35606         146.345         24.2632 
         1.3622         145.858          24.007 
        1.36833         144.287         23.7551 
        1.37445          144.25         23.5069 
        1.38059         143.103         23.2616 
        1.38675         142.358         23.0192 
        1.39288         141.314         22.7812 
        1.39901         140.621         22.5467 
        1.40515         140.092          22.315 
         1.4113         139.196         22.0866 
        1.41742          138.22         21.8623 
        1.42355         138.089         21.6408 
         1.4297         136.824         21.4216 
        1.43585         136.168         21.2056 
        1.44198          134.95         20.9934 
        1.44809          134.32         20.7845 
        1.45423         134.067         20.5777 
        1.46036         132.891         20.3741 
        1.46649         132.142         20.1732 
        1.47263         131.733         19.9748 
        1.47877         130.621         19.7793 
        1.48491         130.194          19.586 
        1.49104         128.718         19.3957 
        1.49718         128.692         19.2079 
        1.50333          128.17         19.0222 
        1.50947         127.307         18.8393 
         1.5156         126.565         18.6592 
        1.52172         125.882         18.4814 
        1.52787         125.242         18.3056 
          1.534         124.603         18.1322 
        1.54013         123.941         17.9613 
        1.54627         123.053         17.7923 
        1.55241         122.709         17.6255 
        1.55855         121.969          17.461 
        1.56467         121.092         17.2991 
         1.5708         120.248         17.1388 
        1.57695         119.987         16.9803 
        1.58308         119.145         16.8242 
        1.58922          119.06         16.6699 
        1.59535         118.435         16.5177 
         1.6015          117.26         16.3671 
        1.60764         116.548         16.2185 
        1.61376         116.102         16.0721 
        1.61989         115.626         15.9275 
        1.62604         114.801         15.7843 
        1.63218         114.408         15.6429 
        1.63831          113.66         15.5036 
        1.64444         112.869          15.366 
        1.65059         112.238         15.2297 
        1.65673         112.072         15.0952 
        1.66285         111.432         14.9628 
        1.66898         110.542         14.8318 
        1.67512          110.14         14.7022 
        1.68127         109.591         14.5741 
         1.6874         108.671         14.4477 
        1.69353          108.16         14.3229 
        1.69967         107.735         14.1994 
        1.70581           107.4         14.0773 
        1.71193         106.621         13.9571 
        1.71806         106.001         13.8381 
        1.72421          105.43         13.7202 
        1.73035         105.023         13.6038 
        1.73649         104.268         13.4889 
        1.74262         103.923         13.3753 
        1.74876         103.154          13.263 
        1.75489          102.82         13.1522 
        1.76101          102.15         13.0427 
        1.76715         101.483         12.9343 
        1.77329          101.13          12.827 
        1.77943         100.482         12.7208 
        1.78557         100.162         12.6161 
        1.79171         99.6797         12.5125 
        1.79785         98.7966           12.41 
        1.80399          98.663         12.3087 
        1.81012         97.8455         12.2087 
        1.81625         97.3999         12.1099 
        1.82239         97.0138          12.012 
        1.82853         96.4288         11.9152 
        1.83466         95.7293         11.8196 
        1.84078         95.4933         11.7251 
        1.84692         95.1896         11.6315 
        1.85306          94.559         11.5389 
         1.8592         94.1702         11.4473 
        1.86533         93.5398         11.3569 
        1.87147         93.1253         11.2673 
        1.87761         92.3686         11.1786 
        1.88375         92.0074          11.091 
        1.88988         91.2864         11.0045 
        1.89601         91.2669         10.9188 
        1.90215         90.5531         10.8339 
        1.90829         90.0228           10.75 
        1.91442         89.6806          10.667 
        1.92056         89.3202         10.5849 
         1.9267         88.6841         10.5037 
        1.93284         88.3676         10.4232 
        1.93897         87.9512         10.3437 
        1.94509         87.3572         10.2652 
        1.95123         86.9485         10.1874 
        1.95737         86.6367         10.1103 
        1.96349         86.1733         10.0342 
        1.96964         85.7535         9.95864 
        1.97578         85.1288         9.88384 
        1.98192         84.6718         9.80997 
        1.98805         84.1899         9.73684 
        1.99419         83.9779         9.66446 
        2.00033         83.2698         9.59278 
        2.00647         83.0534         9.52185 
         2.0126         82.6019         9.45175 
        2.01874         82.4323         9.38226 
        2.02488         81.8184          9.3134 
        2.03101         81.3783         9.24536 
        2.03714         81.0446         9.17806 
        2.04328         80.6569         9.11136 
        2.04941         80.1798         9.04538 
        2.05554         79.7996          8.9801 
        2.06167         79.2027         8.91538 
        2.06781         78.8036         8.85129 
        2.07396         78.5983         8.78773 
        2.08009         78.0132         8.72491 
        2.08622         77.8357         8.66278 
        2.09237          77.442         8.60113 
        2.09851         76.7119         8.54008 
        2.10464         76.6411         8.47971 
        2.11077         76.3049         8.42001 
        2.11691          75.943         8.36075 
        2.12305         75.4082         8.30205 
        2.12918         75.0686         8.24407 
        2.13531         74.6825         8.18663 
        2.14145         74.1881         8.12961 
         2.1476         74.0151         8.07306 
        2.15372         73.5564         8.01734 
        2.15985         73.0966         7.96209 
        2.16599         72.8077          7.9072 
        2.17213         72.4237         7.85289 
        2.17827         71.9378          7.7991 
         2.1844         71.6569         7.74587 
        2.19054         71.4011         7.69311 
        2.19666         71.0791         7.64092 
         2.2028         70.5589         7.58917 
        2.20893         70.2398         7.53787 
        2.21508          69.842           7.487 
        2.22122         69.4634         7.43657 
        2.22736         69.2123         7.38672 
        2.23349          68.826         7.33733 
        2.23962         68.6328         7.28837 
        2.24577         68.1193         7.23982 
         2.2519         67.7957         7.19177 
        2.25802         67.4326         7.14424 
        2.26417         67.0762         7.09701 
        2.27031         66.7557         7.05016 
        2.27644         66.5391         7.00387 
        2.28257         66.1492           6.958 
        2.28872         65.8262         6.91246 
        2.29486         65.5958         6.86733 
        2.30099         65.0919          6.8227 
        2.30712         64.9439         6.77844 
        2.31326         64.6417         6.73451 
         2.3194         64.2148         6.69099 
        2.32553          63.909         6.64792 
        2.33166         63.5723         6.60526 
         2.3378         63.2893         6.56291 
        2.34394         62.9492         6.52092 
        2.35007         62.6807         6.47935 
        2.35619         62.3366          6.4382 
        2.36233         62.0588         6.39731 
        2.36848         61.7375         6.35669 
        2.37462         61.4134         6.31651 
        2.38075         61.1252         6.27672 
        2.38689         60.7688         6.23723 
        2.39303         60.5007          6.1981 
        2.39916         60.2511         6.15933 
        2.40529         59.9805         6.12091 
        2.41143         59.6916         6.08278 
        2.41757         59.2746         6.04497 
         2.4237         59.2075         6.00754 
        2.42983         58.8035         5.97044 
        2.43598         58.5616         5.93355 
        2.44211         58.1147         5.89703 
        2.44823         57.9552          5.8609 
        2.45437          57.638         5.82498 
        2.46052         57.2572         5.78933 
        2.46665         57.0147         5.75404 
        2.47279         56.7571         5.71906 
        2.47892         56.5988         5.68434 
        2.48507         56.2161         5.64988 
         2.4912          56.009         5.61577 
