# k  (h/Mpc)    Pcb(k)  (Mpc/h)^3    Pcb_linear(k)  (Mpc/h)^3
     0.00783031         13361.8         13422.2 
       0.013688         16657.8         17086.3 
       0.019231         17483.9         17755.5 
      0.0249154           16802         16804.8 
      0.0312784         14669.7         14856.1 
      0.0375637         12553.1         12813.9 
      0.0433917         11104.2           11207 
      0.0492413         9814.73         9990.62 
      0.0555754         8981.35         9075.73 
      0.0619321         8085.52         8435.37 
       0.067871         7718.98         7940.39 
      0.0738098         7278.09         7433.66 
      0.0800417         6697.07         6830.79 
      0.0862327         6021.66          6166.8 
      0.0921407         5435.71         5522.87 
      0.0982031          4925.3         4914.78 
       0.104506         4362.15         4390.77 
       0.110769         4014.39         4000.12 
       0.116806         3825.29         3735.93 
       0.122832          3599.7         3551.62 
       0.129052         3430.98         3403.24 
       0.135211         3345.88         3258.96 
       0.141259         3123.12         3094.37 
       0.147318         2902.96         2899.35 
       0.153489         2730.76         2679.15 
       0.159709         2602.21         2455.48 
       0.165845         2363.66         2254.14 
       0.171974         2288.42         2086.76 
       0.178125         2200.51         1957.61 
       0.184229         2031.46          1863.8 
        0.19034         2004.57         1793.77 
       0.196428         1951.52         1734.85 
       0.202534         1839.77         1674.75 
       0.208729         1807.86         1604.86 
       0.214876         1730.54         1524.61 
       0.220989         1638.78         1437.33 
       0.227147         1592.42         1348.45 
        0.23329         1526.79         1265.81 
       0.239377         1512.32         1194.89 
       0.245482         1438.27         1136.76 
       0.251667         1386.01          1090.2 
       0.257832         1365.99         1052.83 
       0.263955         1304.71         1020.28 
       0.270079         1270.67         988.223 
        0.27624         1219.18           953.6 
       0.282372          1203.5         915.822 
        0.28843         1185.51         876.043 
       0.294538         1129.49          835.36 
       0.300721         1105.95         795.986 
        0.30691         1081.02         760.252 
       0.313033         1038.31         729.585 
       0.319153          1026.5          703.45 
       0.325316         1013.55         680.849 
        0.33145         992.256         660.602 
       0.337538         959.401         641.372 
       0.343633         936.986          621.85 
       0.349808         918.656          601.33 
       0.355968         901.492         580.136 
       0.362074         873.126         558.974 
       0.368217         870.837         538.264 
       0.374374         857.557         518.741 
       0.380519         826.659         500.982 
       0.386598         821.622         485.151 
       0.392688         802.195         470.865 
        0.39888         784.073         457.525 
       0.405048         769.788         444.905 
       0.411186         767.933         432.622 
       0.417313          763.76         420.356 
       0.423458         740.226         407.969 
       0.429607         720.283         395.636 
       0.435692         713.736         383.678 
       0.441815         700.399         372.102 
       0.447964         691.314         361.153 
       0.454126         682.761         350.925 
       0.460267         673.283          341.42 
       0.466387          662.55         332.554 
        0.47254         651.766         324.089 
       0.478662         642.191         315.937 
       0.484765         635.795         307.968 
       0.490885         628.873         300.102 
       0.497035           617.1         292.312 
       0.503198         616.757         284.653 
       0.509342         604.749         277.245 
       0.515458         593.183          270.17 
       0.521598         589.913         263.401 
       0.527764         577.419         256.925 
       0.533884         572.938         250.801 
           0.54         567.658         244.952 
       0.546137         558.762         239.299 
       0.552299         556.705          233.78 
       0.558452         549.171          228.39 
       0.564573         544.561         223.144 
       0.570708         539.144         218.016 
       0.576825         528.587         213.042 
       0.582926          526.96         208.231 
       0.589034         519.219         203.571 
       0.595184         514.731         199.047 
       0.601379         507.085         194.667 
       0.607522         498.849         190.486 
       0.613639         498.088         186.461 
       0.619772         495.535         182.543 
       0.625918         486.675         178.717 
       0.632068         483.908         174.982 
       0.638161          479.09         171.375 
         0.6443         473.616         167.837 
       0.650464         469.322         164.385 
       0.656582         465.743         161.057 
       0.662703          461.35         157.824 
       0.668861         455.163         154.665 
       0.675024         452.755         151.596 
       0.681124         445.568         148.648 
       0.687237         444.545         145.778 
       0.693381         438.132         142.973 
       0.699536         437.082         140.239 
       0.705665         431.819         137.587 
       0.711789         430.513         135.002 
       0.717957         424.454         132.462 
        0.72409         420.391         129.999 
       0.730186         421.705         127.612 
       0.736317          414.56         125.273 
       0.742472          410.82         122.985 
       0.748622         408.308          120.76 
        0.75476         405.133         118.598 
       0.760888         402.187         116.494 
       0.767043          399.24         114.435 
       0.773185         396.588          112.43 
       0.779291         391.781         110.486 
       0.785407         389.675         108.584 
       0.791564         386.875         106.713 
       0.797719         381.089         104.888 
       0.803834         383.327         103.116 
       0.809972         377.267         101.378 
       0.816124         373.919         99.6774 
       0.822261         371.264         98.0204 
       0.828378         369.866         96.4067 
       0.834502          364.09         94.8287 
       0.840667         364.409         93.2764 
       0.846816         358.763         91.7639 
       0.852925         359.412          90.295 
       0.859047         356.077         88.8556 
       0.865192         354.423         87.4432 
       0.871341         349.799         86.0609 
       0.877463         347.977         84.7149 
       0.883569         345.396         83.4012 
       0.889708          342.25         82.1088 
       0.895864         339.145         80.8406 
       0.902008         337.817          79.602 
       0.908149          334.94         78.3903 
       0.914301         333.376          77.202 
       0.920448         330.835         76.0396 
       0.926574         328.805         74.9053 
       0.932687         327.501         73.7968 
       0.938823         323.841         72.7069 
       0.944975         323.041         71.6367 
       0.951105         320.098         70.5921 
       0.957225         316.412         69.5702 
       0.963368         317.087         68.5653 
       0.969511         311.366         67.5803 
       0.975621         310.626         66.6201 
       0.981748         309.388         65.6762 
       0.987916         307.482         64.7448 
        0.99406          304.73         63.8351 
        1.00019         302.061         62.9448 
        1.00632         301.846         62.0724 
        1.01246          299.26         61.2153 
        1.01859         296.005         60.3759 
        1.02471         294.313         59.5534 
        1.03085         293.503         58.7435 
        1.03698         291.849         57.9505 
        1.04314         290.694         57.1688 
        1.04929         288.812         56.4035 
        1.05541         285.774         55.6553 
        1.06154          284.22          54.919 
        1.06769         281.815         54.1949 
        1.07382         280.661         53.4864 
        1.07993         278.603         52.7921 
        1.08607         277.103         52.1075 
        1.09222         274.981         51.4343 
        1.09836         274.236         50.7739 
        1.10449         272.177         50.1259 
        1.11063         270.144         49.4886 
        1.11677         267.834         48.8627 
         1.1229         267.324         48.2488 
        1.12903         265.112         47.6449 
        1.13518         263.307         47.0509 
        1.14131         262.593         46.4674 
        1.14745         259.635         45.8942 
        1.15359         257.832         45.3307 
        1.15973         256.981         44.7764 
        1.16584         255.463         44.2339 
        1.17197         253.984         43.6997 
        1.17811         251.773         43.1727 
        1.18424         250.515          42.656 
        1.19038         249.444         42.1463 
        1.19652         246.628         41.6452 
        1.20267         246.199         41.1523 
        1.20881         244.352         40.6674 
        1.21495         243.852         40.1912 
        1.22108         241.926         39.7228 
         1.2272         239.304         39.2629 
        1.23334         238.694         38.8093 
        1.23949         237.522         38.3619 
        1.24562         235.987         37.9227 
        1.25174         234.586         37.4912 
        1.25789         232.523          37.065 
        1.26402         232.346         36.6463 
        1.27014         231.342         36.2351 
        1.27628         229.046          35.829 
        1.28244         227.724         35.4284 
        1.28858         226.492         35.0345 
        1.29471         225.256         34.6475 
        1.30084         224.268         34.2667 
        1.30697         222.074          33.891 
        1.31312         220.932         33.5205 
        1.31925         219.692         33.1567 
        1.32537         218.997         32.7987 
        1.33151         217.493         32.4447 
        1.33765         215.924         32.0961 
        1.34378         214.969         31.7534 
        1.34992         213.308         31.4155 
        1.35606         212.439         31.0818 
         1.3622         210.994         30.7535 
        1.36833          209.72         30.4308 
        1.37445         209.468         30.1129 
        1.38059         207.149         29.7986 
        1.38675         205.894         29.4881 
        1.39288         204.947         29.1832 
        1.39901         203.403         28.8828 
        1.40515         202.845          28.586 
         1.4113         201.271         28.2934 
        1.41742         199.745         28.0061 
        1.42355         199.874         27.7223 
         1.4297         198.159         27.4416 
        1.43585         197.225         27.1648 
        1.44198         195.414          26.893 
        1.44809         194.824         26.6254 
        1.45423         193.738         26.3605 
        1.46036         192.455         26.0997 
        1.46649         191.371         25.8423 
        1.47263         190.722         25.5882 
        1.47877         189.272         25.3377 
        1.48491         187.834         25.0901 
        1.49104         186.281         24.8464 
        1.49718         185.944         24.6057 
        1.50333         184.318         24.3679 
        1.50947         183.693         24.1336 
         1.5156         182.609         23.9028 
        1.52172         181.753         23.6751 
        1.52787         180.646         23.4498 
          1.534         179.869         23.2278 
        1.54013         178.599         23.0089 
        1.54627          177.72         22.7924 
        1.55241         176.893         22.5787 
        1.55855         176.055          22.368 
        1.56467         174.845         22.1606 
         1.5708         173.442         21.9552 
        1.57695         172.887         21.7522 
        1.58308         171.589         21.5522 
        1.58922         170.834         21.3546 
        1.59535         169.523         21.1595 
         1.6015         168.914         20.9666 
        1.60764         167.773         20.7763 
        1.61376         166.612         20.5888 
        1.61989         165.949         20.4035 
        1.62604         164.789           20.22 
        1.63218           164.1         20.0389 
        1.63831         163.251         19.8605 
        1.64444         161.984         19.6842 
        1.65059         161.339         19.5096 
        1.65673         160.336         19.3374 
        1.66285         159.698         19.1677 
        1.66898         158.613         18.9999 
        1.67512         157.688         18.8339 
        1.68127         156.985         18.6697 
         1.6874         155.945         18.5079 
        1.69353         155.436          18.348 
        1.69967         154.176         18.1897 
        1.70581         153.782         18.0333 
        1.71193          152.58         17.8794 
        1.71806         151.384         17.7269 
        1.72421         150.904         17.5759 
        1.73035         149.995         17.4268 
        1.73649         148.936         17.2796 
        1.74262         148.543         17.1341 
        1.74876         147.703         16.9902 
        1.75489         147.075         16.8482 
        1.76101         145.746          16.708 
        1.76715         144.938         16.5691 
        1.77329         144.096         16.4317 
        1.77943          143.22         16.2957 
        1.78557         142.723         16.1615 
        1.79171         141.938         16.0288 
        1.79785         140.864         15.8975 
        1.80399         140.284         15.7678 
        1.81012         139.406         15.6397 
        1.81625         138.721          15.513 
        1.82239         137.996         15.3876 
        1.82853         137.142         15.2636 
        1.83466         136.123         15.1411 
        1.84078         135.803         15.0201 
        1.84692         135.246         14.9002 
        1.85306         134.195         14.7815 
         1.8592         133.715         14.6643 
        1.86533         132.573         14.5484 
        1.87147         132.112         14.4336 
        1.87761         131.195         14.3201 
        1.88375         130.279         14.2078 
        1.88988         129.814          14.097 
        1.89601         129.423         13.9872 
        1.90215         128.854         13.8785 
        1.90829         127.492          13.771 
        1.91442         126.751         13.6647 
        1.92056         126.254         13.5596 
         1.9267         125.547         13.4554 
        1.93284         124.757         13.3523 
        1.93897         124.184         13.2505 
        1.94509           123.5           13.15 
        1.95123         122.912         13.0503 
        1.95737         122.281         12.9515 
        1.96349         121.548          12.854 
        1.96964         120.827         12.7572 
        1.97578         120.211         12.6614 
        1.98192          119.81         12.5668 
        1.98805         119.104         12.4731 
        1.99419         118.057         12.3804 
        2.00033         117.731         12.2886 
        2.00647         117.206         12.1977 
         2.0126         116.413         12.1079 
        2.01874         115.981         12.0189 
        2.02488         115.055         11.9307 
        2.03101         114.685         11.8435 
        2.03714         113.897         11.7573 
        2.04328         113.582         11.6719 
        2.04941         112.994         11.5873 
        2.05554          112.35         11.5037 
        2.06167         111.457         11.4208 
        2.06781         110.946         11.3387 
        2.07396         110.398         11.2573 
        2.08009         109.562         11.1768 
        2.08622         109.222         11.0972 
        2.09237         108.402         11.0183 
        2.09851         108.054           10.94 
        2.10464          107.56         10.8627 
        2.11077         106.844         10.7862 
        2.11691         106.448         10.7103 
        2.12305         105.841         10.6351 
        2.12918         105.185         10.5608 
        2.13531         104.588         10.4873 
        2.14145         104.105         10.4142 
         2.1476         103.541         10.3418 
        2.15372         102.929         10.2704 
        2.15985         102.407         10.1996 
        2.16599         101.744         10.1293 
        2.17213          101.25         10.0597 
        2.17827         100.629         9.99083 
         2.1844         100.381         9.92264 
        2.19054         99.6662         9.85505 
        2.19666         99.0184          9.7882 
         2.2028         98.7277          9.7219 
        2.20893         98.2812         9.65619 
        2.21508         97.6437         9.59102 
        2.22122         97.1443         9.52642 
        2.22736         96.8276         9.46255 
        2.23349         96.0821         9.39929 
        2.23962         95.5785         9.33657 
        2.24577         95.1899         9.27437 
         2.2519          94.578         9.21283 
        2.25802         94.1543         9.15194 
        2.26417         93.5279         9.09143 
        2.27031         92.9525         9.03142 
        2.27644         92.6619         8.97212 
        2.28257         92.1424         8.91336 
        2.28872         91.7152         8.85502 
        2.29486         91.5297         8.79721 
        2.30099         90.6389         8.74004 
        2.30712         90.3905         8.68334 
        2.31326         89.9005         8.62706 
         2.3194          89.342         8.57131 
        2.32553         88.8895         8.51614 
        2.33166          88.368         8.46149 
         2.3378         88.0393         8.40724 
        2.34394         87.5677         8.35345 
        2.35007         86.9007          8.3002 
        2.35619         86.6586         8.24749 
        2.36233         86.1635         8.19511 
        2.36848         85.6446         8.14307 
        2.37462          85.407          8.0916 
        2.38075          84.793         8.04062 
        2.38689         84.4508         7.99004 
        2.39303         84.0352          7.9399 
        2.39916          83.599         7.89025 
        2.40529         83.2516         7.84103 
        2.41143         82.8195         7.79219 
        2.41757         82.2606         7.74374 
         2.4237         81.7963          7.6958 
        2.42983         81.3747         7.64827 
        2.43598          81.131         7.60101 
        2.44211         80.7695         7.55423 
        2.44823         80.2985         7.50795 
        2.45437          79.886         7.46194 
        2.46052         79.4266         7.41627 
        2.46665          78.818         7.37106 
        2.47279         78.6505         7.32625 
        2.47892         78.2821         7.28177 
        2.48507         77.8662         7.23763 
         2.4912         77.3347         7.19394 
