# k  (h/Mpc)    Pcb(k)  (Mpc/h)^3    Pcb_linear(k)  (Mpc/h)^3
     0.00783031         7171.83         7260.85 
       0.013688          8557.2         8514.59 
       0.019231         8314.05         8295.05 
      0.0249154         7336.32         7425.23 
      0.0312784         6233.67          6256.9 
      0.0375637         5261.84         5242.26 
      0.0433917         4504.27          4535.8 
      0.0492413          4038.4         4040.71 
      0.0555754         3614.91         3670.32 
      0.0619321         3401.47         3377.34 
       0.067871         3072.89         3108.58 
      0.0738098         2786.09         2816.73 
      0.0800417         2452.92         2492.89 
      0.0862327         2171.62         2182.84 
      0.0921407         1939.51         1926.47 
      0.0982031         1722.91         1719.94 
       0.104506         1603.41         1566.08 
       0.110769         1490.38         1460.53 
       0.116806         1400.61         1383.49 
       0.122832         1335.13            1312 
       0.129052         1235.58         1230.79 
       0.135211         1150.38         1139.31 
       0.141259          1072.9         1043.52 
       0.147318         989.772         950.486 
       0.153489         900.213         867.199 
       0.159709         841.901         799.812 
       0.165845         802.078          749.62 
       0.171974         755.867         711.912 
       0.178125          723.68         680.937 
       0.184229         694.428         651.633 
        0.19034         647.885         620.164 
       0.196428         627.596         585.679 
       0.202534          600.08         549.206 
       0.208729         562.468         512.832 
       0.214876         528.056         479.909 
       0.220989          507.11         451.868 
       0.227147         479.821         428.632 
        0.23329          460.12         409.582 
       0.239377         448.351         393.287 
       0.245482         419.474         377.975 
       0.251667          413.13         362.347 
       0.257832         397.331         346.171 
       0.263955          381.26         329.721 
       0.270079         365.024         313.479 
        0.27624         357.243         298.078 
       0.282372         342.531         284.198 
        0.28843         330.287         272.079 
       0.294538         315.287         261.325 
       0.300721         311.421         251.548 
        0.30691         296.882         242.429 
       0.313033         289.587         233.672 
       0.319153         277.903         224.994 
       0.325316         270.777         216.293 
        0.33145         261.102         207.804 
       0.337538         256.581         199.713 
       0.343633         247.465         192.109 
       0.349808         239.276         184.991 
       0.355968         235.158         178.464 
       0.362074         228.865         172.482 
       0.368217         222.394         166.822 
       0.374374         214.702         161.398 
       0.380519         211.014         156.144 
       0.386598         205.354          151.07 
       0.392688         202.199         146.127 
        0.39888         196.714          141.27 
       0.405048         191.776         136.651 
       0.411186         187.474         132.298 
       0.417313         183.326         128.194 
       0.423458         179.368         124.309 
       0.429607         175.128         120.619 
       0.435692         169.619         117.124 
       0.441815         168.196         113.736 
       0.447964         165.068         110.447 
       0.454126         157.959         107.253 
       0.460267         156.139         104.177 
       0.466387         153.886         101.226 
        0.47254         150.442         98.3807 
       0.478662         149.143         95.6688 
       0.484765         144.513         93.0828 
       0.490885         142.202         90.5994 
       0.497035         140.287         88.2017 
       0.503198         136.404         85.8861 
       0.509342         134.177         83.6564 
       0.515458         132.195         81.5109 
       0.521598         130.089         79.4276 
       0.527764         128.155         77.4047 
       0.533884          126.14          75.466 
           0.54         123.801         73.5983 
       0.546137         122.705         71.7919 
       0.552299         120.559         70.0431 
       0.558452         118.208         68.3578 
       0.564573         116.147         66.7371 
       0.570708         114.258         65.1656 
       0.576825         112.786          63.649 
       0.582926         110.572          62.184 
       0.589034         108.887         60.7623 
       0.595184         107.514         59.3751 
       0.601379         106.149         58.0219 
       0.607522          103.69         56.7224 
       0.613639         103.292         55.4694 
       0.619772         101.035         54.2525 
       0.625918          99.866         53.0706 
       0.632068         98.7497         51.9237 
       0.638161         97.6363         50.8209 
         0.6443         96.3013         49.7419 
       0.650464          95.191         48.6903 
       0.656582         93.7681         47.6766 
       0.662703         92.1809         46.6917 
       0.668861         91.0028         45.7293 
       0.675024         89.9772         44.7937 
       0.681124         89.0177         43.8939 
       0.687237         87.3556         43.0174 
       0.693381         86.3403         42.1609 
       0.699536         85.3998         41.3264 
       0.705665         85.5925         40.5181 
       0.711789         83.3219         39.7324 
       0.717957         82.8434         38.9622 
        0.72409         81.6116         38.2169 
       0.730186         80.2781         37.4957 
       0.736317         80.0284         36.7893 
       0.742472         79.1509         36.0987 
       0.748622         78.3032         35.4266 
        0.75476         77.4715         34.7731 
       0.760888         76.3572         34.1373 
       0.767043         75.6892         33.5149 
       0.773185         74.7902         32.9094 
       0.779291         74.0907         32.3224 
       0.785407         73.4685          31.749 
       0.791564         72.6711         31.1859 
       0.797719         71.4895         30.6368 
       0.803834         71.2001         30.1045 
       0.809972         70.0141          29.583 
       0.816124         69.5834         29.0728 
       0.822261         68.9998         28.5761 
       0.828378         68.4417         28.0925 
       0.834502         67.7367         27.6198 
       0.840667          67.038         27.1549 
       0.846816         66.1672         26.7021 
       0.852925          65.659         26.2626 
       0.859047         64.7931          25.832 
       0.865192         64.4341         25.4098 
       0.871341         64.0384         24.9967 
       0.877463         62.9602         24.5948 
       0.883569         62.5779         24.2027 
       0.889708          62.193         23.8172 
       0.895864         61.6536         23.4391 
       0.902008         61.0662         23.0701 
       0.908149         60.6322         22.7093 
       0.914301         60.0661         22.3556 
       0.920448         59.5839         22.0099 
       0.926574         58.9806         21.6727 
       0.932687         58.7438         21.3433 
       0.938823         57.7911         21.0196 
       0.944975         57.5066         20.7019 
       0.951105         56.9819         20.3919 
       0.957225         56.2925         20.0889 
       0.963368         56.2184          19.791 
       0.969511            55.8         19.4992 
       0.975621         55.3999         19.2148 
       0.981748         54.7746         18.9354 
       0.987916         54.3712         18.6599 
        0.99406         54.0411         18.3909 
        1.00019         53.4491         18.1277 
        1.00632           53.19         17.8699 
        1.01246         52.7611         17.6168 
        1.01859         52.0241          17.369 
        1.02471         52.1103         17.1264 
        1.03085         51.5627         16.8875 
        1.03698         51.1117         16.6537 
        1.04314         50.6534         16.4233 
        1.04929         50.3551         16.1979 
        1.05541         49.8407         15.9776 
        1.06154         49.8141         15.7609 
        1.06769         49.3254         15.5479 
        1.07382         49.0732         15.3395 
        1.07993         48.7848         15.1354 
        1.08607         48.3202         14.9342 
        1.09222         48.0779         14.7365 
        1.09836         47.7198         14.5425 
        1.10449         47.3658         14.3523 
        1.11063         46.8984         14.1653 
        1.11677         46.6348         13.9817 
         1.1229         46.3574         13.8017 
        1.12903         45.7269         13.6248 
        1.13518         45.9086         13.4507 
        1.14131         45.5977         13.2798 
        1.14745         44.9789          13.112 
        1.15359         44.9452         12.9471 
        1.15973         44.4304         12.7849 
        1.16584         44.1904         12.6263 
        1.17197         43.9601         12.4701 
        1.17811         43.7276         12.3161 
        1.18424         43.2857         12.1652 
        1.19038         43.1001         12.0163 
        1.19652         42.9616           11.87 
        1.20267         42.5975         11.7262 
        1.20881         42.3312         11.5848 
        1.21495         41.9801         11.4459 
        1.22108         41.7812         11.3093 
         1.2272         41.3443         11.1753 
        1.23334         41.2163         11.0432 
        1.23949         41.1579         10.9129 
        1.24562         40.7314          10.785 
        1.25174         40.6039         10.6594 
        1.25789         40.3596         10.5355 
        1.26402         40.0158         10.4137 
        1.27014         39.6618         10.2941 
        1.27628         39.5439         10.1761 
        1.28244         39.2771         10.0597 
        1.28858         39.1307         9.94526 
        1.29471         38.9682         9.83288 
        1.30084         38.7456         9.72233 
        1.30697         38.4383         9.61332 
        1.31312         38.1334         9.50582 
        1.31925         38.0452         9.40031 
        1.32537         37.8508          9.2965 
        1.33151         37.5203         9.19389 
        1.33765         37.4668         9.09288 
        1.34378         37.2026          8.9936 
        1.34992         36.8805         8.89572 
        1.35606          36.685          8.7991 
         1.3622         36.4995         8.70408 
        1.36833         36.2854          8.6107 
        1.37445          36.232         8.51873 
        1.38059         35.9843         8.42783 
        1.38675         35.6734         8.33803 
        1.39288         35.6132         8.24991 
        1.39901         35.3176          8.1631 
        1.40515         35.1663         8.07735 
         1.4113         35.0424         7.99286 
        1.41742         34.7572         7.90991 
        1.42355         34.5979         7.82798 
         1.4297         34.4222         7.74696 
        1.43585         34.3312         7.66713 
        1.44198         34.0282         7.58873 
        1.44809         33.9169         7.51157 
        1.45423         33.7612          7.4352 
        1.46036         33.6411         7.36003 
        1.46649         33.3859         7.28588 
        1.47263         33.2128         7.21269 
        1.47877         33.1257         7.14054 
        1.48491         33.0231         7.06927 
        1.49104          32.757         6.99912 
        1.49718         32.4409         6.92987 
        1.50333         32.4309         6.86144 
        1.50947         32.3016         6.79408 
         1.5156         32.0802         6.72772 
        1.52172         31.9147         6.66225 
        1.52787          31.875         6.59752 
          1.534         31.6403         6.53373 
        1.54013         31.4183         6.47084 
        1.54627         31.3489         6.40867 
        1.55241          31.113          6.3473 
        1.55855         31.0007         6.28683 
        1.56467         30.7465         6.22731 
         1.5708         30.7912         6.16839 
        1.57695          30.481         6.11014 
        1.58308         30.4454         6.05278 
        1.58922         30.3439         5.99612 
        1.59535          30.136         5.94021 
         1.6015         29.9411         5.88493 
        1.60764         29.8312         5.83038 
        1.61376         29.6599         5.77667 
        1.61989         29.4648         5.72359 
        1.62604         29.4389         5.67107 
        1.63218         29.2896         5.61923 
        1.63831         29.1449         5.56817 
        1.64444         29.0202         5.51772 
        1.65059          28.818         5.46777 
        1.65673         28.6649          5.4185 
        1.66285         28.5907         5.36997 
        1.66898         28.4305         5.32202 
        1.67512         28.3415         5.27456 
        1.68127         28.1446         5.22764 
         1.6874         28.0499         5.18139 
        1.69353         27.9237         5.13574 
        1.69967         27.7722         5.09052 
        1.70581         27.6825         5.04587 
        1.71193          27.579         5.00192 
        1.71806         27.3844          4.9584 
        1.72421         27.2406         4.91532 
        1.73035         27.1208         4.87279 
        1.73649         27.0475         4.83078 
        1.74262         26.8915         4.78929 
        1.74876         26.8797         4.74827 
        1.75489         26.6926          4.7078 
        1.76101         26.5476         4.66783 
        1.76715         26.4596         4.62826 
        1.77329         26.3712          4.5891 
        1.77943         26.2254         4.55037 
        1.78557         26.0868         4.51215 
        1.79171         25.9927         4.47436 
        1.79785         25.8551           4.437 
        1.80399         25.7656         4.40007 
        1.81012         25.6848         4.36361 
        1.81625         25.5507         4.32758 
        1.82239         25.4838          4.2919 
        1.82853           25.29         4.25664 
        1.83466         25.1989         4.22181 
        1.84078         25.0274         4.18741 
        1.84692         24.9692         4.15333 
        1.85306         24.8691         4.11959 
         1.8592         24.7329         4.08628 
        1.86533         24.6205         4.05336 
        1.87147         24.5347         4.02076 
        1.87761         24.4955         3.98851 
        1.88375          24.391         3.95664 
        1.88988         24.2749         3.92516 
        1.89601         24.1097         3.89401 
        1.90215         24.0663         3.86316 
        1.90829         24.0128         3.83267 
        1.91442         23.8427          3.8025 
        1.92056          23.785         3.77269 
         1.9267         23.6336         3.74316 
        1.93284         23.5039         3.71393 
        1.93897         23.4703         3.68507 
        1.94509         23.3538         3.65658 
        1.95123          23.248         3.62831 
        1.95737          23.145         3.60033 
        1.96349         23.0611         3.57271 
        1.96964         22.9441          3.5453 
        1.97578         22.8863         3.51816 
        1.98192         22.7431         3.49137 
        1.98805         22.7051         3.46485 
        1.99419         22.5859         3.43861 
        2.00033         22.4369         3.41262 
        2.00647          22.382         3.38691 
         2.0126         22.2862         3.36151 
        2.01874         22.2039         3.33632 
        2.02488         22.1824         3.31138 
        2.03101          22.013         3.28673 
        2.03714         21.9369         3.26236 
        2.04328         21.8323         3.23821 
        2.04941         21.7657         3.21432 
        2.05554         21.6903         3.19069 
        2.06167         21.6077         3.16726 
        2.06781         21.5123         3.14407 
        2.07396          21.451         3.12107 
        2.08009         21.3829         3.09834 
        2.08622         21.2227         3.07587 
        2.09237         21.1589         3.05357 
        2.09851         21.0875         3.03149 
        2.10464         21.0341         3.00967 
        2.11077         20.8764         2.98809 
        2.11691         20.8343         2.96667 
        2.12305         20.7664         2.94546 
        2.12918         20.7183          2.9245 
        2.13531         20.5953         2.90375 
        2.14145         20.5564         2.88316 
         2.1476         20.4335         2.86273 
        2.15372         20.3535         2.84261 
        2.15985         20.2339         2.82266 
        2.16599         20.2069         2.80285 
        2.17213         20.1519         2.78325 
        2.17827         20.0012         2.76383 
         2.1844         19.9119         2.74462 
        2.19054         19.8618         2.72559 
        2.19666         19.8099         2.70677 
         2.2028         19.7398          2.6881 
        2.20893         19.6526          2.6696 
        2.21508         19.5571         2.65125 
        2.22122         19.4303         2.63307 
        2.22736         19.4408          2.6151 
        2.23349         19.3243          2.5973 
        2.23962         19.2479         2.57966 
        2.24577         19.1533         2.56216 
         2.2519         19.1267         2.54485 
        2.25802         19.0347         2.52773 
        2.26417         18.9906         2.51072 
        2.27031         18.9002         2.49385 
        2.27644          18.832         2.47718 
        2.28257         18.7354         2.46067 
        2.28872         18.6423         2.44427 
        2.29486         18.6033         2.42803 
        2.30099         18.5165         2.41197 
        2.30712         18.4859         2.39605 
        2.31326         18.4112         2.38024 
         2.3194         18.3394         2.36458 
        2.32553           18.25         2.34909 
        2.33166          18.155         2.33375 
         2.3378          18.092         2.31852 
        2.34394         18.0536         2.30343 
        2.35007         17.9712         2.28848 
        2.35619         17.8651         2.27369 
        2.36233         17.8438           2.259 
        2.36848         17.7521          2.2444 
        2.37462         17.6929         2.22997 
        2.38075         17.6241         2.21567 
        2.38689         17.5955         2.20149 
        2.39303         17.4858         2.18743 
        2.39916         17.4263         2.17351 
        2.40529         17.3544         2.15971 
        2.41143         17.3088         2.14602 
        2.41757         17.2518         2.13245 
         2.4237         17.1671         2.11902 
        2.42983         17.1042          2.1057 
        2.43598         17.0624         2.09246 
        2.44211         16.9849         2.07936 
        2.44823         16.9039          2.0664 
        2.45437         16.8494         2.05351 
        2.46052         16.7985         2.04073 
        2.46665          16.753         2.02807 
        2.47279         16.6502         2.01553 
        2.47892         16.6298         2.00308 
        2.48507         16.5554         1.99073 
         2.4912          16.512          1.9785 
