# k  (h/Mpc)    Pcb(k)  (Mpc/h)^3    Pcb_linear(k)  (Mpc/h)^3
     0.00783031         4435.81         4456.98 
       0.013688         5832.73         5930.54 
       0.019231         6339.93         6397.13 
      0.0249154         6279.52         6282.43 
      0.0312784         5743.46         5783.45 
      0.0375637         5117.98         5178.66 
      0.0433917         4646.85         4665.52 
      0.0492413          4207.6         4253.41 
      0.0555754         3903.36         3923.09 
      0.0619321         3578.87         3674.57 
       0.067871          3417.6          3472.4 
      0.0738098         3221.53         3264.22 
      0.0800417         2988.74         3021.39 
      0.0862327         2717.73         2759.13 
      0.0921407         2471.79         2507.06 
      0.0982031         2255.85         2268.52 
       0.104506         2028.87         2060.08 
       0.110769         1877.02         1900.08 
       0.116806         1791.16         1786.31 
       0.122832         1685.69         1700.99 
       0.129052         1617.52         1627.39 
       0.135211         1561.53         1555.05 
       0.141259          1467.5         1475.94 
       0.147318         1363.86         1386.82 
       0.153489         1283.39         1289.95 
       0.159709         1210.49         1193.76 
       0.165845         1104.88         1107.84 
       0.171974         1066.79          1035.9 
       0.178125         1017.86         978.922 
       0.184229         953.078         935.384 
        0.19034         932.642         900.462 
       0.196428         903.724         869.245 
       0.202534         852.461          837.18 
       0.208729          833.95         801.278 
       0.214876         802.038         762.008 
       0.220989         748.115          720.98 
       0.227147         728.822         680.333 
        0.23329         698.768         643.062 
       0.239377           679.3         611.059 
       0.245482          645.29         584.373 
       0.251667         620.381         562.184 
       0.257832         614.104         543.387 
       0.263955         583.219         526.224 
       0.270079          565.59         509.019 
        0.27624         542.179         490.729 
       0.282372         529.132         471.415 
        0.28843         524.484         451.717 
       0.294538         498.755         432.113 
       0.300721         480.141         413.446 
        0.30691         472.348         396.608 
       0.313033         453.234         382.021 
       0.319153         445.515         369.316 
       0.325316          433.91         357.944 
        0.33145         423.992         347.418 
       0.337538         410.481         337.199 
       0.343633         398.399         326.837 
       0.349808         387.892         316.079 
       0.355968         379.516         305.219 
       0.362074         370.596         294.581 
       0.368217         364.929         284.339 
       0.374374         357.201         274.763 
       0.380519         342.917         266.029 
       0.386598         337.467         258.173 
       0.392688         330.188         250.934 
        0.39888         322.675         244.033 
       0.405048         317.209         237.399 
       0.411186         313.752         230.879 
       0.417313         307.445         224.398 
       0.423458         299.447         217.916 
       0.429607           293.7         211.532 
       0.435692         288.162         205.422 
       0.441815          282.48         199.557 
       0.447964         275.188         194.008 
       0.454126         270.814         188.812 
       0.460267         268.117         183.945 
       0.466387         263.134         179.338 
        0.47254         260.149         174.889 
       0.478662         252.372         170.581 
       0.484765         249.454         166.356 
       0.490885         245.725         162.186 
       0.497035         243.477         158.085 
       0.503198         239.505         154.088 
       0.509342         233.308         150.237 
       0.515458          231.26         146.564 
       0.521598         226.001          143.05 
       0.527764         223.533         139.686 
       0.533884         223.062         136.482 
           0.54         217.698         133.395 
       0.546137         212.934         130.392 
       0.552299         211.373         127.458 
       0.558452         207.761         124.594 
       0.564573         206.705         121.807 
       0.570708         201.879         119.083 
       0.576825         199.349         116.448 
       0.582926         197.283          113.91 
       0.589034         194.786         111.458 
       0.595184         193.205         109.074 
       0.601379         188.659         106.754 
       0.607522         186.142         104.529 
       0.613639         184.633         102.381 
       0.619772         182.493         100.288 
       0.625918         181.045         98.2451 
       0.632068          177.36         96.2495 
       0.638161         175.073           94.32 
         0.6443          174.46         92.4257 
       0.650464         171.481         90.5771 
       0.656582         170.679         88.7968 
       0.662703         168.902         87.0699 
       0.668861         165.619         85.3843 
       0.675024         165.704         83.7451 
       0.681124         163.059         82.1666 
       0.687237         160.331         80.6251 
       0.693381         159.839         79.1143 
       0.699536          157.79         77.6385 
       0.705665         155.568         76.2062 
       0.711789         153.842         74.8112 
       0.717957         152.344         73.4422 
        0.72409         151.559          72.116 
       0.730186         150.567         70.8314 
       0.736317         147.943         69.5719 
       0.742472         146.433          68.339 
       0.748622         144.368         67.1375 
        0.75476         144.047         65.9679 
       0.760888         143.114         64.8281 
       0.767043         140.826          63.711 
       0.773185         139.314         62.6227 
       0.779291         137.878         61.5664 
       0.785407         136.302         60.5332 
       0.791564         136.085         59.5176 
       0.797719         134.699         58.5262 
       0.803834         133.584          57.564 
       0.809972         133.016         56.6203 
       0.816124         131.441          55.696 
       0.822261         129.859         54.7951 
       0.828378         129.646         53.9171 
       0.834502         127.496         53.0578 
       0.840667         127.067         52.2119 
       0.846816         125.947         51.3869 
       0.852925         124.766         50.5851 
       0.859047         124.058         49.7989 
       0.865192         122.574          49.027 
       0.871341         121.327         48.2711 
       0.877463         120.696         47.5348 
       0.883569          120.37         46.8159 
       0.889708         119.427         46.1083 
       0.895864         118.246         45.4138 
       0.902008         117.405         44.7352 
       0.908149         116.022         44.0711 
       0.914301         115.869         43.4195 
       0.920448         115.092         42.7819 
       0.926574         113.241         42.1595 
       0.932687         112.928         41.5509 
       0.938823         111.993         40.9523 
       0.944975         110.807         40.3642 
       0.951105          110.03         39.7899 
       0.957225         110.073         39.2279 
       0.963368         108.785         38.6749 
       0.969511         107.824         38.1326 
       0.975621         107.162         37.6038 
       0.981748         106.204         37.0838 
       0.987916         105.489         36.5704 
        0.99406         105.051         36.0687 
        1.00019         103.938         35.5775 
        1.00632         103.422         35.0961 
        1.01246          102.67         34.6229 
        1.01859         102.256         34.1592 
        1.02471         101.161         33.7047 
        1.03085         100.511          33.257 
        1.03698         99.9511         32.8184 
        1.04314         99.3238          32.386 
        1.04929         98.7886         31.9625 
        1.05541         98.1116         31.5483 
        1.06154         97.5864         31.1404 
        1.06769         96.5214         30.7393 
        1.07382         95.9976         30.3466 
        1.07993         95.6024         29.9617 
        1.08607         94.7624          29.582 
        1.09222         94.5289         29.2086 
        1.09836         93.6298         28.8421 
        1.10449         93.1214         28.4823 
        1.11063         92.3869         28.1284 
        1.11677         92.1444         27.7806 
         1.1229          91.257         27.4394 
        1.12903         91.1176         27.1037 
        1.13518         90.7543         26.7734 
        1.14131         89.9316         26.4488 
        1.14745         89.0388         26.1298 
        1.15359         88.3671         25.8161 
        1.15973         88.2018         25.5075 
        1.16584         87.6185         25.2053 
        1.17197         86.7873         24.9076 
        1.17811         86.4659         24.6139 
        1.18424         85.6233         24.3257 
        1.19038         85.5775         24.0414 
        1.19652         85.1532         23.7618 
        1.20267          84.489         23.4867 
        1.20881         83.9116          23.216 
        1.21495         83.6231         22.9501 
        1.22108         83.1146         22.6884 
         1.2272         82.5301         22.4314 
        1.23334          82.104         22.1778 
        1.23949         81.6878         21.9276 
        1.24562         81.0185          21.682 
        1.25174          80.589         21.4405 
        1.25789          80.697          21.202 
        1.26402         79.9152         20.9676 
        1.27014         79.4271         20.7373 
        1.27628         78.8058         20.5098 
        1.28244         78.5512         20.2853 
        1.28858         78.1301         20.0645 
        1.29471          77.816         19.8475 
        1.30084         77.1665          19.634 
        1.30697         77.0707         19.4233 
        1.31312          76.348         19.2154 
        1.31925         75.9312         19.0112 
        1.32537         75.5834         18.8102 
        1.33151         75.2411         18.6114 
        1.33765         74.7858         18.4157 
        1.34378         74.5657         18.2231 
        1.34992         74.0296         18.0332 
        1.35606         73.6002         17.8457 
         1.3622         73.1286         17.6611 
        1.36833         72.7057         17.4796 
        1.37445         72.2335         17.3008 
        1.38059         72.0772         17.1239 
        1.38675          71.354         16.9492 
        1.39288         71.3286         16.7775 
        1.39901         70.7859         16.6084 
        1.40515         70.5265         16.4412 
         1.4113         70.3694         16.2764 
        1.41742         69.9569         16.1145 
        1.42355         69.3232         15.9545 
         1.4297         68.9801         15.7962 
        1.43585         68.5338         15.6401 
        1.44198         68.2022         15.4868 
        1.44809         67.8944         15.3358 
        1.45423         67.6177         15.1863 
        1.46036         67.2379          15.039 
        1.46649          67.111         14.8937 
        1.47263         66.5972         14.7502 
        1.47877         66.3406         14.6086 
        1.48491         66.0972         14.4687 
        1.49104         65.5703         14.3309 
        1.49718         65.2665         14.1949 
        1.50333         65.0694         14.0604 
        1.50947         64.5585         13.9279 
         1.5156          64.342         13.7973 
        1.52172         63.8986         13.6685 
        1.52787         63.6055          13.541 
          1.534         63.3876         13.4153 
        1.54013         63.1062         13.2914 
        1.54627         62.5935         13.1688 
        1.55241         62.3229         13.0477 
        1.55855         62.1498         12.9283 
        1.56467         61.7777         12.8108 
         1.5708         61.5719         12.6944 
        1.57695         61.2522         12.5793 
        1.58308         60.7646         12.4659 
        1.58922         60.5549         12.3538 
        1.59535          60.364         12.2432 
         1.6015         60.2324         12.1337 
        1.60764         59.8542         12.0257 
        1.61376          59.468         11.9193 
        1.61989         59.1283         11.8141 
        1.62604           58.91         11.7099 
        1.63218         58.6001         11.6071 
        1.63831         58.4878         11.5057 
        1.64444         58.0484         11.4055 
        1.65059         57.8923         11.3063 
        1.65673          57.436         11.2084 
        1.66285         57.3847         11.1119 
        1.66898         56.7941         11.0165 
        1.67512         56.7638         10.9221 
        1.68127         56.4463         10.8287 
         1.6874         56.1419         10.7365 
        1.69353          55.937         10.6456 
        1.69967         55.7474         10.5554 
        1.70581         55.2525         10.4664 
        1.71193         55.0733         10.3787 
        1.71806         54.8976         10.2919 
        1.72421         54.6528         10.2059 
        1.73035         54.3331         10.1209 
        1.73649         53.9999          10.037 
        1.74262         53.6911         9.95408 
        1.74876           53.41         9.87205 
        1.75489         53.2719         9.79112 
        1.76101         53.0792         9.71112 
        1.76715         52.8679         9.63192 
        1.77329         52.4742          9.5535 
        1.77943         52.4809         9.47593 
        1.78557          52.121         9.39934 
        1.79171         51.8939         9.32358 
        1.79785         51.6045         9.24865 
        1.80399         51.3912         9.17457 
        1.81012         51.1925          9.1014 
        1.81625         50.8138         9.02906 
        1.82239         50.6284          8.9574 
        1.82853         50.5176         8.88657 
        1.83466         50.1941         8.81657 
        1.84078         49.9359          8.7474 
        1.84692         49.6721         8.67887 
        1.85306         49.4622         8.61099 
         1.8592         49.2955         8.54395 
        1.86533         49.0853         8.47766 
        1.87147         48.8404           8.412 
        1.87761         48.5392         8.34702 
        1.88375         48.4997          8.2828 
        1.88988           48.17         8.21933 
        1.89601         47.9055         8.15649 
        1.90215         47.7741         8.09426 
        1.90829           47.51         8.03272 
        1.91442         47.2829         7.97181 
        1.92056         47.0641         7.91159 
         1.9267          46.905         7.85193 
        1.93284         46.6251         7.79286 
        1.93897         46.4451         7.73451 
        1.94509         46.2234         7.67688 
        1.95123         46.0448          7.6197 
        1.95737         45.7814         7.56306 
        1.96349         45.5624         7.50714 
        1.96964         45.4756         7.45164 
        1.97578         45.2355         7.39667 
        1.98192         44.9877         7.34237 
        1.98805         44.7248         7.28861 
        1.99419         44.6855         7.23539 
        2.00033         44.4181         7.18268 
        2.00647         44.2338         7.13051 
         2.0126         43.9899         7.07894 
        2.01874         43.7283         7.02782 
        2.02488         43.6576         6.97715 
        2.03101         43.3533         6.92708 
        2.03714         43.2061         6.87755 
        2.04328         43.0558         6.82845 
        2.04941         42.8019         6.77988 
        2.05554         42.7007         6.73181 
        2.06167         42.4545         6.68415 
        2.06781          42.299         6.63694 
        2.07396         42.1543         6.59012 
        2.08009         41.9415         6.54384 
        2.08622         41.6968         6.49805 
        2.09237         41.5563         6.45262 
        2.09851         41.2941         6.40762 
        2.10464         41.0984         6.36312 
        2.11077         41.0302          6.3191 
        2.11691          40.802          6.2754 
        2.12305         40.6314         6.23211 
        2.12918         40.4133         6.18934 
        2.13531         40.2575         6.14696 
        2.14145         40.1004         6.10489 
         2.1476         39.8538         6.06317 
        2.15372         39.7159         6.02204 
        2.15985         39.5498         5.98126 
        2.16599         39.3813         5.94074 
        2.17213         39.2193         5.90064 
        2.17827         38.9949         5.86093 
         2.1844         38.8193         5.82161 
        2.19054         38.7215         5.78265 
        2.19666         38.4772         5.74409 
         2.2028         38.3852         5.70586 
        2.20893          38.133         5.66796 
        2.21508         38.0066         5.63036 
        2.22122           37.83         5.59309 
        2.22736         37.6505         5.55623 
        2.23349         37.4755         5.51972 
        2.23962         37.4124         5.48352 
        2.24577         37.1916         5.44761 
         2.2519         37.0379         5.41207 
        2.25802         36.8469         5.37691 
        2.26417         36.6635         5.34197 
        2.27031         36.5832          5.3073 
        2.27644         36.4554         5.27305 
        2.28257         36.2417          5.2391 
        2.28872         36.1073         5.20539 
        2.29486         35.9194         5.17198 
        2.30099         35.7152         5.13893 
        2.30712          35.664         5.10616 
        2.31326         35.4504         5.07362 
         2.3194         35.3576         5.04139 
        2.32553         35.1584         5.00949 
        2.33166         34.9808         4.97788 
         2.3378         34.9422          4.9465 
        2.34394         34.7021         4.91539 
        2.35007         34.5987         4.88458 
        2.35619         34.4131         4.85408 
        2.36233         34.2959         4.82377 
        2.36848         34.1326         4.79365 
        2.37462         33.9984         4.76386 
        2.38075          33.827         4.73435 
        2.38689         33.6802         4.70507 
        2.39303         33.6323         4.67603 
        2.39916         33.3778         4.64728 
        2.40529         33.1776         4.61877 
        2.41143         33.1684         4.59048 
        2.41757         32.9574         4.56241 
         2.4237         32.8253         4.53464 
        2.42983         32.7031         4.50709 
        2.43598         32.5949         4.47971 
        2.44211         32.4449         4.45259 
        2.44823         32.2692         4.42577 
        2.45437         32.1742         4.39909 
        2.46052         32.0089         4.37261 
        2.46665         31.8694         4.34639 
        2.47279         31.6854          4.3204 
        2.47892         31.6277         4.29461 
        2.48507         31.4632           4.269 
         2.4912         31.3851         4.24366 
