# k  (h/Mpc)    Pcb(k)  (Mpc/h)^3    Pcb_linear(k)  (Mpc/h)^3
     0.00783031         11338.4         11381.2 
       0.013688         14770.8         15140.5 
       0.019231         16079.2         16329.9 
      0.0249154         15992.4         16036.1 
      0.0312784         14531.8         14761.8 
      0.0375637         12894.8         13217.7 
      0.0433917         11735.4         11907.8 
      0.0492413         10585.6         10855.9 
      0.0555754         9813.87         10012.7 
      0.0619321         8900.29         9378.32 
       0.067871         8519.94         8862.29 
      0.0738098          8056.2         8330.92 
      0.0800417         7457.62         7711.16 
      0.0862327         6779.06          7041.8 
      0.0921407         6184.36         6398.45 
      0.0982031         5676.11         5789.64 
       0.104506         5100.53         5257.66 
       0.110769         4730.98          4849.3 
       0.116806          4534.6         4558.94 
       0.122832         4268.31         4341.17 
       0.129052         4071.41         4153.35 
       0.135211         3961.56          3968.7 
       0.141259         3703.14         3766.81 
       0.147318          3445.5         3539.35 
       0.153489         3263.38         3292.13 
       0.159709         3129.55         3046.63 
       0.165845         2857.95         2827.36 
       0.171974         2781.51         2643.75 
       0.178125         2691.34         2498.34 
       0.184229          2489.8         2387.22 
        0.19034         2458.86          2298.1 
       0.196428          2396.1         2218.43 
       0.202534         2263.75         2136.59 
       0.208729         2221.43         2044.96 
       0.214876         2134.35         1944.74 
       0.220989         2027.04         1840.03 
       0.227147         1976.26          1736.3 
        0.23329         1901.29         1641.18 
       0.239377         1886.85          1559.5 
       0.245482         1801.81         1491.39 
       0.251667         1737.33         1434.76 
       0.257832         1715.49         1386.79 
       0.263955         1642.24         1342.99 
       0.270079         1605.25         1299.08 
        0.27624         1539.75          1252.4 
       0.282372          1523.4         1203.11 
        0.28843         1500.66         1152.84 
       0.294538         1433.81          1102.8 
       0.300721          1406.6         1055.16 
        0.30691          1376.4         1012.19 
       0.313033         1326.58         974.965 
       0.319153         1313.25          942.54 
       0.325316         1297.56         913.517 
        0.33145          1273.6         886.653 
       0.337538         1233.97         860.572 
       0.343633         1206.14         834.127 
       0.349808         1184.91         806.672 
       0.355968         1162.75         778.955 
       0.362074         1130.87         751.805 
       0.368217         1127.64         725.666 
       0.374374         1111.08         701.229 
       0.380519          1074.4         678.937 
       0.386598         1069.78         658.888 
       0.392688         1045.57         640.413 
        0.39888         1023.27         622.801 
       0.405048         1006.82          605.87 
       0.411186         1002.48          589.23 
       0.417313         1001.11          572.69 
       0.423458          969.62         556.147 
       0.429607         944.121         539.855 
       0.435692          937.57         524.262 
       0.441815         920.843         509.294 
       0.447964         911.047         495.132 
       0.454126         898.789          481.87 
       0.460267         888.368          469.45 
       0.466387         876.189         457.693 
        0.47254         859.941         446.336 
       0.478662         850.092         435.342 
       0.484765         843.164         424.561 
       0.490885         833.158         413.919 
       0.497035         819.836         403.452 
       0.503198         818.738          393.25 
       0.509342         803.975         383.424 
       0.515458         788.612         374.048 
       0.521598         785.639         365.081 
       0.527764         768.761         356.494 
       0.533884         763.165         348.319 
           0.54         756.568          340.44 
       0.546137         746.784         332.777 
       0.552299         742.862         325.288 
       0.558452         735.285         317.979 
       0.564573         728.013         310.865 
       0.570708         722.572         303.913 
       0.576825         708.151          297.19 
       0.582926         706.138         290.712 
       0.589034         697.737         284.453 
       0.595184         690.614         278.369 
       0.601379          680.19         272.449 
       0.607522         671.442         266.769 
       0.613639          670.31         261.288 
       0.619772         665.775         255.947 
       0.625918         655.844         250.733 
       0.632068         651.491          245.64 
       0.638161         643.687         240.716 
         0.6443         638.265         235.881 
       0.650464         633.211         231.163 
       0.656582         628.369          226.62 
       0.662703         620.903         222.212 
       0.668861          615.11         217.911 
       0.675024         610.644         213.727 
       0.681124         602.262         209.699 
       0.687237         601.222         205.765 
       0.693381         592.097         201.909 
       0.699536         590.488         198.143 
       0.705665         584.561         194.487 
       0.711789         583.094         190.927 
       0.717957         574.683         187.433 
        0.72409         569.956         184.048 
       0.730186         569.877          180.77 
       0.736317         561.826         177.556 
       0.742472         555.286         174.409 
       0.748622         552.579         171.343 
        0.75476         547.805         168.358 
       0.760888         544.743         165.449 
       0.767043         542.005         162.598 
       0.773185         538.705          159.82 
       0.779291         531.662         157.125 
       0.785407         528.572         154.488 
       0.791564         524.602         151.896 
       0.797719          517.58         149.366 
       0.803834         519.455          146.91 
       0.809972         512.218         144.502 
       0.816124             508         142.143 
       0.822261         504.682         139.844 
       0.828378         502.383         137.603 
       0.834502         495.044          135.41 
       0.840667         494.823         133.251 
       0.846816         488.754         131.145 
       0.852925         488.227         129.099 
       0.859047          483.93         127.093 
       0.865192         481.433         125.123 
       0.871341         475.204         123.194 
       0.877463         472.963         121.314 
       0.883569         468.646          119.48 
       0.889708         464.568         117.674 
       0.895864         461.075         115.901 
       0.902008         459.765         114.169 
       0.908149         456.083         112.475 
       0.914301         454.178         110.812 
       0.920448         449.363         109.184 
       0.926574         447.381         107.596 
       0.932687           445.2         106.043 
       0.938823          439.94         104.515 
       0.944975         438.132         103.014 
       0.951105         435.145         101.548 
       0.957225         428.821         100.114 
       0.963368         430.116         98.7028 
       0.969511         422.734         97.3189 
       0.975621         423.273         95.9693 
       0.981748         420.095         94.6421 
       0.987916         417.542         93.3318 
        0.99406          414.03         92.0515 
        1.00019           409.8          90.798 
        1.00632         409.685         89.5692 
        1.01246         406.384         88.3616 
        1.01859         401.964         87.1783 
        1.02471         399.822         86.0184 
        1.03085         398.547         84.8757 
        1.03698         395.838         83.7565 
        1.04314         394.086         82.6529 
        1.04929         391.314         81.5719 
        1.05541         386.194         80.5148 
        1.06154         385.572          79.474 
        1.06769         381.633         78.4503 
        1.07382         380.447         77.4481 
        1.07993         377.842         76.4659 
        1.08607         375.247         75.4968 
        1.09222         372.676         74.5437 
        1.09836         370.808         73.6083 
        1.10449         368.318         72.6902 
        1.11063         365.193         71.7869 
        1.11677         361.831         70.8994 
         1.1229         361.157         70.0286 
        1.12903         358.618         69.1718 
        1.13518         355.975         68.3288 
        1.14131         355.103         67.5004 
        1.14745         350.257         66.6864 
        1.15359         348.162         65.8857 
        1.15973         347.079          65.098 
        1.16584          345.34         64.3268 
        1.17197         342.544         63.5671 
        1.17811         339.414         62.8174 
        1.18424         337.808         62.0821 
        1.19038         336.002         61.3565 
        1.19652         332.498          60.643 
        1.20267         332.126         59.9408 
        1.20881         329.995           59.25 
        1.21495         327.489         58.5713 
        1.22108         325.753         57.9034 
         1.2272         321.618         57.2475 
        1.23334         320.786         56.6004 
        1.23949         319.235         55.9619 
        1.24562         317.874          55.335 
        1.25174         315.009         54.7187 
        1.25789         312.687           54.11 
        1.26402         312.053         53.5117 
        1.27014         310.353          52.924 
        1.27628         307.043         52.3435 
        1.28244         305.825         51.7705 
        1.28858         303.973          51.207 
        1.29471         302.514         50.6532 
        1.30084         300.928         50.1082 
        1.30697         297.879         49.5704 
        1.31312         295.906         49.0399 
        1.31925         294.765         48.5188 
        1.32537          293.26         48.0058 
        1.33151         290.705         47.4985 
        1.33765         288.929         46.9989 
        1.34378         286.931         46.5075 
        1.34992         284.762         46.0229 
        1.35606         283.705         45.5442 
         1.3622          282.08         45.0732 
        1.36833         280.333           44.61 
        1.37445         279.022         44.1536 
        1.38059         276.505         43.7023 
        1.38675         275.049         43.2562 
        1.39288         273.998         42.8182 
        1.39901         271.443         42.3865 
        1.40515         270.229         41.9598 
         1.4113         268.184         41.5392 
        1.41742         265.777          41.126 
        1.42355         266.334         40.7177 
         1.4297         263.624         40.3137 
        1.43585          261.34         39.9154 
        1.44198          260.05          39.524 
        1.44809         258.977         39.1387 
        1.45423         257.313         38.7571 
        1.46036         255.771         38.3813 
        1.46649         254.646         38.0104 
        1.47263         252.427         37.6441 
        1.47877         251.043         37.2829 
        1.48491         249.067         36.9258 
        1.49104         247.528         36.5742 
        1.49718         246.281         36.2269 
        1.50333         244.203         35.8837 
        1.50947          243.62         35.5456 
         1.5156         241.847         35.2124 
        1.52172         240.228         34.8835 
        1.52787          238.77         34.5582 
          1.534         238.218         34.2374 
        1.54013         236.243         33.9211 
        1.54627         235.131         33.6082 
        1.55241          233.43         33.2992 
        1.55855         232.579         32.9946 
        1.56467         230.764         32.6947 
         1.5708         229.395         32.3976 
        1.57695         228.143         32.1038 
        1.58308         226.689         31.8144 
        1.58922         225.261         31.5284 
        1.59535         223.404          31.246 
         1.6015         222.578         30.9667 
        1.60764         221.327         30.6909 
        1.61376         219.327         30.4193 
        1.61989          217.99         30.1508 
        1.62604         216.668          29.885 
        1.63218         215.689         29.6225 
        1.63831          215.13         29.3638 
        1.64444         213.157         29.1082 
        1.65059         212.401         28.8549 
        1.65673         210.503          28.605 
        1.66285         209.674         28.3588 
        1.66898         208.478         28.1154 
        1.67512         206.966         27.8744 
        1.68127         205.951          27.636 
         1.6874         204.664         27.4009 
        1.69353         203.595         27.1687 
        1.69967         202.109         26.9387 
        1.70581         201.381         26.7115 
        1.71193         199.771         26.4877 
        1.71806         198.586         26.2661 
        1.72421         197.696         26.0466 
        1.73035         196.106         25.8298 
        1.73649         194.883         25.6156 
        1.74262         194.053          25.404 
        1.74876         193.026         25.1946 
        1.75489         191.994         24.9881 
        1.76101         190.615         24.7839 
        1.76715          189.47         24.5818 
        1.77329         188.189         24.3816 
        1.77943          187.02         24.1837 
        1.78557          186.44         23.9882 
        1.79171         185.346         23.7948 
        1.79785         184.243         23.6036 
        1.80399         182.972         23.4145 
        1.81012         181.792         23.2278 
        1.81625         180.903         23.0432 
        1.82239         179.554         22.8603 
        1.82853         178.988         22.6795 
        1.83466         177.482         22.5009 
        1.84078         176.838         22.3244 
        1.84692         175.751         22.1495 
        1.85306         174.439         21.9762 
         1.8592         173.912         21.8051 
        1.86533         172.188          21.636 
        1.87147         171.612         21.4684 
        1.87761         170.572         21.3025 
        1.88375         169.204         21.1386 
        1.88988         168.663         20.9767 
        1.89601         168.246         20.8163 
        1.90215         167.001         20.6575 
        1.90829         165.626         20.5004 
        1.91442         164.882          20.345 
        1.92056         163.621         20.1913 
         1.9267         163.045          20.039 
        1.93284          161.99         19.8883 
        1.93897         160.945         19.7393 
        1.94509         160.085         19.5923 
        1.95123         159.283         19.4463 
        1.95737         158.512         19.3018 
        1.96349         157.355         19.1591 
        1.96964         156.634         19.0174 
        1.97578         155.587         18.8771 
        1.98192         154.713         18.7386 
        1.98805         153.942         18.6014 
        1.99419         152.686         18.4655 
        2.00033         152.238          18.331 
        2.00647         151.337         18.1979 
         2.0126         150.434         18.0663 
        2.01874         149.523         17.9358 
        2.02488         148.834         17.8065 
        2.03101         148.224         17.6787 
        2.03714         147.042         17.5523 
        2.04328         146.122          17.427 
        2.04941         145.866          17.303 
        2.05554         144.965         17.1803 
        2.06167         143.809         17.0587 
        2.06781         142.997         16.9382 
        2.07396         142.331         16.8187 
        2.08009         141.663         16.7006 
        2.08622         140.505         16.5838 
        2.09237         139.606         16.4678 
        2.09851         139.244          16.353 
        2.10464         138.359         16.2394 
        2.11077         137.575         16.1271 
        2.11691         136.935         16.0155 
        2.12305         136.183         15.9051 
        2.12918         135.184         15.7959 
        2.13531         134.513         15.6878 
        2.14145         133.809         15.5804 
         2.1476         132.961         15.4739 
        2.15372         132.324         15.3689 
        2.15985         131.432         15.2649 
        2.16599         130.732         15.1614 
        2.17213         130.127         15.0591 
        2.17827         129.312         14.9578 
         2.1844         128.818         14.8574 
        2.19054         127.762          14.758 
        2.19666         127.156         14.6596 
         2.2028          126.59          14.562 
        2.20893         126.085         14.4653 
        2.21508         124.757         14.3693 
        2.22122         124.418         14.2742 
        2.22736         123.825         14.1801 
        2.23349         123.189         14.0869 
        2.23962         122.513         13.9946 
        2.24577         121.898         13.9029 
         2.2519          120.89         13.8122 
        2.25802         120.455         13.7225 
        2.26417         119.646         13.6333 
        2.27031         119.056         13.5448 
        2.27644         118.621         13.4574 
        2.28257         118.026         13.3708 
        2.28872         117.262         13.2847 
        2.29486         116.767         13.1995 
        2.30099         115.852         13.1151 
        2.30712         115.497         13.0315 
        2.31326         114.753         12.9485 
         2.3194         114.188         12.8662 
        2.32553          113.35         12.7848 
        2.33166         113.137         12.7041 
         2.3378         112.423          12.624 
        2.34394         111.509         12.5446 
        2.35007         110.902          12.466 
        2.35619         110.367         12.3882 
        2.36233         109.889         12.3108 
        2.36848         109.103         12.2339 
        2.37462         108.739         12.1579 
        2.38075         108.156         12.0826 
        2.38689         107.641         12.0079 
        2.39303         106.977         11.9338 
        2.39916         106.564         11.8604 
        2.40529          105.95         11.7876 
        2.41143          105.25         11.7154 
        2.41757         104.578         11.6438 
         2.4237         104.196         11.5729 
        2.42983         103.458         11.5026 
        2.43598         103.236         11.4327 
        2.44211         102.559         11.3635 
        2.44823         101.884         11.2951 
        2.45437         101.488          11.227 
        2.46052         100.818         11.1594 
        2.46665         100.321         11.0925 
        2.47279         99.8827         11.0262 
        2.47892         99.3337         10.9603 
        2.48507         98.9484          10.895 
         2.4912         98.2268         10.8303 
