# k  (h/Mpc)    Pcb(k)  (Mpc/h)^3    Pcb_linear(k)  (Mpc/h)^3
     0.00783031           10406           10479 
       0.013688         11110.8         11340.3 
       0.019231         10173.8         10278.3 
      0.0249154         8611.87         8551.87 
      0.0312784         6686.54         6686.29 
      0.0375637         5272.89         5299.13 
      0.0433917         4477.28         4458.43 
      0.0492413          3937.1         3940.98 
      0.0555754         3606.87         3585.45 
      0.0619321         3231.15         3287.14 
       0.067871         2965.94         2975.57 
      0.0738098         2628.91         2617.42 
      0.0800417         2258.67         2229.23 
      0.0862327         1909.24          1885.8 
      0.0921407         1665.75         1632.15 
      0.0982031         1502.79         1454.45 
       0.104506         1361.79         1341.59 
       0.110769         1294.16          1271.2 
       0.116806         1246.45         1212.23 
       0.122832         1162.56         1140.99 
       0.129052            1074         1047.47 
       0.135211         988.832         942.098 
       0.141259         880.816         840.396 
       0.147318         789.577         753.029 
       0.153489         727.094         685.659 
       0.159709         690.373         639.248 
       0.165845         640.787         608.599 
       0.171974         630.764         584.738 
       0.178125          603.66         560.091 
       0.184229         561.708         530.664 
        0.19034         537.168         495.981 
       0.196428         506.486         459.043 
       0.202534         461.293         423.573 
       0.208729         444.678          392.52 
       0.214876          421.01         368.066 
       0.220989         393.312         349.541 
       0.227147         383.888         334.887 
        0.23329         369.012         321.976 
       0.239377         361.094         308.994 
       0.245482         341.006         294.813 
       0.251667         324.299         279.325 
       0.257832          316.59         263.611 
       0.263955         296.004         248.789 
       0.270079         281.766         235.562 
        0.27624         269.367         224.221 
       0.282372         261.431         214.693 
        0.28843         258.234         206.516 
       0.294538         245.128         198.885 
       0.300721         236.078         191.292 
        0.30691         231.107         183.552 
       0.313033         219.567         175.785 
       0.319153         214.784         168.115 
       0.325316         208.259         160.763 
        0.33145         201.362         154.017 
       0.337538         193.295         147.978 
       0.343633           187.1         142.523 
       0.349808         181.244         137.474 
       0.355968         177.023         132.728 
       0.362074         171.545         128.179 
       0.368217          168.34         123.683 
       0.374374         163.642         119.246 
       0.380519           156.6         114.944 
       0.386598         153.547         110.868 
       0.392688         148.502         107.016 
        0.39888          145.52         103.362 
       0.405048         141.697         99.9631 
       0.411186         139.658         96.7861 
       0.417313          136.35         93.7713 
       0.423458          132.64         90.8595 
       0.429607         128.857         88.0353 
       0.435692         126.844         85.3263 
       0.441815          123.43         82.6877 
       0.447964         119.527         80.1405 
       0.454126          117.37         77.7051 
       0.460267         115.981         75.3975 
       0.466387         112.735         73.2084 
        0.47254         111.371         71.1098 
       0.478662         107.681         69.1111 
       0.484765          105.84         67.1932 
       0.490885         103.563         65.3339 
       0.497035         102.393         63.5272 
       0.503198         100.579         61.7802 
       0.509342         97.9095         60.1016 
       0.515458         96.0959         58.4933 
       0.521598          93.593         56.9411 
       0.527764         92.7235         55.4444 
       0.533884         91.8252         54.0172 
           0.54         89.3215         52.6437 
       0.546137         87.1803         51.3129 
       0.552299         85.5598         50.0209 
       0.558452         84.1504         48.7736 
       0.564573         83.6389         47.5738 
       0.570708         81.1995         46.4114 
       0.576825         80.2475         45.2914 
       0.582926         79.2898         44.2118 
       0.589034         77.7938         43.1668 
       0.595184         76.6794         42.1497 
       0.601379         75.1593         41.1595 
       0.607522         73.3504         40.2096 
       0.613639         72.8339         39.2937 
       0.619772         71.4202          38.404 
       0.625918         70.9322         37.5397 
       0.632068         69.1977         36.7011 
       0.638161         68.3556         35.8954 
         0.6443         67.8307         35.1081 
       0.650464         66.1909          34.342 
       0.656582         65.8805         33.6045 
       0.662703         64.9684         32.8889 
       0.668861         63.5107         32.1903 
       0.675024         63.3415         31.5115 
       0.681124         62.2562         30.8592 
       0.687237          61.305          30.224 
       0.693381         60.4051         29.6037 
       0.699536         59.7996         28.9996 
       0.705665         59.0203         28.4151 
       0.711789         58.0555         27.8472 
       0.717957         57.2885          27.291 
        0.72409          56.607         26.7532 
       0.730186         56.2865         26.2333 
       0.736317         55.4185         25.7244 
       0.742472         54.4157         25.2272 
       0.748622         53.6457         24.7437 
        0.75476         53.4677         24.2739 
       0.760888         52.9622         23.8171 
       0.767043         51.8435         23.3701 
       0.773185         51.0875         22.9356 
       0.779291         50.5717         22.5147 
       0.785407         50.1425         22.1037 
       0.791564          49.792         21.7003 
       0.797719         48.8473         21.3073 
       0.803834         48.6412         20.9265 
       0.809972         48.1318         20.5537 
       0.816124         47.3851         20.1891 
       0.822261         46.7494         19.8344 
       0.828378         46.6233         19.4893 
       0.834502         46.0561         19.1521 
       0.840667         45.6158         18.8208 
       0.846816         45.0873         18.4982 
       0.852925         44.5318         18.1852 
       0.859047         44.2958         17.8788 
       0.865192         43.6956         17.5785 
       0.871341         43.2486         17.2849 
       0.877463         42.7193         16.9993 
       0.883569         42.6881         16.7209 
       0.889708         42.1389         16.4473 
       0.895864         41.8138         16.1792 
       0.902008         41.3024         15.9176 
       0.908149         40.7508          15.662 
       0.914301         40.5015         15.4115 
       0.920448         40.4367         15.1668 
       0.926574         39.6073         14.9282 
       0.932687         39.3624         14.6953 
       0.938823         39.0063         14.4666 
       0.944975         38.5269         14.2422 
       0.951105         38.2051         14.0233 
       0.957225         37.9793         13.8095 
       0.963368         37.6361         13.5993 
       0.969511         37.3184         13.3936 
       0.975621         36.9139         13.1932 
       0.981748         36.6441         12.9964 
       0.987916          36.248         12.8024 
        0.99406         36.0856          12.613 
        1.00019         35.6286         12.4279 
        1.00632         35.3699         12.2466 
        1.01246          35.125         12.0687 
        1.01859         34.8513         11.8947 
        1.02471          34.541         11.7242 
        1.03085           34.23         11.5566 
        1.03698         34.0366         11.3925 
        1.04314         33.7337          11.231 
        1.04929         33.3779         11.0729 
        1.05541         33.2488         10.9185 
        1.06154         32.9134         10.7667 
        1.06769         32.6176         10.6175 
        1.07382         32.3092         10.4717 
        1.07993         32.1867         10.3289 
        1.08607         31.8622         10.1881 
        1.09222         31.7014         10.0499 
        1.09836         31.4606         9.91439 
        1.10449         31.2429         9.78153 
        1.11063         30.9563         9.65096 
        1.11677         30.8756         9.52281 
         1.1229         30.5246         9.39722 
        1.12903         30.3327         9.27378 
        1.13518         30.1782         9.15245 
        1.14131          29.928         9.03336 
        1.14745         29.7169         8.91645 
        1.15359         29.3436         8.80159 
        1.15973         29.3491         8.68871 
        1.16584         29.0751         8.57831 
        1.17197         28.8101         8.46967 
        1.17811         28.6226         8.36258 
        1.18424         28.2641         8.25765 
        1.19038         28.1112         8.15422 
        1.19652         28.0121         8.05259 
        1.20267         27.7656          7.9527 
        1.20881         27.6065         7.85452 
        1.21495         27.5204         7.75815 
        1.22108         27.4092         7.66341 
         1.2272         27.0568         7.57048 
        1.23334         26.9601         7.47887 
        1.23949         26.7615         7.38855 
        1.24562          26.593         7.29998 
        1.25174         26.4273         7.21299 
        1.25789         26.2322         7.12715 
        1.26402         26.0974         7.04286 
        1.27014         25.9792         6.96013 
        1.27628         25.7352         6.87848 
        1.28244         25.7564         6.79798 
        1.28858         25.4322         6.71888 
        1.29471         25.2162         6.64121 
        1.30084         25.0548         6.56483 
        1.30697         25.0349         6.48953 
        1.31312         24.8436         6.41531 
        1.31925         24.6313         6.34247 
        1.32537         24.4496         6.27083 
        1.33151         24.3015         6.20004 
        1.33765         24.2634         6.13039 
        1.34378         24.1246         6.06194 
        1.34992         23.9047         5.99448 
        1.35606         23.6703          5.9279 
         1.3622         23.6471         5.86245 
        1.36833         23.5668         5.79815 
        1.37445         23.3181         5.73484 
        1.38059         23.1782         5.67228 
        1.38675         23.1099          5.6105 
        1.39288         22.9707         5.54989 
        1.39901         22.7809         5.49019 
        1.40515         22.6691         5.43124 
         1.4113         22.6157         5.37318 
        1.41742         22.4543         5.31619 
        1.42355         22.2445         5.25991 
         1.4297         22.2384         5.20428 
        1.43585          22.095         5.14948 
        1.44198         21.9215         5.09567 
        1.44809         21.7674         5.04273 
        1.45423         21.7195         4.99035 
        1.46036         21.6438          4.9388 
        1.46649         21.4533         4.88796 
        1.47263          21.342         4.83779 
        1.47877         21.2147         4.78835 
        1.48491         21.0804         4.73952 
        1.49104         20.9821         4.69147 
        1.49718         20.9437         4.64405 
        1.50333         20.8359         4.59721 
        1.50947         20.6088          4.5511 
         1.5156         20.6161          4.5057 
        1.52172         20.4497         4.46091 
        1.52787         20.4332         4.41663 
          1.534         20.2237         4.37301 
        1.54013         20.2449         4.33002 
        1.54627         20.0501         4.28753 
        1.55241         19.9789         4.24561 
        1.55855         19.8434          4.2043 
        1.56467         19.6956         4.16365 
         1.5708         19.6947         4.12342 
        1.57695         19.5744         4.08366 
        1.58308          19.424         4.04452 
        1.58922         19.3463         4.00586 
        1.59535         19.2778         3.96772 
         1.6015         19.2228         3.93002 
        1.60764         19.0477         3.89283 
        1.61376         18.9509         3.85622 
        1.61989         18.8587         3.82005 
        1.62604         18.7527         3.78426 
        1.63218         18.5998         3.74895 
        1.63831         18.5846         3.71418 
        1.64444         18.5149         3.67983 
        1.65059         18.3796         3.64583 
        1.65673         18.3341         3.61229 
        1.66285         18.2535         3.57927 
        1.66898         18.1634         3.54665 
        1.67512         18.0639         3.51438 
        1.68127         17.9873         3.48247 
         1.6874         17.9255         3.45103 
        1.69353         17.7953            3.42 
        1.69967         17.7171         3.38927 
        1.70581         17.6572         3.35894 
        1.71193         17.5656         3.32908 
        1.71806         17.4992         3.29953 
        1.72421         17.4134         3.27027 
        1.73035         17.3364         3.24141 
        1.73649          17.204         3.21289 
        1.74262         17.1344         3.18474 
        1.74876         17.1466          3.1569 
        1.75489         16.9813         3.12946 
        1.76101         16.9484         3.10234 
        1.76715         16.7891         3.07551 
        1.77329         16.7361         3.04897 
        1.77943          16.699         3.02272 
        1.78557         16.6597         2.99682 
        1.79171         16.5542         2.97122 
        1.79785         16.4725         2.94591 
        1.80399         16.3602          2.9209 
        1.81012         16.3306         2.89621 
        1.81625         16.2029         2.87182 
        1.82239         16.1591         2.84767 
        1.82853         16.0945         2.82381 
        1.83466          16.006         2.80025 
        1.84078         15.9392         2.77698 
        1.84692         15.8557         2.75393 
        1.85306         15.8083         2.73112 
         1.8592         15.7865          2.7086 
        1.86533         15.6903         2.68634 
        1.87147         15.6049         2.66431 
        1.87761         15.5324         2.64252 
        1.88375         15.4636         2.62099 
        1.88988         15.3833         2.59973 
        1.89601          15.339         2.57869 
        1.90215         15.2833         2.55787 
        1.90829          15.211         2.53728 
        1.91442         15.1171         2.51692 
        1.92056         15.0949          2.4968 
         1.9267         15.0358         2.47688 
        1.93284         14.9719         2.45716 
        1.93897         14.8916         2.43769 
        1.94509         14.8457         2.41848 
        1.95123         14.7551         2.39942 
        1.95737         14.6937         2.38056 
        1.96349         14.6541         2.36194 
        1.96964         14.5731         2.34347 
        1.97578         14.5397         2.32519 
        1.98192         14.4563         2.30714 
        1.98805         14.3994         2.28928 
        1.99419         14.3253          2.2716 
        2.00033          14.269         2.25411 
        2.00647         14.2192          2.2368 
         2.0126         14.1341          2.2197 
        2.01874         14.0935         2.20275 
        2.02488         14.0264         2.18596 
        2.03101          13.975         2.16938 
        2.03714         13.9236         2.15299 
        2.04328         13.8469         2.13675 
        2.04941         13.7901         2.12068 
        2.05554         13.7666         2.10479 
        2.06167         13.7232         2.08905 
        2.06781          13.647         2.07346 
        2.07396         13.6041           2.058 
        2.08009         13.5294         2.04274 
        2.08622         13.4901         2.02764 
        2.09237         13.4213         2.01266 
        2.09851         13.3935         1.99784 
        2.10464         13.3051         1.98318 
        2.11077         13.2641         1.96869 
        2.11691          13.203         1.95431 
        2.12305         13.1731         1.94008 
        2.12918         13.1085         1.92602 
        2.13531         13.0551          1.9121 
        2.14145         13.0138         1.89828 
         2.1476         12.9405         1.88458 
        2.15372         12.9229         1.87109 
        2.15985         12.8641         1.85771 
        2.16599         12.7922         1.84443 
        2.17213         12.7481         1.83129 
        2.17827         12.6965         1.81828 
         2.1844         12.6314          1.8054 
        2.19054         12.6359         1.79265 
        2.19666         12.5539         1.78004 
         2.2028         12.5315         1.76754 
        2.20893         12.4504         1.75515 
        2.21508          12.407         1.74286 
        2.22122         12.3536         1.73069 
        2.22736         12.3304         1.71866 
        2.23349         12.2719         1.70675 
        2.23962         12.2396         1.69494 
        2.24577          12.177         1.68323 
         2.2519         12.1134         1.67165 
        2.25802         12.0612          1.6602 
        2.26417         12.0535         1.64882 
        2.27031         11.9906         1.63754 
        2.27644          11.948          1.6264 
        2.28257         11.9009         1.61536 
        2.28872         11.8719          1.6044 
        2.29486         11.8437         1.59354 
        2.30099         11.7658         1.58281 
        2.30712         11.7345         1.57217 
        2.31326         11.6764         1.56161 
         2.3194         11.6484         1.55115 
        2.32553         11.5906          1.5408 
        2.33166         11.5455         1.53055 
         2.3378         11.5122         1.52039 
        2.34394         11.4697         1.51031 
        2.35007         11.4275         1.50033 
        2.35619          11.399         1.49046 
        2.36233         11.3197         1.48065 
        2.36848         11.2994         1.47091 
        2.37462         11.2694         1.46128 
        2.38075         11.2067         1.45174 
        2.38689         11.1653         1.44228 
        2.39303         11.1253         1.43291 
        2.39916         11.0816         1.42363 
        2.40529         11.0467         1.41443 
        2.41143         10.9999          1.4053 
        2.41757         10.9435         1.39625 
         2.4237         10.9133          1.3873 
        2.42983         10.8929         1.37843 
        2.43598         10.8547         1.36961 
        2.44211         10.8064         1.36088 
        2.44823         10.7516         1.35225 
        2.45437         10.7405         1.34366 
        2.46052          10.692         1.33515 
        2.46665         10.6701         1.32672 
        2.47279         10.6092         1.31837 
        2.47892         10.5799         1.31008 
        2.48507          10.554         1.30186 
         2.4912         10.4931         1.29372 
