# k  (h/Mpc)    Pcb(k)  (Mpc/h)^3    Pcb_linear(k)  (Mpc/h)^3
     0.00783031         4816.89         4852.48 
       0.013688         5388.93         5474.97 
       0.019231         5105.21         5142.96 
      0.0249154         4453.34         4434.24 
      0.0312784         3598.57         3598.31 
      0.0375637         2925.78         2936.82 
      0.0433917         2520.72         2512.89 
      0.0492413         2233.28          2236.5 
      0.0555754         2045.16         2036.45 
      0.0619321         1843.76         1868.51 
       0.067871         1695.59         1700.06 
      0.0738098         1513.92         1511.33 
      0.0800417         1317.15         1307.23 
      0.0862327         1129.85         1123.71 
      0.0921407         992.533          984.02 
      0.0982031         896.899         881.694 
       0.104506         815.661         812.389 
       0.110769          771.23         766.359 
       0.116806         740.008         728.448 
       0.122832         691.045         686.022 
       0.129052         641.869         633.168 
       0.135211         590.193         574.552 
       0.141259         530.111         517.565 
       0.147318         477.086         467.512 
       0.153489         440.072         427.534 
       0.159709         415.205         398.626 
       0.165845         386.751         378.531 
       0.171974         378.558         362.672 
       0.178125         361.714         347.039 
       0.184229         339.274         329.375 
        0.19034         323.505         309.126 
       0.196428         303.815         287.651 
       0.202534         278.152         266.801 
       0.208729         265.726         248.153 
       0.214876         252.101         233.043 
       0.220989         235.416         221.247 
       0.227147         229.523         211.738 
        0.23329          220.86         203.427 
       0.239377          214.41         195.296 
       0.245482         203.441         186.636 
       0.251667         192.954         177.302 
       0.257832         187.739          167.82 
       0.263955         175.606         158.783 
       0.270079         167.185         150.598 
        0.27624         159.385         143.453 
       0.282372         153.946         137.374 
        0.28843         151.579         132.132 
       0.294538         144.707         127.276 
       0.300721         138.578         122.507 
        0.30691         135.564         117.697 
       0.313033         129.327         112.894 
       0.319153         126.282         108.137 
       0.325316         120.969         103.547 
        0.33145         116.501         99.2968 
       0.337538         112.262         95.4572 
       0.343633         108.778         91.9754 
       0.349808         105.106         88.7459 
       0.355968         102.107         85.7269 
       0.362074         99.8257         82.8447 
       0.368217         97.0576           80.01 
       0.374374         94.3779          77.216 
       0.380519         90.2786         74.4986 
       0.386598         87.8774         71.9165 
       0.392688         84.9519         69.4634 
        0.39888         83.3536         67.1258 
       0.405048         81.1966         64.9502 
       0.411186         79.2444         62.9135 
       0.417313         77.0267         60.9839 
       0.423458         74.8608         59.1268 
       0.429607         73.2518         57.3258 
       0.435692         72.0517         55.5971 
       0.441815         69.4397         53.9135 
       0.447964         67.1602          52.284 
       0.454126         65.8932         50.7205 
       0.460267          65.187         49.2369 
       0.466387         63.3528         47.8296 
        0.47254         62.4571         46.4789 
       0.478662         60.2168          45.192 
       0.484765         59.0734         43.9587 
       0.490885         57.4196         42.7647 
       0.497035         56.7765         41.6029 
       0.503198         55.4561         40.4776 
       0.509342         53.8954         39.3954 
       0.515458         53.0466         38.3582 
       0.521598          51.704         37.3563 
       0.527764         50.9902         36.3886 
       0.533884         50.2591          35.465 
           0.54         48.9654         34.5765 
       0.546137         47.5836         33.7162 
       0.552299           46.68          32.881 
       0.558452         45.7132          32.074 
       0.564573         45.3794         31.2967 
       0.570708         44.0621          30.543 
       0.576825         43.5571         29.8166 
       0.582926         42.8822         29.1164 
       0.589034         41.9859         28.4384 
       0.595184         41.3928         27.7781 
       0.601379         40.3272         27.1348 
       0.607522         39.5465         26.5172 
       0.613639         39.1134         25.9216 
       0.619772         38.2792         25.3429 
       0.625918         37.7197         24.7807 
       0.632068         37.2505         24.2352 
       0.638161         36.4792         23.7108 
         0.6443         36.0592         23.1982 
       0.650464         35.1372         22.6989 
       0.656582         34.9521          22.218 
       0.662703         34.4146         21.7512 
       0.668861         33.5637         21.2952 
       0.675024         33.2623         20.8522 
       0.681124          32.927         20.4264 
       0.687237          32.253         20.0116 
       0.693381         31.7312         19.6065 
       0.699536         31.4494         19.2119 
       0.705665         30.8877         18.8298 
       0.711789         30.3933         18.4585 
       0.717957         29.8409         18.0947 
        0.72409         29.5087         17.7427 
       0.730186         29.3281         17.4023 
       0.736317         28.7411          17.069 
       0.742472         28.3891         16.7433 
       0.748622         27.9389         16.4264 
        0.75476         27.3726         16.1184 
       0.760888          27.317         15.8189 
       0.767043         26.7608         15.5257 
       0.773185         26.4277         15.2407 
       0.779291         26.0891         14.9644 
       0.785407         25.7511         14.6946 
       0.791564         25.6557         14.4298 
       0.797719         25.0508         14.1716 
       0.803834         24.9333         13.9214 
       0.809972          24.498         13.6764 
       0.816124          24.236         13.4368 
       0.822261         23.9212         13.2036 
       0.828378         23.7418         12.9766 
       0.834502         23.4541         12.7547 
       0.840667         23.2039         12.5367 
       0.846816         22.7696         12.3244 
       0.852925         22.6436         12.1183 
       0.859047         22.4563         11.9165 
       0.865192         22.0985         11.7187 
       0.871341         21.8331         11.5253 
       0.877463         21.5738         11.3371 
       0.883569         21.4526         11.1536 
       0.889708         21.1412         10.9732 
       0.895864         20.8789         10.7964 
       0.902008         20.6743         10.6238 
       0.908149         20.3989         10.4551 
       0.914301         20.2439         10.2899 
       0.920448         20.0251         10.1284 
       0.926574         19.8095         9.97086 
       0.932687         19.5677         9.81706 
       0.938823         19.2913         9.66596 
       0.944975         19.1642         9.51771 
       0.951105         18.9982          9.3731 
       0.957225         18.8288         9.23174 
       0.963368         18.5716         9.09283 
       0.969511          18.402         8.95678 
       0.975621         18.2607         8.82425 
       0.981748         18.0195         8.69406 
       0.987916         17.9052         8.56568 
        0.99406         17.6551         8.44038 
        1.00019          17.547         8.31783 
        1.00632         17.4118         8.19783 
        1.01246         17.2031         8.08002 
        1.01859         17.0386         7.96471 
        1.02471         16.8795          7.8518 
        1.03085         16.7795         7.74069 
        1.03698         16.6478         7.63196 
        1.04314         16.4444         7.52487 
        1.04929         16.2381         7.42008 
        1.05541         16.1731         7.31771 
        1.06154         16.0331         7.21702 
        1.06769          15.825         7.11808 
        1.07382         15.6991         7.02131 
        1.07993         15.5665         6.92656 
        1.08607         15.4431         6.83318 
        1.09222         15.2956         6.74142 
        1.09836         15.1424         6.65145 
        1.10449         15.0759         6.56323 
        1.11063         14.9476         6.47652 
        1.11677         14.8733         6.39141 
         1.1229         14.7015         6.30797 
        1.12903         14.5592         6.22596 
        1.13518         14.4777         6.14533 
        1.14131         14.3654         6.06619 
        1.14745         14.1793         5.98847 
        1.15359         14.0384         5.91211 
        1.15973         13.9735         5.83705 
        1.16584          13.833         5.76363 
        1.17197         13.6907         5.69137 
        1.17811         13.6237         5.62013 
        1.18424         13.4948         5.55031 
        1.19038         13.4502         5.48148 
        1.19652         13.2778         5.41385 
        1.20267         13.2344         5.34735 
        1.20881         13.0732         5.28199 
        1.21495         13.0097         5.21782 
        1.22108         12.9357         5.15472 
         1.2272         12.8129         5.09282 
        1.23334         12.7466         5.03179 
        1.23949         12.6312         4.97161 
        1.24562          12.499         4.91258 
        1.25174         12.4651          4.8546 
        1.25789         12.3746         4.79737 
        1.26402         12.2758         4.74117 
        1.27014         12.2099         4.68601 
        1.27628         12.0803         4.63155 
        1.28244         12.0603         4.57786 
        1.28858          11.922         4.52509 
        1.29471         11.8113         4.47327 
        1.30084         11.7277          4.4223 
        1.30697         11.6683         4.37206 
        1.31312         11.5923         4.32252 
        1.31925         11.5217         4.27391 
        1.32537         11.4094         4.22609 
        1.33151         11.3333         4.17883 
        1.33765         11.2986         4.13232 
        1.34378         11.2253         4.08661 
        1.34992         11.1301         4.04156 
        1.35606         11.0189         3.99709 
         1.3622         10.9588         3.95337 
        1.36833         10.9266          3.9104 
        1.37445         10.8394          3.8681 
        1.38059           10.76         3.82629 
        1.38675         10.7111           3.785 
        1.39288          10.614         3.74449 
        1.39901         10.5365         3.70458 
        1.40515         10.4892         3.66517 
         1.4113         10.4154         3.62634 
        1.41742         10.3641         3.58823 
        1.42355          10.275         3.55059 
         1.4297         10.2124         3.51337 
        1.43585         10.1535          3.4767 
        1.44198         10.1308          3.4407 
        1.44809         10.0439         3.40527 
        1.45423          9.9743         3.37021 
        1.46036         9.90629          3.3357 
        1.46649         9.84928         3.30167 
        1.47263           9.796         3.26808 
        1.47877         9.71695         3.23497 
        1.48491         9.68539         3.20227 
        1.49104         9.62099         3.17009 
        1.49718         9.57316         3.13833 
        1.50333         9.52333         3.10695 
        1.50947         9.45945         3.07607 
         1.5156         9.41527         3.04564 
        1.52172         9.33722         3.01563 
        1.52787         9.32879         2.98597 
          1.534         9.24899         2.95673 
        1.54013         9.20408         2.92792 
        1.54627         9.12941         2.89944 
        1.55241         9.06022         2.87133 
        1.55855         9.03467         2.84363 
        1.56467          9.0021         2.81638 
         1.5708         8.94372          2.7894 
        1.57695         8.89176         2.76273 
        1.58308         8.83448         2.73648 
        1.58922         8.79084         2.71055 
        1.59535         8.75108         2.68496 
         1.6015         8.66289         2.65966 
        1.60764          8.6298         2.63471 
        1.61376          8.5965         2.61014 
        1.61989         8.53401         2.58587 
        1.62604          8.5119         2.56184 
        1.63218         8.46317         2.53814 
        1.63831         8.40423          2.5148 
        1.64444         8.35231         2.49173 
        1.65059         8.30594          2.4689 
        1.65673         8.27975         2.44638 
        1.66285         8.21728         2.42421 
        1.66898         8.20092          2.4023 
        1.67512         8.17233         2.38062 
        1.68127         8.09568         2.35918 
         1.6874         8.08493         2.33806 
        1.69353         7.99499         2.31721 
        1.69967         7.97386         2.29656 
        1.70581         7.93773         2.27617 
        1.71193         7.88823         2.25611 
        1.71806         7.85367         2.23624 
        1.72421         7.81152         2.21658 
        1.73035         7.78757         2.19717 
        1.73649         7.75384           2.178 
        1.74262         7.68664         2.15907 
        1.74876         7.66809         2.14036 
        1.75489         7.63653          2.1219 
        1.76101         7.56542         2.10367 
        1.76715         7.57106         2.08562 
        1.77329         7.51002         2.06776 
        1.77943         7.46421         2.05011 
        1.78557         7.46247         2.03268 
        1.79171         7.40503         2.01546 
        1.79785         7.36996         1.99843 
        1.80399         7.33614          1.9816 
        1.81012         7.29418         1.96499 
        1.81625         7.26245         1.94857 
        1.82239          7.2262         1.93232 
        1.82853         7.18023         1.91625 
        1.83466         7.14297         1.90039 
        1.84078         7.11121         1.88472 
        1.84692         7.10614         1.86921 
        1.85306          7.0653         1.85384 
         1.8592         7.03734         1.83868 
        1.86533          6.9853         1.82369 
        1.87147         6.96369         1.80885 
        1.87761         6.93694         1.79417 
        1.88375         6.90833         1.77967 
        1.88988         6.86149         1.76535 
        1.89601         6.83382         1.75117 
        1.90215         6.80127         1.73714 
        1.90829         6.76935         1.72327 
        1.91442         6.74391         1.70955 
        1.92056         6.72589         1.69599 
         1.9267          6.6977         1.68256 
        1.93284         6.66586         1.66927 
        1.93897         6.61554         1.65614 
        1.94509         6.58558         1.64319 
        1.95123         6.56956         1.63034 
        1.95737         6.54609         1.61762 
        1.96349         6.49762         1.60507 
        1.96964         6.47408         1.59261 
        1.97578         6.45548         1.58028 
        1.98192         6.43944         1.56811 
        1.98805         6.38889         1.55606 
        1.99419         6.37524         1.54414 
        2.00033         6.33871         1.53234 
        2.00647          6.3128         1.52066 
         2.0126         6.28931         1.50912 
        2.01874         6.25655         1.49769 
        2.02488         6.23616         1.48636 
        2.03101         6.22312         1.47517 
        2.03714          6.1748         1.46411 
        2.04328         6.14398         1.45315 
        2.04941         6.12222         1.44231 
        2.05554         6.10453         1.43158 
        2.06167         6.08601         1.42095 
        2.06781         6.06051         1.41043 
        2.07396         6.02975             1.4 
        2.08009         5.98594         1.38969 
        2.08622         5.98753         1.37949 
        2.09237         5.96389         1.36938 
        2.09851         5.92447         1.35937 
        2.10464         5.91138         1.34947 
        2.11077         5.86646         1.33969 
        2.11691         5.85955         1.32997 
        2.12305         5.83621         1.32036 
        2.12918          5.7945         1.31086 
        2.13531         5.78992         1.30146 
        2.14145         5.75747         1.29212 
         2.1476         5.74474         1.28287 
        2.15372         5.71985         1.27375 
        2.15985         5.68823         1.26471 
        2.16599         5.67905         1.25573 
        2.17213         5.66975         1.24685 
        2.17827         5.63563         1.23806 
         2.1844         5.62137         1.22936 
        2.19054         5.59291         1.22074 
        2.19666          5.5693         1.21221 
         2.2028         5.54652         1.20376 
        2.20893         5.53085         1.19539 
        2.21508         5.50085         1.18708 
        2.22122         5.47482         1.17885 
        2.22736         5.45225         1.17071 
        2.23349         5.43202         1.16266 
        2.23962         5.41685         1.15467 
        2.24577           5.406         1.14675 
         2.2519         5.38894         1.13892 
        2.25802         5.34642         1.13117 
        2.26417         5.33436         1.12348 
        2.27031         5.31727         1.11584 
        2.27644         5.30614          1.1083 
        2.28257         5.26251         1.10083 
        2.28872         5.25128         1.09342 
        2.29486         5.23736         1.08607 
        2.30099         5.22061         1.07881 
        2.30712         5.18543         1.07161 
        2.31326         5.17612         1.06446 
         2.3194         5.15184         1.05738 
        2.32553         5.13841         1.05038 
        2.33166         5.11093         1.04345 
         2.3378         5.10065         1.03656 
        2.34394         5.07548         1.02974 
        2.35007         5.06427         1.02299 
        2.35619         5.04647          1.0163 
        2.36233         5.02028         1.00966 
        2.36848         5.00403         1.00307 
        2.37462         4.98906        0.996546 
        2.38075         4.96563        0.990087 
        2.38689         4.95647        0.983681 
        2.39303         4.93361        0.977332 
        2.39916         4.92325        0.971045 
        2.40529         4.90326        0.964814 
        2.41143         4.89005        0.958633 
        2.41757         4.86221        0.952503 
         2.4237         4.84952        0.946438 
        2.42983          4.8316        0.940426 
        2.43598         4.81709         0.93445 
        2.44211         4.79424        0.928536 
        2.44823         4.77741        0.922686 
        2.45437          4.7622        0.916871 
        2.46052         4.75461          0.9111 
        2.46665         4.73722        0.905389 
        2.47279         4.71072        0.899729 
        2.47892         4.69525        0.894113 
        2.48507         4.68091         0.88854 
         2.4912         4.66725        0.883025 
