# k  (h/Mpc)    Pcb(k)  (Mpc/h)^3    Pcb_linear(k)  (Mpc/h)^3
     0.00783031         6848.44         6890.39 
       0.013688         8192.21         8348.06 
       0.019231            8176         8255.85 
      0.0249154         7425.02         7402.47 
      0.0312784          6145.8          6164.4 
      0.0375637         5022.66         5060.26 
      0.0433917          4302.4         4295.61 
      0.0492413         3768.94         3782.82 
      0.0555754         3450.89         3439.45 
      0.0619321         3147.66         3208.31 
       0.067871         2984.74         3007.24 
      0.0738098         2761.49         2769.98 
      0.0800417         2477.37          2473.1 
      0.0862327         2156.51         2157.34 
      0.0921407         1885.44         1875.74 
      0.0982031         1669.83          1638.5 
       0.104506         1473.78         1461.59 
       0.110769         1367.87         1350.55 
       0.116806         1318.42         1286.26 
       0.122832         1255.32         1240.77 
       0.129052         1205.35         1191.02 
       0.135211         1152.98         1124.74 
       0.141259         1059.39         1040.94 
       0.147318         959.649         946.074 
       0.153489         876.626         850.927 
       0.159709         811.641         768.345 
       0.165845         735.604         706.381 
       0.171974         712.999         664.143 
       0.178125         684.632         636.987 
       0.184229         648.126         618.029 
        0.19034         636.092         599.677 
       0.196428         613.983         576.642 
       0.202534          570.59         546.733 
       0.208729          550.96         510.887 
       0.214876         519.979         473.623 
       0.220989         478.987         439.073 
       0.227147         462.108         409.907 
        0.23329         441.576         387.673 
       0.239377         431.291         371.749 
       0.245482         411.149         359.911 
       0.251667         395.863         349.608 
       0.257832         391.591         338.723 
       0.263955         369.728         325.922 
       0.270079         354.374         310.987 
        0.27624         337.626         294.632 
       0.282372         326.264         278.402 
        0.28843         321.147         263.711 
       0.294538         304.169         251.074 
       0.300721         292.505          240.75 
        0.30691         287.656         232.474 
       0.313033         275.041         225.582 
       0.319153         270.548         219.096 
       0.325316           262.9         212.305 
        0.33145         255.246         204.904 
       0.337538         245.875         197.001 
       0.343633          237.72         188.832 
       0.349808         230.227         180.777 
       0.355968          224.47         173.375 
       0.362074         218.311         166.894 
       0.368217         214.454         161.278 
       0.374374          209.02         156.367 
       0.380519         200.396         151.933 
       0.386598         196.855         147.709 
       0.392688          191.13         143.422 
        0.39888         187.178         138.931 
       0.405048         182.848         134.331 
       0.411186         180.256         129.757 
       0.417313         175.966         125.355 
       0.423458         171.256         121.214 
       0.429607          167.09         117.423 
       0.435692         164.257         114.031 
       0.441815          160.11         110.892 
       0.447964         155.372         107.931 
       0.454126          152.67         105.071 
       0.460267         151.052         102.249 
       0.466387         147.395         99.4232 
        0.47254         145.634         96.5976 
       0.478662         140.741         93.8384 
       0.484765         138.746         91.1762 
       0.490885         135.965          88.633 
       0.497035         134.539          86.237 
       0.503198         132.094         83.9935 
       0.509342         128.593         81.8797 
       0.515458         126.776         79.8665 
       0.521598          123.62         77.9116 
       0.527764         122.383         75.9962 
       0.533884         121.523         74.1245 
           0.54          118.23         72.2814 
       0.546137         115.487         70.4728 
       0.552299         113.829         68.7177 
       0.558452         111.783         67.0398 
       0.564573         111.212          65.444 
       0.570708         108.092         63.9118 
       0.576825          106.86         62.4454 
       0.582926         105.645         61.0374 
       0.589034          103.79         59.6738 
       0.595184         102.586         58.3396 
       0.601379         100.283         57.0271 
       0.607522         98.3977         55.7528 
       0.613639         97.5902         54.5144 
       0.619772         95.9285          53.308 
       0.625918         95.1666         52.1394 
       0.632068         93.1462         51.0132 
       0.638161         91.8722         49.9375 
         0.6443         91.3013         48.8899 
       0.650464          89.306         47.8701 
       0.656582         88.9229         46.8854 
       0.662703         87.7085         45.9253 
       0.668861         85.8091          44.984 
       0.675024         85.7386         44.0669 
       0.681124         84.2698          43.184 
       0.687237         82.8247          42.324 
       0.693381         82.0871         41.4846 
       0.699536         81.0994         40.6676 
       0.705665         80.0148         39.8769 
       0.711789         78.8944         39.1084 
       0.717957         77.8666         38.3551 
        0.72409         77.1514         37.6258 
       0.730186         76.7117         36.9196 
       0.736317         75.3907         36.2275 
       0.742472         74.3138         35.5506 
       0.748622         73.2179         34.8916 
        0.75476         72.9216         34.2509 
       0.760888         72.4326         33.6275 
       0.767043         70.9202         33.0175 
       0.773185         70.0309         32.4241 
       0.779291          69.277          31.849 
       0.785407         68.5297         31.2871 
       0.791564         68.3219         30.7354 
       0.797719          67.242         30.1973 
       0.803834         66.7859         29.6755 
       0.809972          66.167         29.1641 
       0.816124         65.2916         28.6636 
       0.822261         64.4377         28.1762 
       0.828378         64.2699         27.7016 
       0.834502         63.3873         27.2375 
       0.840667         62.9029         26.7812 
       0.846816         62.2673         26.3366 
       0.852925         61.5005          25.905 
       0.859047         61.3379         25.4823 
       0.865192         60.3915         25.0677 
       0.871341         59.7194         24.6622 
       0.877463         59.2367         24.2675 
       0.883569         59.1172         23.8826 
       0.889708          58.456         23.5041 
       0.895864         57.9794         23.1329 
       0.902008         57.3439         22.7706 
       0.908149         56.6533         22.4163 
       0.914301         56.3538          22.069 
       0.920448         56.1829         21.7294 
       0.926574           55.06         21.3981 
       0.932687         54.7967         21.0745 
       0.938823         54.3258         20.7565 
       0.944975         53.6682         20.4443 
       0.951105         53.2712         20.1397 
       0.957225         53.0198         19.8419 
       0.963368         52.5218         19.5491 
       0.969511          52.081         19.2622 
       0.975621         51.6395         18.9826 
       0.981748         51.1648         18.7079 
       0.987916         50.7459         18.4369 
        0.99406         50.4552         18.1723 
        1.00019         49.8555         17.9134 
        1.00632         49.5071         17.6599 
        1.01246         49.1542         17.4109 
        1.01859         48.9013         17.1671 
        1.02471         48.3722         16.9283 
        1.03085         48.0323         16.6932 
        1.03698         47.7617         16.4631 
        1.04314         47.3465         16.2364 
        1.04929         46.8812         16.0145 
        1.05541         46.7023         15.7977 
        1.06154         46.3512         15.5844 
        1.06769         45.8192         15.3747 
        1.07382         45.4763         15.1695 
        1.07993         45.2967         14.9686 
        1.08607          44.906         14.7705 
        1.09222         44.6997         14.5758 
        1.09836         44.3254         14.3849 
        1.10449         44.0819         14.1976 
        1.11063         43.6686         14.0135 
        1.11677         43.5447         13.8327 
         1.1229         43.0804         13.6554 
        1.12903         42.8688         13.4811 
        1.13518         42.7338         13.3097 
        1.14131         42.2741         13.1414 
        1.14745         41.9546          12.976 
        1.15359         41.5015         12.8136 
        1.15973          41.493         12.6538 
        1.16584         41.1474         12.4975 
        1.17197         40.6824         12.3436 
        1.17811         40.5348         12.1919 
        1.18424         39.9697         12.0431 
        1.19038         39.8925         11.8964 
        1.19652         39.7097         11.7522 
        1.20267          39.435         11.6104 
        1.20881         39.1564          11.471 
        1.21495         39.0217         11.3341 
        1.22108         38.8932         11.1994 
         1.2272         38.4517         11.0673 
        1.23334         38.2644          10.937 
        1.23949         38.0119         10.8084 
        1.24562          37.749         10.6823 
        1.25174         37.5102         10.5585 
        1.25789         37.3985         10.4362 
        1.26402         37.1159          10.316 
        1.27014         36.9848         10.1981 
        1.27628         36.5768         10.0816 
        1.28244           36.58         9.96678 
        1.28858          36.219         9.85388 
        1.29471         35.9533         9.74298 
        1.30084         35.7015         9.63389 
        1.30697         35.6959         9.52631 
        1.31312         35.3585         9.42023 
        1.31925         35.0671         9.31609 
        1.32537         34.8869         9.21364 
        1.33151         34.6576         9.11237 
        1.33765         34.5702         9.01268 
        1.34378         34.4054         8.91468 
        1.34992         34.1139         8.81808 
        1.35606         33.8526         8.72271 
         1.3622         33.7433         8.62891 
        1.36833         33.6234         8.53673 
        1.37445         33.2748         8.44594 
        1.38059         33.1737         8.35619 
        1.38675         32.9025         8.26753 
        1.39288         32.8142         8.18052 
        1.39901         32.5612          8.0948 
        1.40515         32.4439         8.01012 
         1.4113         32.3828         7.92668 
        1.41742         32.1367         7.84475 
        1.42355         31.8664         7.76383 
         1.4297          31.771         7.68381 
        1.43585         31.5694         7.60494 
        1.44198         31.3632         7.52749 
        1.44809         31.1698         7.45127 
        1.45423         31.0834         7.37582 
        1.46036         30.9637         7.30155 
        1.46649         30.7367         7.22828 
        1.47263         30.5469         7.15596 
        1.47877         30.4064         7.08465 
        1.48491         30.2694         7.01421 
        1.49104          30.037         6.94488 
        1.49718         29.9999         6.87643 
        1.50333         29.8451         6.80879 
        1.50947         29.6143         6.74221 
         1.5156          29.513         6.67661 
        1.52172          29.296         6.61189 
        1.52787          29.226         6.54789 
          1.534          28.989         6.48483 
        1.54013         29.0117         6.42265 
        1.54627         28.7313         6.36119 
        1.55241         28.5895         6.30051 
        1.55855         28.4835         6.24072 
        1.56467         28.3055         6.18186 
         1.5708         28.2131         6.12361 
        1.57695         28.0977         6.06601 
        1.58308         27.8339         6.00929 
        1.58922         27.7268         5.95326 
        1.59535         27.6318         5.89796 
         1.6015          27.579         5.84328 
        1.60764         27.3426         5.78933 
        1.61376         27.2146         5.73621 
        1.61989         27.0123         5.68371 
        1.62604         26.9148         5.63175 
        1.63218         26.7782         5.58048 
        1.63831         26.6942         5.52996 
        1.64444         26.5614         5.48004 
        1.65059         26.4213         5.43063 
        1.65673         26.3153         5.38188 
        1.66285         26.2331         5.33387 
        1.66898         26.0472         5.28642 
        1.67512         25.9913         5.23946 
        1.68127         25.8211         5.19303 
         1.6874         25.7008         5.14727 
        1.69353         25.6054         5.10208 
        1.69967         25.4887         5.05733 
        1.70581         25.3313         5.01314 
        1.71193         25.2124         4.96964 
        1.71806         25.1349         4.92656 
        1.72421         25.0242         4.88391 
        1.73035         24.8752         4.84182 
        1.73649         24.7172         4.80022 
        1.74262         24.5936         4.75915 
        1.74876         24.5889         4.71853 
        1.75489         24.4047         4.67847 
        1.76101         24.3135         4.63889 
        1.76715         24.2063         4.59971 
        1.77329          24.025         4.56094 
        1.77943         23.9858         4.52259 
        1.78557         23.9079         4.48475 
        1.79171         23.7888         4.44733 
        1.79785         23.6689         4.41033 
        1.80399          23.534         4.37376 
        1.81012         23.4975         4.33765 
        1.81625         23.2906         4.30197 
        1.82239         23.2157         4.26663 
        1.82853         23.1216         4.23171 
        1.83466         23.0108         4.19721 
        1.84078         22.8866         4.16313 
        1.84692         22.8182         4.12938 
        1.85306         22.6818         4.09596 
         1.8592         22.6624         4.06296 
        1.86533         22.5175         4.03035 
        1.87147         22.3917         3.99805 
        1.87761         22.2863         3.96609 
        1.88375         22.2298         3.93452 
        1.88988         22.1313         3.90333 
        1.89601         22.0022         3.87246 
        1.90215         21.9058          3.8419 
        1.90829         21.8653         3.81168 
        1.91442          21.702         3.78179 
        1.92056         21.6465         3.75224 
         1.9267         21.5615         3.72298 
        1.93284         21.5019         3.69401 
        1.93897         21.3995         3.66541 
        1.94509         21.2951         3.63717 
        1.95123         21.1969         3.60916 
        1.95737          21.094         3.58142 
        1.96349         21.0356         3.55404 
        1.96964         20.9818         3.52687 
        1.97578         20.8155         3.49998 
        1.98192          20.747         3.47342 
        1.98805         20.6116         3.44713 
        1.99419         20.5769         3.42111 
        2.00033         20.4635         3.39534 
        2.00647          20.416         3.36985 
         2.0126         20.2805         3.34466 
        2.01874         20.2214          3.3197 
        2.02488         20.1027         3.29496 
        2.03101         20.0107         3.27052 
        2.03714         19.9631         3.24636 
        2.04328         19.8722         3.22241 
        2.04941         19.7765         3.19872 
        2.05554         19.7244         3.17529 
        2.06167         19.6392         3.15205 
        2.06781         19.5751         3.12905 
        2.07396         19.4904         3.10625 
        2.08009         19.3634         3.08371 
        2.08622         19.3309         3.06142 
        2.09237         19.2718         3.03931 
        2.09851         19.1617         3.01741 
        2.10464         19.0315         2.99576 
        2.11077         19.0128         2.97436 
        2.11691         18.9158         2.95311 
        2.12305         18.8599         2.93207 
        2.12918         18.7769         2.91128 
        2.13531         18.7177          2.8907 
        2.14145         18.6081         2.87026 
         2.1476         18.4984            2.85 
        2.15372         18.4898         2.83004 
        2.15985         18.3917         2.81025 
        2.16599         18.2952         2.79059 
        2.17213         18.2424         2.77114 
        2.17827         18.1498         2.75188 
         2.1844         18.0866         2.73282 
        2.19054          18.075         2.71393 
        2.19666         17.9437         2.69525 
         2.2028         17.9321         2.67672 
        2.20893         17.7991         2.65837 
        2.21508         17.7357         2.64016 
        2.22122         17.6452         2.62212 
        2.22736         17.6401         2.60428 
        2.23349         17.5088         2.58662 
        2.23962         17.4692          2.5691 
        2.24577         17.3902         2.55174 
         2.2519         17.3268         2.53456 
        2.25802         17.2178         2.51757 
        2.26417         17.1918         2.50068 
        2.27031         17.1129         2.48393 
        2.27644         17.0659         2.46739 
        2.28257         16.9833         2.45099 
        2.28872         16.9727         2.43472 
        2.29486         16.8816         2.41859 
        2.30099         16.7755         2.40265 
        2.30712         16.7505         2.38684 
        2.31326         16.6458         2.37114 
         2.3194         16.5913          2.3556 
        2.32553         16.5476         2.34022 
        2.33166         16.4432         2.32498 
         2.3378         16.4101         2.30986 
        2.34394         16.3256         2.29487 
        2.35007         16.2885         2.28004 
        2.35619         16.2518         2.26535 
        2.36233         16.1162         2.25075 
        2.36848         16.0801         2.23626 
        2.37462         16.0312         2.22192 
        2.38075         15.9877         2.20773 
        2.38689         15.8891         2.19364 
        2.39303         15.8377         2.17968 
        2.39916         15.7565         2.16586 
        2.40529         15.7342         2.15215 
        2.41143         15.6364         2.13856 
        2.41757         15.5661         2.12508 
         2.4237           15.53         2.11173 
        2.42983          15.482         2.09851 
        2.43598         15.4039         2.08536 
        2.44211         15.3668         2.07234 
        2.44823         15.2831         2.05947 
        2.45437         15.2693         2.04667 
        2.46052         15.1801         2.03397 
        2.46665         15.1658         2.02139 
        2.47279         15.0636         2.00893 
        2.47892         15.0038         1.99657 
        2.48507         14.9591         1.98429 
         2.4912         14.8866         1.97215 
