# k  (h/Mpc)    Pcb(k)  (Mpc/h)^3    Pcb_linear(k)  (Mpc/h)^3
     0.00783031           18280         18402.2 
       0.013688         19488.1         19991.9 
       0.019231         17774.4         18019.2 
      0.0249154         14849.5           14724 
      0.0312784         11071.5         11078.9 
      0.0375637         8281.46         8323.87 
      0.0433917         6710.13         6658.54 
      0.0492413         5704.99         5688.36 
      0.0555754          5209.9         5147.63 
      0.0619321         4748.52         4840.49 
       0.067871         4531.71         4552.29 
      0.0738098         4163.24         4151.66 
      0.0800417         3646.27         3606.19 
      0.0862327         3056.69         3018.63 
      0.0921407         2591.18         2510.78 
      0.0982031         2234.07         2108.71 
       0.104506         1925.32         1837.94 
       0.110769          1790.6          1695.8 
       0.116806         1739.02         1636.15 
       0.122832         1675.07         1604.14 
       0.129052         1606.18         1555.39 
       0.135211         1546.66         1465.26 
       0.141259         1398.82         1335.58 
       0.147318         1253.18            1184 
       0.153489         1123.83         1034.35 
       0.159709         1035.61         910.576 
       0.165845         931.793         825.005 
       0.171974         903.807         774.086 
       0.178125         870.637         748.041 
       0.184229         819.076         733.683 
        0.19034         808.307         717.704 
       0.196428         782.575         691.206 
       0.202534          721.57         651.368 
       0.208729          699.82         601.015 
       0.214876         654.276         548.447 
       0.220989         604.318         500.887 
       0.227147         580.653         462.589 
        0.23329         552.376         435.395 
       0.239377         545.574         417.734 
       0.245482         516.631         405.901 
       0.251667         498.705         395.773 
       0.257832         490.594         383.993 
       0.263955         463.326         368.782 
       0.270079         442.914         350.055 
        0.27624         422.874         329.202 
       0.282372         410.972         308.653 
        0.28843         403.258         290.409 
       0.294538         380.892         275.249 
       0.300721         369.237         263.312 
        0.30691         361.189         254.154 
       0.313033         343.655         246.661 
       0.319153          338.48         239.561 
       0.325316         331.246         231.846 
        0.33145         321.801         223.253 
       0.337538         308.535         213.908 
       0.343633           299.6         204.272 
       0.349808         290.403         194.815 
       0.355968         284.495          186.25 
       0.362074         273.004         178.864 
       0.368217         270.214          172.54 
       0.374374           264.4         167.086 
       0.380519          253.09         162.139 
       0.386598         249.522          157.42 
       0.392688         241.748         152.602 
        0.39888         236.378         147.515 
       0.405048          229.94         142.339 
       0.411186         228.819         137.199 
       0.417313          224.28         132.271 
       0.423458         218.318         127.683 
       0.429607         211.139          123.49 
       0.435692         207.892         119.732 
       0.441815         203.439         116.275 
       0.447964         198.279         113.004 
       0.454126         195.609         109.828 
       0.460267         192.324         106.709 
       0.466387         186.972         103.611 
        0.47254         185.061          100.51 
       0.478662         180.238         97.4956 
       0.484765         176.986         94.6095 
       0.490885         174.433         91.8626 
       0.497035         170.954         89.2602 
       0.503198         169.748         86.8187 
       0.509342         165.839         84.5248 
       0.515458         162.482         82.3418 
       0.521598          158.95         80.2165 
       0.527764         157.377         78.1325 
       0.533884         155.458         76.1123 
           0.54          152.63         74.1396 
       0.546137         148.983         72.2104 
       0.552299         147.108         70.3357 
       0.558452          144.66         68.5402 
       0.564573         144.229         66.8357 
       0.570708         140.105         65.2039 
       0.576825         138.219          63.642 
       0.582926         137.054         62.1381 
       0.589034         134.263         60.6787 
       0.595184         132.988         59.2521 
       0.601379         130.839         57.8567 
       0.607522         127.339         56.5113 
       0.613639          126.78         55.2087 
       0.619772         125.393          53.941 
       0.625918         123.764         52.7106 
       0.632068         121.137         51.5213 
       0.638161         120.726         50.3846 
         0.6443         118.797          49.279 
       0.650464         116.968         48.2056 
       0.656582          115.58         47.1723 
       0.662703         115.082         46.1673 
       0.668861         112.295         45.1831 
       0.675024         111.958         44.2241 
       0.681124         110.235         43.3011 
       0.687237         109.359         42.4023 
       0.693381         106.941         41.5254 
       0.699536         106.713         40.6732 
       0.705665         105.324           39.85 
       0.711789          103.59         39.0513 
       0.717957         102.719         38.2696 
        0.72409         101.244         37.5137 
       0.730186         101.195         36.7825 
       0.736317         99.8665         36.0663 
       0.742472         98.3519          35.366 
       0.748622          96.932         34.6846 
        0.75476         96.8637         34.0225 
       0.760888         95.6261         33.3787 
       0.767043         93.8858         32.7491 
       0.773185         92.6412         32.1374 
       0.779291         92.2381         31.5451 
       0.785407         91.4271         30.9671 
       0.791564         90.4021         30.4002 
       0.797719         88.9592         29.8479 
       0.803834         88.9959         29.3128 
       0.809972         87.8999          28.789 
       0.816124          86.281         28.2768 
       0.822261         85.7191         27.7783 
       0.828378         85.2402         27.2933 
       0.834502         84.6114         26.8194 
       0.840667         83.9824         26.3537 
       0.846816          82.659         25.9003 
       0.852925         82.1832         25.4604 
       0.859047         81.1733         25.0299 
       0.865192         80.6141         24.6079 
       0.871341          80.079         24.1953 
       0.877463         79.1424         23.7942 
       0.883569         79.0649         23.4031 
       0.889708         78.3168         23.0189 
       0.895864         77.3068         22.6423 
       0.902008         76.4598          22.275 
       0.908149         75.6813          21.916 
       0.914301           75.19         21.5644 
       0.920448         75.1611         21.2208 
       0.926574         73.7737          20.886 
       0.932687         73.5816          20.559 
       0.938823         73.1491         20.2379 
       0.944975          72.595         19.9229 
       0.951105         71.8226         19.6157 
       0.957225         71.3036         19.3156 
       0.963368         70.6703         19.0207 
       0.969511         70.1878         18.7319 
       0.975621         69.0983         18.4508 
       0.981748         69.0451         18.1746 
       0.987916         68.3687         17.9024 
        0.99406         67.9643         17.6368 
        1.00019         67.4751         17.3772 
        1.00632         66.8049         17.1229 
        1.01246         66.3855         16.8735 
        1.01859         65.9356         16.6293 
        1.02471         65.5918         16.3904 
        1.03085         64.9946         16.1552 
        1.03698         64.4276         15.9253 
        1.04314         64.0563         15.6988 
        1.04929           63.81         15.4772 
        1.05541         63.1333         15.2608 
        1.06154         62.5315          15.048 
        1.06769         62.0798          14.839 
        1.07382         61.7614         14.6346 
        1.07993         61.5798         14.4345 
        1.08607         61.1151         14.2373 
        1.09222         60.5221         14.0436 
        1.09836         60.1347         13.8538 
        1.10449         59.7444         13.6676 
        1.11063          59.321         13.4847 
        1.11677          59.176         13.3052 
         1.1229         58.3744         13.1292 
        1.12903         57.9836         12.9563 
        1.13518         57.5292         12.7864 
        1.14131         57.3863         12.6195 
        1.14745         57.0766         12.4558 
        1.15359         56.5502         12.2949 
        1.15973         56.3095         12.1368 
        1.16584         55.9371         11.9822 
        1.17197         55.5095           11.83 
        1.17811         55.2405           11.68 
        1.18424         54.7147         11.5331 
        1.19038         54.4885         11.3882 
        1.19652         54.2476         11.2459 
        1.20267         53.7183         11.1061 
        1.20881         53.3207         10.9686 
        1.21495          53.163         10.8337 
        1.22108         52.8427          10.701 
         1.2272         52.7131         10.5709 
        1.23334           52.35         10.4427 
        1.23949         51.7707         10.3163 
        1.24562         51.4798         10.1923 
        1.25174         51.4819         10.0705 
        1.25789         51.0376         9.95039 
        1.26402          50.608         9.83243 
        1.27014         50.3055         9.71666 
        1.27628         50.0659         9.60242 
        1.28244         49.9543         9.48978 
        1.28858          49.646          9.3791 
        1.29471         49.2122         9.27043 
        1.30084         48.9371         9.16358 
        1.30697         48.5868         9.05825 
        1.31312          48.511         8.95441 
        1.31925         48.0478         8.85253 
        1.32537           47.79         8.75233 
        1.33151         47.7163         8.65332 
        1.33765         47.2702         8.55589 
        1.34378         47.0907         8.46016 
        1.34992         46.7665         8.36582 
        1.35606         46.6647         8.27271 
         1.3622         46.2557         8.18119 
        1.36833         46.0259         8.09126 
        1.37445         45.7872         8.00273 
        1.38059         45.4519         7.91524 
        1.38675         45.2898         7.82886 
        1.39288         45.0445          7.7441 
        1.39901         44.7712         7.66063 
        1.40515         44.4624          7.5782 
         1.4113         44.3247         7.49701 
        1.41742         44.0939         7.41732 
        1.42355         43.8565         7.33863 
         1.4297         43.5772         7.26085 
        1.43585         43.5964         7.18422 
        1.44198         43.1157         7.10898 
        1.44809         42.8922         7.03497 
        1.45423         42.8392         6.96173 
        1.46036         42.4772         6.88966 
        1.46649         42.2067         6.81859 
        1.47263         41.9632         6.74846 
        1.47877         41.7877         6.67935 
        1.48491         41.5023         6.61109 
        1.49104         41.4126         6.54394 
        1.49718         41.0858         6.47766 
        1.50333         40.9732         6.41219 
        1.50947         40.7372         6.34776 
         1.5156         40.5652          6.2843 
        1.52172         40.2831         6.22172 
        1.52787         40.1481         6.15986 
          1.534           39.94         6.09891 
        1.54013         39.7779         6.03885 
        1.54627         39.4872         5.97948 
        1.55241         39.3775         5.92091 
        1.55855         39.1381          5.8632 
        1.56467         38.7829         5.80641 
         1.5708         38.8164         5.75022 
        1.57695         38.4939         5.69468 
        1.58308         38.4177            5.64 
        1.58922          38.122           5.586 
        1.59535         38.0995         5.53272 
         1.6015         37.8614         5.48007 
        1.60764         37.6768         5.42812 
        1.61376         37.5009         5.37698 
        1.61989         37.2092         5.32646 
        1.62604         37.0695         5.27647 
        1.63218         36.9144         5.22715 
        1.63831          36.706         5.17857 
        1.64444         36.5574         5.13059 
        1.65059          36.381         5.08311 
        1.65673         36.2001         5.03627 
        1.66285         36.0041         4.99015 
        1.66898         35.7927         4.94459 
        1.67512         35.6149         4.89951 
        1.68127         35.5031         4.85495 
         1.6874         35.4077         4.81104 
        1.69353         35.2178          4.7677 
        1.69967         35.0174         4.72479 
        1.70581         34.8738         4.68242 
        1.71193          34.591         4.64074 
        1.71806         34.5016         4.59946 
        1.72421         34.2839         4.55861 
        1.73035         34.1968          4.5183 
        1.73649         34.0306         4.47849 
        1.74262         33.8628         4.43918 
        1.74876         33.7492         4.40032 
        1.75489           33.65           4.362 
        1.76101         33.4484         4.32415 
        1.76715          33.336          4.2867 
        1.77329         33.1511         4.24964 
        1.77943         32.9307           4.213 
        1.78557          32.873         4.17685 
        1.79171          32.595         4.14111 
        1.79785         32.5345         4.10579 
        1.80399         32.3945         4.07088 
        1.81012         32.1961         4.03642 
        1.81625         32.0928         4.00238 
        1.82239            31.9         3.96868 
        1.82853         31.7769         3.93538 
        1.83466         31.6137         3.90249 
        1.84078         31.4663         3.87001 
        1.84692         31.3639         3.83785 
        1.85306         31.2589         3.80601 
         1.8592         31.0323         3.77459 
        1.86533         30.9252         3.74353 
        1.87147         30.7156         3.71278 
        1.87761         30.6347         3.68237 
        1.88375         30.4632         3.65233 
        1.88988         30.3547         3.62265 
        1.89601         30.2346         3.59329 
        1.90215         30.1059         3.56423 
        1.90829         29.9969          3.5355 
        1.91442         29.8332         3.50709 
        1.92056         29.6486         3.47901 
         1.9267         29.5367         3.45121 
        1.93284         29.4352          3.4237 
        1.93897         29.2712         3.39653 
        1.94509         29.1722         3.36972 
        1.95123         29.0744         3.34313 
        1.95737         28.9122         3.31681 
        1.96349         28.8344         3.29083 
        1.96964         28.7423         3.26506 
        1.97578         28.5483         3.23955 
        1.98192         28.4317         3.21437 
        1.98805         28.3104         3.18945 
        1.99419         28.1336         3.16479 
        2.00033         28.0051         3.14038 
        2.00647         27.8951         3.11623 
         2.0126         27.8265         3.09238 
        2.01874         27.6744         3.06873 
        2.02488         27.5464         3.04532 
        2.03101         27.4547         3.02219 
        2.03714          27.361         2.99932 
        2.04328         27.2792         2.97666 
        2.04941          27.069         2.95425 
        2.05554         26.9314         2.93209 
        2.06167         26.8276         2.91013 
        2.06781          26.747         2.88838 
        2.07396         26.6419         2.86683 
        2.08009         26.5091         2.84553 
        2.08622          26.407         2.82448 
        2.09237         26.3048         2.80359 
        2.09851         26.1262         2.78291 
        2.10464         26.0987         2.76248 
        2.11077         25.9761         2.74227 
        2.11691         25.8424         2.72222 
        2.12305         25.7056         2.70237 
        2.12918          25.603         2.68276 
        2.13531         25.4417         2.66334 
        2.14145         25.4036         2.64407 
         2.1476         25.3013         2.62497 
        2.15372         25.2004         2.60616 
        2.15985         25.0429          2.5875 
        2.16599         24.9689         2.56898 
        2.17213         24.8962         2.55065 
        2.17827         24.7687         2.53251 
         2.1844         24.6601         2.51456 
        2.19054         24.6175         2.49678 
        2.19666         24.4476         2.47919 
         2.2028         24.3521         2.46176 
        2.20893         24.2308         2.44448 
        2.21508         24.1516         2.42735 
        2.22122         24.0262         2.41038 
        2.22736         23.8947         2.39361 
        2.23349         23.8516           2.377 
        2.23962           23.79         2.36053 
        2.24577         23.6649         2.34421 
         2.2519         23.5772         2.32806 
        2.25802         23.4492         2.31209 
        2.26417         23.2964         2.29623 
        2.27031         23.2293          2.2805 
        2.27644          23.132         2.26496 
        2.28257         23.0892         2.24957 
        2.28872         22.9464         2.23429 
        2.29486         22.8873         2.21916 
        2.30099         22.7975         2.20419 
        2.30712         22.6806         2.18936 
        2.31326         22.5969         2.17463 
         2.3194         22.4899         2.16005 
        2.32553          22.438         2.14563 
        2.33166         22.3182         2.13135 
         2.3378         22.2473         2.11717 
        2.34394         22.1089         2.10312 
        2.35007         22.0261         2.08921 
        2.35619          21.951         2.07545 
        2.36233         21.8615         2.06178 
        2.36848         21.8104          2.0482 
        2.37462         21.7643         2.03478 
        2.38075         21.5993         2.02148 
        2.38689         21.4998          2.0083 
        2.39303          21.424         1.99523 
        2.39916         21.3666         1.98229 
        2.40529         21.2905         1.96947 
        2.41143          21.188         1.95675 
        2.41757         21.0951         1.94414 
         2.4237         21.0122         1.93166 
        2.42983         20.8916         1.91929 
        2.43598         20.8001           1.907 
        2.44211          20.719         1.89483 
        2.44823         20.6527          1.8828 
        2.45437         20.5721         1.87084 
        2.46052         20.5105         1.85897 
        2.46665         20.3905         1.84722 
        2.47279         20.3027         1.83558 
        2.47892         20.2821         1.82404 
        2.48507         20.1324         1.81258 
         2.4912         20.0812         1.80124 
