# k  (h/Mpc)    Pcb(k)  (Mpc/h)^3    Pcb_linear(k)  (Mpc/h)^3
     0.00783031         20277.8         20383.4 
       0.013688         23583.4         24283.7 
       0.019231         23440.8         23856.2 
      0.0249154           21513         21450.5 
      0.0312784         17876.7         18079.9 
      0.0375637         14797.2         15083.9 
      0.0433917         12891.8         12972.5 
      0.0492413         11342.3         11498.5 
      0.0555754         10368.6           10434 
      0.0619321         9272.58         9649.06 
       0.067871         8743.44         8960.57 
      0.0738098         8102.51         8202.71 
      0.0800417         7268.93         7322.16 
      0.0862327         6385.28         6431.81 
      0.0921407         5702.56          5657.4 
      0.0982031         5159.37         5006.59 
       0.104506          4591.9         4508.89 
       0.110769         4286.62         4173.15 
       0.116806          4114.1         3950.24 
       0.122832         3887.62         3769.85 
       0.129052         3660.33          3577.8 
       0.135211         3535.08         3353.96 
       0.141259         3238.12         3101.14 
       0.147318         2978.61         2834.54 
       0.153489         2775.65         2576.86 
       0.159709         2651.88         2354.65 
       0.165845         2427.85         2183.05 
       0.171974         2361.97         2056.53 
       0.178125         2288.97         1962.67 
       0.184229         2112.42         1886.24 
        0.19034         2083.73          1811.4 
       0.196428         2019.02         1728.86 
       0.202534         1892.75         1635.56 
       0.208729         1848.91          1534.1 
       0.214876          1755.1         1434.17 
       0.220989         1668.97         1342.98 
       0.227147         1618.34         1264.29 
        0.23329         1553.15         1200.15 
       0.239377         1546.18         1148.73 
       0.245482          1472.7         1105.19 
       0.251667         1419.92         1064.62 
       0.257832         1393.49         1024.01 
       0.263955         1330.47         981.612 
       0.270079         1293.55         937.225 
        0.27624         1240.25         892.174 
       0.282372         1225.22         848.998 
        0.28843         1199.11         809.801 
       0.294538         1146.03         774.686 
       0.300721         1125.34         743.678 
        0.30691         1094.66         716.342 
       0.313033         1054.02         691.694 
       0.319153         1043.53         668.202 
       0.325316         1028.78         644.819 
        0.33145         1003.96         621.442 
       0.337538         971.136         598.279 
       0.343633         949.496         575.558 
       0.349808         931.768         553.589 
       0.355968         913.031         533.108 
       0.362074         884.294         514.449 
       0.368217         880.805          497.21 
       0.374374         867.467         481.215 
       0.380519         836.863         466.177 
       0.386598         831.868          451.86 
       0.392688         809.971         437.889 
        0.39888         794.982         423.959 
       0.405048         777.491         410.399 
       0.411186         776.585         397.349 
       0.417313         769.095         384.869 
       0.423458         747.785         372.994 
       0.429607         727.896         361.794 
       0.435692         720.881         351.324 
       0.441815          706.84         341.323 
       0.447964         698.553         331.727 
       0.454126         689.307          322.46 
       0.460267         680.984         313.502 
       0.466387          667.04         304.842 
        0.47254         659.152         296.401 
       0.478662         648.201         288.284 
       0.484765         640.256         280.495 
       0.490885         635.046         273.012 
       0.497035         621.468         265.814 
       0.503198         620.755         258.902 
       0.509342         609.001         252.286 
       0.515458         597.249         245.946 
       0.521598         596.453         239.799 
       0.527764         582.451         233.818 
       0.533884         575.321         228.064 
           0.54         572.111         222.495 
       0.546137         563.252         217.091 
       0.552299         559.566         211.848 
       0.558452         552.022         206.793 
       0.564573         550.005         201.939 
       0.570708         542.421         197.243 
       0.576825         532.191         192.721 
       0.582926         530.909         188.357 
       0.589034         522.549         184.123 
       0.595184         517.739         179.987 
       0.601379         509.781         175.946 
       0.607522         501.693          172.06 
       0.613639         501.093         168.307 
       0.619772         497.594          164.66 
       0.625918         489.258         161.116 
       0.632068         487.515         157.676 
       0.638161         481.329          154.37 
         0.6443         475.308         151.138 
       0.650464         471.952         147.989 
       0.656582         467.773         144.953 
       0.662703         463.701         142.002 
       0.668861         457.226         139.118 
       0.675024         455.779          136.31 
       0.681124         445.693         133.609 
       0.687237         446.118         130.975 
       0.693381         439.389         128.401 
       0.699536         439.885         125.893 
       0.705665          432.78         123.463 
       0.711789         431.568         121.101 
       0.717957          426.43         118.786 
        0.72409         422.326         116.545 
       0.730186         422.223         114.377 
       0.736317          415.82         112.252 
       0.742472         411.896         110.174 
       0.748622         411.251          108.15 
        0.75476         405.061         106.182 
       0.760888         403.753         104.267 
       0.767043         400.477         102.391 
       0.773185         396.938         100.566 
       0.779291         393.522         98.7969 
       0.785407         390.541          97.068 
       0.791564         388.871         95.3701 
       0.797719          382.68         93.7142 
       0.803834         383.243         92.1085 
       0.809972         377.287         90.5351 
       0.816124         375.034         88.9955 
       0.822261         372.584         87.4961 
       0.828378         370.773         86.0361 
       0.834502         365.132         84.6084 
       0.840667         364.157         83.2042 
       0.846816         360.475         81.8361 
       0.852925          360.92         80.5077 
       0.859047         356.065         79.2062 
       0.865192         354.392         77.9294 
       0.871341         350.661         76.6801 
       0.877463         349.595         75.4641 
       0.883569         346.937         74.2777 
       0.889708         343.216          73.111 
       0.895864         339.354         71.9665 
       0.902008         338.568         70.8491 
       0.908149         335.036         69.7563 
       0.914301         334.267         68.6849 
       0.920448         330.131         67.6372 
       0.926574         328.398         66.6153 
       0.932687          327.63         65.6167 
       0.938823         324.154         64.6352 
       0.944975         323.568         63.6717 
       0.951105         320.859         62.7314 
       0.957225         316.984         61.8119 
       0.963368         317.181         60.9079 
       0.969511         313.076          60.022 
       0.975621         310.332         59.1588 
       0.981748         309.765         58.3104 
       0.987916         307.677         57.4734 
        0.99406         304.706         56.6562 
        1.00019         301.809         55.8566 
        1.00632          301.31         55.0733 
        1.01246         298.892          54.304 
        1.01859         296.503         53.5508 
        1.02471         294.714         52.8129 
        1.03085          293.47         52.0865 
        1.03698         291.593         51.3754 
        1.04314         289.936         50.6747 
        1.04929         288.353         49.9887 
        1.05541         286.396         49.3184 
        1.06154         283.529         48.6587 
        1.06769         281.846         48.0102 
        1.07382         279.452         47.3757 
        1.07993         279.088         46.7542 
        1.08607         277.351         46.1414 
        1.09222         274.815          45.539 
        1.09836         273.424         44.9482 
        1.10449         271.853         44.3685 
        1.11063         270.435         43.7986 
        1.11677         267.656         43.2389 
         1.1229         267.159           42.69 
        1.12903         264.527         42.1502 
        1.13518         262.983         41.6193 
        1.14131          261.56          41.098 
        1.14745         259.567         40.5859 
        1.15359         257.645         40.0824 
        1.15973         256.415         39.5874 
        1.16584         255.009         39.1029 
        1.17197         253.675          38.626 
        1.17811         250.864         38.1555 
        1.18424         249.942         37.6943 
        1.19038         248.922         37.2395 
        1.19652         246.407         36.7924 
        1.20267         245.362         36.3527 
        1.20881         244.125         35.9203 
        1.21495         242.424         35.4956 
        1.22108         241.114          35.078 
         1.2272         238.849         34.6681 
        1.23334         237.355         34.2638 
        1.23949         236.414         33.8651 
        1.24562         234.725         33.4738 
        1.25174         234.201         33.0894 
        1.25789         231.744         32.7099 
        1.26402         231.016         32.3371 
        1.27014         229.596          31.971 
        1.27628         228.308         31.6095 
        1.28244          226.04          31.253 
        1.28858         225.527         30.9024 
        1.29471         223.861         30.5581 
        1.30084         223.611         30.2193 
        1.30697         221.219         29.8852 
        1.31312          220.39         29.5557 
        1.31925         219.044         29.2323 
        1.32537         218.277          28.914 
        1.33151         215.926         28.5993 
        1.33765         215.062         28.2895 
        1.34378         214.274         27.9849 
        1.34992         212.147         27.6847 
        1.35606         211.275         27.3882 
         1.3622         209.369         27.0966 
        1.36833         209.455           26.81 
        1.37445         208.186         26.5277 
        1.38059         205.797         26.2486 
        1.38675         204.394         25.9728 
        1.39288         204.119         25.7022 
        1.39901          202.34         25.4355 
        1.40515         201.235          25.172 
         1.4113         200.318         24.9124 
        1.41742          198.91         24.6575 
        1.42355         197.457         24.4056 
         1.4297         196.647         24.1566 
        1.43585           195.8         23.9111 
        1.44198         194.356           23.67 
        1.44809         193.675         23.4326 
        1.45423         192.459         23.1977 
        1.46036         191.691         22.9664 
        1.46649         190.017         22.7382 
        1.47263         189.133          22.513 
        1.47877         187.998         22.2909 
        1.48491         186.807         22.0715 
        1.49104         185.082         21.8555 
        1.49718         184.523         21.6423 
        1.50333         183.265         21.4315 
        1.50947         182.184         21.2241 
         1.5156         181.323         21.0196 
        1.52172          180.22         20.8179 
        1.52787         179.369         20.6185 
          1.534         178.644         20.4219 
        1.54013         177.329         20.2281 
        1.54627         176.587         20.0365 
        1.55241         175.605         19.8473 
        1.55855         174.441         19.6609 
        1.56467         173.423         19.4774 
         1.5708         172.404         19.2957 
        1.57695         171.727         19.1161 
        1.58308         170.548         18.9391 
        1.58922         169.265         18.7644 
        1.59535         168.352         18.5918 
         1.6015         167.547         18.4213 
        1.60764         166.413         18.2529 
        1.61376         165.541         18.0871 
        1.61989         164.552         17.9233 
        1.62604         164.038         17.7611 
        1.63218         162.684         17.6011 
        1.63831         162.112         17.4434 
        1.64444         160.976         17.2875 
        1.65059         160.038         17.1332 
        1.65673         159.021          16.981 
        1.66285         158.244          16.831 
        1.66898          157.44         16.6828 
        1.67512         156.315         16.5361 
        1.68127         155.535         16.3911 
         1.6874         154.716         16.2481 
        1.69353         154.119         16.1069 
        1.69967         152.932         15.9671 
        1.70581         152.342          15.829 
        1.71193         151.493          15.693 
        1.71806          150.48         15.5584 
        1.72421         149.593         15.4251 
        1.73035         148.901         15.2935 
        1.73649         147.853         15.1634 
        1.74262          146.99          15.035 
        1.74876         146.264          14.908 
        1.75489         145.867         14.7828 
        1.76101         144.757          14.659 
        1.76715         144.034         14.5365 
        1.77329         143.213         14.4152 
        1.77943         142.165         14.2953 
        1.78557         141.241         14.1769 
        1.79171         140.606         14.0598 
        1.79785         139.652         13.9441 
        1.80399         139.076         13.8296 
        1.81012         138.656         13.7167 
        1.81625         137.334          13.605 
        1.82239         137.131         13.4944 
        1.82853         135.965         13.3851 
        1.83466         135.126         13.2771 
        1.84078         134.654         13.1705 
        1.84692         133.898         13.0648 
        1.85306         133.097         12.9602 
         1.8592         132.436         12.8569 
        1.86533         131.493         12.7547 
        1.87147         130.675         12.6536 
        1.87761         130.179         12.5535 
        1.88375         129.307         12.4546 
        1.88988          128.68         12.3569 
        1.89601         127.908         12.2602 
        1.90215         127.447         12.1645 
        1.90829         126.387         12.0698 
        1.91442         125.679         11.9761 
        1.92056         125.395         11.8835 
         1.9267         124.469         11.7918 
        1.93284         123.531          11.701 
        1.93897         123.336         11.6114 
        1.94509         122.335         11.5229 
        1.95123         121.739          11.435 
        1.95737         121.275         11.3481 
        1.96349         120.455         11.2622 
        1.96964         119.685          11.177 
        1.97578         119.122         11.0927 
        1.98192         118.631         11.0094 
        1.98805         118.045         10.9269 
        1.99419         117.226         10.8453 
        2.00033         116.595         10.7645 
        2.00647         115.993         10.6845 
         2.0126         115.256         10.6055 
        2.01874         114.472         10.5272 
        2.02488         114.183         10.4496 
        2.03101         113.568         10.3729 
        2.03714         112.933          10.297 
        2.04328         112.272         10.2219 
        2.04941         111.529         10.1475 
        2.05554         111.169          10.074 
        2.06167         110.513          10.001 
        2.06781         110.059         9.92883 
        2.07396         109.258         9.85723 
        2.08009         108.732         9.78647 
        2.08622         108.196         9.71648 
        2.09237         107.495         9.64704 
        2.09851         107.065         9.57827 
        2.10464         106.538         9.51029 
        2.11077          105.95         9.44305 
        2.11691         105.224         9.37631 
        2.12305         104.584         9.31022 
        2.12918         104.226         9.24492 
        2.13531         103.631         9.18025 
        2.14145         103.159         9.11605 
         2.1476         102.431         9.05239 
        2.15372         101.901         8.98966 
        2.15985          101.44         8.92746 
        2.16599         100.629         8.86567 
        2.17213         100.517         8.80454 
        2.17827         99.8633           8.744 
         2.1844         99.2285         8.68408 
        2.19054         98.7828          8.6247 
        2.19666         98.1953         8.56597 
         2.2028          97.922         8.50773 
        2.20893         97.2748            8.45 
        2.21508         96.5419         8.39275 
        2.22122         96.0111         8.33601 
        2.22736          95.907         8.27991 
        2.23349         95.4411         8.22434 
        2.23962         94.7527         8.16926 
        2.24577         94.0491         8.11463 
         2.2519          93.613         8.06058 
        2.25802         93.1141         8.00712 
        2.26417         92.6892         7.95398 
        2.27031         92.1092         7.90129 
        2.27644         91.6492         7.84922 
        2.28257         91.5667         7.79763 
        2.28872         90.8678          7.7464 
        2.29486         90.3732         7.69565 
        2.30099         89.8601         7.64546 
        2.30712          89.432         7.59569 
        2.31326         88.8889         7.54628 
         2.3194          88.557         7.49735 
        2.32553         88.0952         7.44893 
        2.33166         87.6687         7.40095 
         2.3378         87.1017         7.35334 
        2.34394         86.6571         7.30613 
        2.35007         86.1953          7.2594 
        2.35619         85.5438         7.21314 
        2.36233         85.2384         7.16717 
        2.36848         84.9496         7.12151 
        2.37462         84.4981         7.07635 
        2.38075         83.9855         7.03162 
        2.38689         83.6523         6.98724 
        2.39303         83.3327         6.94325 
        2.39916         82.7092         6.89969 
        2.40529          82.344         6.85651 
        2.41143         81.8134         6.81366 
        2.41757         81.2515         6.77117 
         2.4237         81.1074         6.72911 
        2.42983         80.6294         6.68742 
        2.43598         80.1661         6.64597 
        2.44211         79.8047         6.60494 
        2.44823         79.3366         6.56435 
        2.45437         79.1764           6.524 
        2.46052          78.706         6.48394 
        2.46665         78.1531          6.4443 
        2.47279         77.7754           6.405 
        2.47892         77.3883         6.36601 
        2.48507         77.0799          6.3273 
         2.4912         76.6361         6.28899 
