# k  (h/Mpc)    P(k)  (Mpc/h)^3    P_linear(k)  (Mpc/h)^3
     0.00783031         6474.35         6521.05 
       0.013688         7933.58         8088.76 
       0.019231         8204.54         8291.34 
      0.0249154         7802.19         7794.43 
      0.0312784         6838.27         6880.79 
      0.0375637         5882.45         5948.76 
      0.0433917         5205.44         5217.79 
      0.0492413         4617.81         4657.33 
      0.0555754         4216.74         4222.29 
      0.0619321         3809.07         3902.91 
       0.067871         3604.95         3648.84 
      0.0738098          3366.8         3393.31 
      0.0800417         3088.11         3102.46 
      0.0862327         2771.12         2795.57 
      0.0921407         2493.74         2506.76 
      0.0982031         2252.72         2238.74 
       0.104506         2001.25         2008.89 
       0.110769         1839.06         1835.48 
       0.116806         1745.43         1713.95 
       0.122832         1635.86         1623.77 
       0.129052          1561.9         1546.43 
       0.135211         1504.06         1470.66 
       0.141259         1405.09         1388.26 
       0.147318         1299.51         1296.17 
       0.153489         1215.14         1197.08 
       0.159709         1142.62          1099.7 
       0.165845          1036.9         1013.58 
       0.171974          999.06         942.067 
       0.178125         949.341         885.766 
       0.184229         884.908         842.876 
        0.19034         864.242          808.52 
       0.196428         835.781         777.915 
       0.202534         784.292         746.737 
       0.208729         767.388         712.224 
       0.214876         734.816         674.889 
       0.220989         684.842         636.237 
       0.227147         665.006         598.183 
        0.23329         635.755         563.389 
       0.239377         618.815         533.481 
       0.245482         585.883          508.42 
       0.251667         561.978         487.426 
       0.257832         555.197         469.542 
       0.263955         525.696         453.267 
       0.270079          507.86         437.163 
        0.27624         486.742          420.35 
       0.282372         474.529         402.889 
        0.28843         469.854         385.287 
       0.294538          445.64         367.875 
       0.300721         429.346         351.295 
        0.30691          421.68         336.261 
       0.313033         402.981         323.103 
       0.319153         395.737         311.514 
       0.325316         386.035         301.055 
        0.33145         376.362         291.382 
       0.337538         363.394         282.088 
       0.343633         352.345         272.823 
       0.349808         342.689         263.367 
       0.355968         335.277         253.948 
       0.362074         326.013         244.792 
       0.368217         321.549          235.98 
       0.374374          314.04         227.704 
       0.380519         301.118         220.081 
       0.386598         296.507         213.154 
       0.392688         289.185         206.721 
        0.39888         282.388         200.575 
       0.405048         276.991         194.704 
       0.411186         274.261             189 
       0.417313         268.796         183.406 
       0.423458         261.559         177.881 
       0.429607         255.446         172.481 
       0.435692         250.927         167.325 
       0.441815         245.826         162.366 
       0.447964         239.189         157.646 
       0.454126         235.461         153.191 
       0.460267         232.631         148.993 
       0.466387         227.927          145.01 
        0.47254         225.119          141.17 
       0.478662         218.361         137.475 
       0.484765         215.691         133.885 
       0.490885         212.349         130.374 
       0.497035         209.839         126.943 
       0.503198         206.978         123.611 
       0.509342         201.455         120.404 
       0.515458         199.113         117.337 
       0.521598          194.53         114.391 
       0.527764         192.418         111.557 
       0.533884         191.737         108.854 
           0.54         187.081         106.251 
       0.546137         182.966         103.726 
       0.552299         181.269         101.269 
       0.558452         178.087         98.8839 
       0.564573         177.083         96.5755 
       0.570708         172.814         94.3288 
       0.576825         170.615         92.1588 
       0.582926         168.774         90.0662 
       0.589034         166.334         88.0409 
       0.595184         164.888         86.0696 
       0.601379         161.323         84.1504 
       0.607522          158.57         82.3097 
       0.613639         157.369         80.5341 
       0.619772         155.454         78.8069 
       0.625918         154.251         77.1249 
       0.632068         150.838         75.4875 
       0.638161         149.169         73.9095 
         0.6443         148.403         72.3641 
       0.650464         145.576         70.8576 
       0.656582         144.861         69.4064 
       0.662703          143.26         67.9974 
       0.668861         140.342         66.6211 
       0.675024         140.377         65.2827 
       0.681124          138.11         63.9952 
       0.687237         136.022         62.7399 
       0.693381           135.1         61.5124 
       0.699536          133.42         60.3155 
       0.705665         131.752         59.1557 
       0.711789         130.167         58.0274 
       0.717957         128.734         56.9208 
        0.72409         127.754         55.8492 
       0.730186         127.288         54.8118 
       0.736317         125.068         53.7953 
       0.742472         123.469         52.8011 
       0.748622         121.643         51.8332 
        0.75476         121.758         50.8919 
       0.760888         120.665         49.9757 
       0.767043         118.515         49.0787 
       0.773185          117.22         48.2059 
       0.779291         115.903         47.3593 
       0.785407         114.825          46.532 
       0.791564         114.329         45.7193 
       0.797719         112.864         44.9265 
       0.803834         112.333         44.1576 
       0.809972         111.564          43.404 
       0.816124         110.079         42.6664 
       0.822261         108.864          41.948 
       0.828378         108.673         41.2485 
       0.834502         106.985         40.5643 
       0.840667         106.473         39.8914 
       0.846816         105.525         39.2357 
       0.852925         104.321          38.599 
       0.859047         103.789         37.9751 
       0.865192         102.637          37.363 
       0.871341         101.546         36.7641 
       0.877463          100.87         36.1811 
       0.883569         100.672         35.6123 
       0.889708         99.7723         35.0528 
       0.895864          98.857          34.504 
       0.902008         97.9524         33.9681 
       0.908149         96.6888          33.444 
       0.914301         96.6287         32.9301 
       0.920448           96.19         32.4276 
       0.926574         94.3593         31.9373 
       0.932687         94.2143         31.4583 
       0.938823         93.4714         30.9874 
       0.944975         92.3978         30.5251 
       0.951105         91.6715         30.0739 
       0.957225         91.5751         29.6326 
       0.963368         90.5422         29.1988 
       0.969511         89.8633         28.7736 
       0.975621         89.1253         28.3593 
       0.981748          88.352         27.9521 
       0.987916         87.7892         27.5503 
        0.99406         87.4344          27.158 
        1.00019         86.3837         26.7741 
        1.00632         85.8445         26.3981 
        1.01246         85.3273         26.0287 
        1.01859         84.9816          25.667 
        1.02471         84.1406         25.3127 
        1.03085         83.4416         24.9638 
        1.03698         82.9711         24.6223 
        1.04314         82.3536         24.2858 
        1.04929         81.9553         23.9564 
        1.05541         81.3876         23.6344 
        1.06154          80.904         23.3176 
        1.06769         80.1238         23.0061 
        1.07382         79.4727         22.7013 
        1.07993         79.2533         22.4028 
        1.08607         78.5973         22.1084 
        1.09222         78.3499          21.819 
        1.09836         77.5575         21.5352 
        1.10449         77.1586         21.2567 
        1.11063          76.597         20.9829 
        1.11677           76.21          20.714 
         1.1229          75.539         20.4503 
        1.12903         75.3322          20.191 
        1.13518         75.0359         19.9359 
        1.14131         74.3238         19.6854 
        1.14745         73.8086         19.4394 
        1.15359         72.9968         19.1975 
        1.15973         72.9709         18.9597 
        1.16584         72.4536         18.7269 
        1.17197         71.8509         18.4977 
        1.17811         71.4754         18.2717 
        1.18424         70.7395         18.0501 
        1.19038         70.7182         17.8316 
        1.19652          70.294         17.6168 
        1.20267          69.759         17.4055 
        1.20881         69.3522         17.1977 
        1.21495          68.997         16.9937 
        1.22108          68.745          16.793 
         1.2272         68.0482          16.596 
        1.23334         67.8209         16.4018 
        1.23949         67.3822         16.2102 
        1.24562         66.8823         16.0222 
        1.25174         66.5053         15.8375 
        1.25789         66.4904         15.6551 
        1.26402         65.9023          15.476 
        1.27014         65.6282            15.3 
        1.27628         65.0126         15.1263 
        1.28244         64.8823          14.955 
        1.28858         64.4586         14.7866 
        1.29471         64.0895         14.6211 
        1.30084         63.5139         14.4583 
        1.30697         63.5742         14.2978 
        1.31312         62.9976         14.1394 
        1.31925         62.5679          13.984 
        1.32537         62.2786          13.831 
        1.33151         62.0024         13.6798 
        1.33765         61.6501          13.531 
        1.34378         61.3711         13.3846 
        1.34992          61.013         13.2403 
        1.35606         60.5993         13.0979 
         1.3622         60.3463         12.9578 
        1.36833         59.9591           12.82 
        1.37445         59.4358         12.6844 
        1.38059         59.3851         12.5503 
        1.38675         58.7508         12.4178 
        1.39288         58.7868         12.2877 
        1.39901         58.2489         12.1596 
        1.40515         58.0524          12.033 
         1.4113         57.9097         11.9083 
        1.41742         57.5111         11.7858 
        1.42355         57.1663         11.6648 
         1.4297         56.8641         11.5452 
        1.43585         56.5031         11.4272 
        1.44198         56.1751         11.3114 
        1.44809         55.8677         11.1974 
        1.45423         55.6486         11.0846 
        1.46036         55.3417         10.9735 
        1.46649         55.1694         10.8639 
        1.47263          54.825         10.7557 
        1.47877         54.6327          10.649 
        1.48491         54.3425         10.5436 
        1.49104         53.8928         10.4398 
        1.49718         53.7154         10.3374 
        1.50333           53.48         10.2362 
        1.50947         53.1896         10.1366 
         1.5156         52.9763         10.0384 
        1.52172         52.5875          9.9415 
        1.52787         52.3229         9.84571 
          1.534         52.1025          9.7513 
        1.54013         51.9967         9.65822 
        1.54627         51.4821         9.56619 
        1.55241         51.2514         9.47534 
        1.55855         51.1726          9.3858 
        1.56467          50.743         9.29767 
         1.5708         50.6684         9.21042 
        1.57695         50.3444         9.12416 
        1.58308          50.019          9.0392 
        1.58922         49.8232         8.95527 
        1.59535         49.6679         8.87243 
         1.6015          49.589         8.79052 
        1.60764         49.2154         8.70969 
        1.61376         48.9195          8.6301 
        1.61989           48.61         8.55143 
        1.62604         48.4389         8.47357 
        1.63218         48.1601         8.39673 
        1.63831          48.056         8.32102 
        1.64444         47.7819         8.24621 
        1.65059         47.5531         8.17214 
        1.65673         47.2523         8.09906 
        1.66285         47.1685         8.02708 
        1.66898         46.7182         7.95595 
        1.67512         46.6538         7.88554 
        1.68127         46.4117         7.81592 
         1.6874         46.1535         7.74729 
        1.69353         46.0567         7.67953 
        1.69967         45.8576         7.61242 
        1.70581         45.5051         7.54614 
        1.71193         45.3121          7.4809 
        1.71806          45.127         7.41629 
        1.72421         44.9369         7.35232 
        1.73035         44.7073         7.28918 
        1.73649         44.4041         7.22679 
        1.74262         44.1283         7.16517 
        1.74876         44.1012         7.10424 
        1.75489          43.797         7.04414 
        1.76101         43.6364         6.98475 
        1.76715          43.563         6.92597 
        1.77329         43.1279         6.86779 
        1.77943         43.1355         6.81025 
        1.78557         42.9287         6.75345 
        1.79171         42.7054          6.6973 
        1.79785         42.4826         6.64177 
        1.80399           42.29         6.58688 
        1.81012         42.1434         6.53269 
        1.81625         41.7983         6.47912 
        1.82239         41.6544         6.42608 
        1.82853         41.5391         6.37366 
        1.83466         41.2917         6.32187 
        1.84078          41.135         6.27072 
        1.84692         40.9031         6.22004 
        1.85306         40.6911         6.16987 
         1.8592         40.6042         6.12032 
        1.86533          40.391         6.07135 
        1.87147         40.1961         6.02286 
        1.87761         39.9395         5.97487 
        1.88375         39.8534         5.92746 
        1.88988         39.6962         5.88062 
        1.89601         39.4241         5.83425 
        1.90215         39.2995         5.78835 
        1.90829         39.1105         5.74296 
        1.91442         38.9139         5.69806 
        1.92056         38.7598         5.65367 
         1.9267          38.673         5.60972 
        1.93284         38.4033          5.5662 
        1.93897         38.3306         5.52322 
        1.94509         38.0505          5.4808 
        1.95123         37.9389         5.43871 
        1.95737         37.6832         5.39703 
        1.96349         37.6213         5.35589 
        1.96964           37.45         5.31506 
        1.97578         37.2351         5.27464 
        1.98192         37.0636         5.23473 
        1.98805         36.8785         5.19522 
        1.99419         36.7699         5.15611 
        2.00033         36.5863         5.11739 
        2.00647         36.5021         5.07908 
         2.0126         36.2668         5.04122 
        2.01874         36.0899         5.00369 
        2.02488         35.9165         4.96651 
        2.03101         35.7629         4.92978 
        2.03714         35.6293         4.89345 
        2.04328         35.5078         4.85744 
        2.04941          35.308         4.82183 
        2.05554         35.1875          4.7866 
        2.06167         35.0077         4.75167 
        2.06781         34.8752         4.71708 
        2.07396         34.7291         4.68279 
        2.08009         34.5769          4.6489 
        2.08622         34.4026         4.61538 
        2.09237         34.2864         4.58213 
        2.09851         34.0994          4.5492 
        2.10464         33.9224         4.51665 
        2.11077         33.8587         4.48445 
        2.11691         33.6234          4.4525 
        2.12305         33.4753         4.42085 
        2.12918         33.3679         4.38959 
        2.13531          33.237         4.35863 
        2.14145         33.1009          4.3279 
         2.1476         32.9087         4.29742 
        2.15372         32.8498         4.26739 
        2.15985         32.6297         4.23762 
        2.16599         32.4489         4.20805 
        2.17213         32.3642         4.17879 
        2.17827         32.2118         4.14981 
         2.1844         32.1009         4.12114 
        2.19054         31.9619         4.09272 
        2.19666         31.7684         4.06461 
         2.2028         31.6919         4.03674 
        2.20893         31.5661         4.00912 
        2.21508         31.4396         3.98173 
        2.22122         31.2771         3.95458 
        2.22736         31.1024         3.92774 
        2.23349         30.9827         3.90116 
        2.23962         30.8898          3.8748 
        2.24577          30.758         3.84867 
         2.2519         30.5946         3.82282 
        2.25802         30.4668         3.79724 
        2.26417          30.306         3.77182 
        2.27031          30.251         3.74662 
        2.27644         30.1697         3.72172 
        2.28257         29.9712         3.69704 
        2.28872         29.8984         3.67254 
        2.29486         29.7107         3.64827 
        2.30099         29.5489         3.62427 
        2.30712         29.4791         3.60047 
        2.31326         29.3399         3.57685 
         2.3194         29.2238         3.55345 
        2.32553         29.0995          3.5303 
        2.33166         28.9821         3.50736 
         2.3378         28.8867          3.4846 
        2.34394         28.7365         3.46203 
        2.35007          28.673         3.43969 
        2.35619         28.5454         3.41758 
        2.36233         28.3656          3.3956 
        2.36848         28.2597         3.37378 
        2.37462         28.1916         3.35219 
        2.38075         28.0196         3.33081 
        2.38689         27.8811          3.3096 
        2.39303         27.8704         3.28858 
        2.39916         27.6529         3.26776 
        2.40529         27.5346         3.24712 
        2.41143         27.4553         3.22665 
        2.41757         27.3186         3.20634 
         2.4237         27.2281         3.18625 
        2.42983          27.105         3.16633 
        2.43598         26.9877         3.14652 
        2.44211         26.8916         3.12692 
        2.44823         26.7356         3.10753 
        2.45437         26.7323         3.08825 
        2.46052         26.5568         3.06912 
        2.46665         26.4377         3.05018 
        2.47279         26.2808         3.03141 
        2.47892         26.2188         3.01278 
        2.48507         26.1146         2.99429 
         2.4912         26.0476         2.97599 
