# k  (h/Mpc)    Pcb(k)  (Mpc/h)^3    Pcb_linear(k)  (Mpc/h)^3
     0.00783031         191.512         193.022 
       0.013688         256.368         257.292 
       0.019231         276.361         276.678 
      0.0249154         268.988         270.081 
      0.0312784         245.985         246.266 
      0.0375637         218.264         218.017 
      0.0433917         194.246         194.309 
      0.0492413          175.74          175.53 
      0.0555754         160.698         160.891 
      0.0619321         150.823         150.442 
       0.067871         142.222         142.423 
      0.0738098          134.08         134.351 
      0.0800417         124.338         124.773 
      0.0862327         113.874         114.068 
      0.0921407          103.35         103.421 
      0.0982031          92.907         93.0483 
       0.104506          83.978         83.7798 
       0.110769          76.767         76.5913 
       0.116806          71.474         71.5449 
       0.122832         68.0333         67.9517 
       0.129052         65.0143         65.1253 
       0.135211         62.3804         62.5497 
       0.141259         59.7008         59.7491 
       0.147318         56.5345         56.4559 
       0.153489         52.6525         52.6659 
       0.159709         48.7063         48.6871 
       0.165845         45.2049         44.9603 
       0.171974          41.781         41.7262 
       0.178125         39.2212         39.1206 
       0.184229         37.3276         37.1615 
        0.19034         35.6825         35.6916 
       0.196428         34.5957         34.5114 
       0.202534         33.6058         33.3979 
       0.208729         32.2741         32.1689 
       0.214876          30.786         30.7683 
       0.220989         29.4124         29.2122 
       0.227147         27.6057         27.5696 
        0.23329         26.0339         25.9758 
       0.239377         24.6519         24.5476 
       0.245482         23.3865         23.3309 
       0.251667         22.5016           22.33 
       0.257832          21.657         21.5283 
       0.263955         21.0024         20.8593 
       0.270079         20.3831         20.2398 
        0.27624         19.8213         19.6032 
       0.282372         19.1244         18.9183 
        0.28843         18.3328         18.1863 
       0.294538         17.5784         17.4159 
       0.300721          16.875         16.6407 
        0.30691         16.0791         15.9109 
       0.313033         15.4532         15.2622 
       0.319153         14.7929         14.6998 
       0.325316         14.4472         14.2128 
        0.33145         14.0004         13.7891 
       0.337538         13.6021         13.4021 
       0.343633         13.1968         13.0251 
       0.349808         12.8348         12.6352 
       0.355968         12.4334         12.2324 
       0.362074         12.0134          11.822 
       0.368217         11.6144         11.4089 
       0.374374         11.1747         11.0086 
       0.380519         10.8426         10.6339 
       0.386598         10.5227         10.2954 
       0.392688         10.2338         9.98864 
        0.39888         9.93553         9.70563 
       0.405048         9.68349         9.44511 
       0.411186         9.44373         9.19724 
       0.417313         9.16645         8.95418 
       0.423458         8.94513         8.71057 
       0.429607          8.6762         8.46505 
       0.435692         8.43337         8.22353 
       0.441815         8.20602         7.98556 
       0.447964         8.01296         7.75551 
       0.454126           7.755         7.53767 
       0.460267         7.55406         7.33501 
       0.466387         7.34909         7.14613 
        0.47254         7.18814         6.96759 
       0.478662         7.02882         6.79876 
       0.484765         6.84903         6.63593 
       0.490885         6.68694          6.4756 
       0.497035         6.57096         6.31674 
       0.503198         6.39401         6.16001 
       0.509342         6.24712         6.00653 
       0.515458         6.08686         5.85778 
       0.521598         5.94919         5.71401 
       0.527764         5.79637          5.5762 
       0.533884         5.68933         5.44585 
           0.54         5.55752         5.32142 
       0.546137         5.44613         5.20184 
       0.552299         5.32827         5.08622 
       0.558452         5.19317         4.97423 
       0.564573         5.10078         4.86525 
       0.570708         4.99419         4.75811 
       0.576825         4.87613         4.65365 
       0.582926         4.78942         4.55215 
       0.589034         4.65866         4.45347 
       0.595184         4.57345         4.35726 
       0.601379         4.47812         4.26361 
       0.607522         4.40354         4.17403 
       0.613639         4.33406         4.08808 
       0.619772         4.22384         4.00484 
       0.625918         4.15355         3.92395 
       0.632068         4.08484         3.84515 
       0.638161         3.99468         3.76887 
         0.6443         3.91547         3.69375 
       0.650464         3.83182         3.62019 
       0.656582         3.77533         3.54909 
       0.662703         3.70599         3.47994 
       0.668861         3.64753         3.41238 
       0.675024         3.57011          3.3467 
       0.681124          3.4974         3.28353 
       0.687237         3.44908         3.22197 
       0.693381         3.38968         3.16178 
       0.699536         3.30588         3.10309 
       0.705665         3.25544         3.04618 
       0.711789         3.20576         2.99077 
       0.717957         3.14469         2.93634 
        0.72409         3.09469         2.88355 
       0.730186          3.0402         2.83232 
       0.736317         3.00555         2.78203 
       0.742472         2.95223         2.73277 
       0.748622         2.89679         2.68475 
        0.75476         2.84001         2.63803 
       0.760888          2.7956         2.59253 
       0.767043         2.76578         2.54799 
       0.773185         2.70954         2.50463 
       0.779291         2.67062         2.46257 
       0.785407         2.62911         2.42144 
       0.791564         2.58854           2.381 
       0.797719         2.55306         2.34152 
       0.803834         2.51514         2.30318 
       0.809972         2.47566         2.26555 
       0.816124         2.43272         2.22868 
       0.822261         2.39168         2.19274 
       0.828378         2.36238         2.15769 
       0.834502         2.33329          2.1234 
       0.840667         2.28582         2.08964 
       0.846816         2.25339         2.05672 
       0.852925         2.23091         2.02473 
       0.859047         2.19775         1.99337 
       0.865192         2.16363         1.96259 
       0.871341         2.13234         1.93244 
       0.877463         2.11024         1.90308 
       0.883569          2.0725         1.87441 
       0.889708         2.04163          1.8462 
       0.895864         2.01617          1.8185 
       0.902008         1.98287         1.79143 
       0.908149         1.95779         1.76494 
       0.914301         1.92173         1.73895 
       0.920448         1.90036         1.71351 
       0.926574           1.873         1.68868 
       0.932687          1.8491          1.6644 
       0.938823          1.8324         1.64051 
       0.944975         1.80473         1.61704 
       0.951105         1.78333         1.59413 
       0.957225         1.76497          1.5717 
       0.963368         1.73956         1.54963 
       0.969511         1.71341         1.52799 
       0.975621         1.68726         1.50689 
       0.981748         1.67343         1.48614 
       0.987916         1.65042         1.46565 
        0.99406         1.62607         1.44563 
        1.00019         1.61149         1.42603 
        1.00632          1.5854         1.40681 
        1.01246          1.5663         1.38792 
        1.01859         1.55019         1.36942 
        1.02471         1.52864         1.35128 
        1.03085         1.51545          1.3334 
        1.03698         1.49233          1.3159 
        1.04314         1.47689         1.29863 
        1.04929         1.45615         1.28173 
        1.05541         1.44189         1.26519 
        1.06154         1.42257         1.24891 
        1.06769         1.40463         1.23289 
        1.07382         1.39067         1.21721 
        1.07993         1.36965         1.20184 
        1.08607         1.36142         1.18668 
        1.09222         1.34143         1.17177 
        1.09836         1.33195         1.15713 
        1.10449         1.31545         1.14276 
        1.11063          1.2965         1.12863 
        1.11677         1.28003         1.11474 
         1.1229          1.2679         1.10111 
        1.12903         1.25171          1.0877 
        1.13518         1.24193          1.0745 
        1.14131         1.22504         1.06153 
        1.14745         1.20494         1.04879 
        1.15359         1.19843         1.03626 
        1.15973         1.18041         1.02392 
        1.16584         1.17514         1.01185 
        1.17197         1.15982        0.999957 
        1.17811         1.14818         0.98822 
        1.18424          1.1401        0.976708 
        1.19038         1.12381        0.965347 
        1.19652         1.10909        0.954174 
        1.20267         1.10252         0.94318 
        1.20881         1.08717        0.932363 
        1.21495         1.07969        0.921734 
        1.22108         1.06798        0.911275 
         1.2272         1.05894        0.901004 
        1.23334         1.04598         0.89087 
        1.23949         1.03485        0.880869 
        1.24562         1.02533        0.871051 
        1.25174         1.01538        0.861399 
        1.25789          1.0061        0.851864 
        1.26402        0.992447        0.842493 
        1.27014        0.983459        0.833287 
        1.27628        0.977139        0.824192 
        1.28244        0.962821        0.815217 
        1.28858        0.954989        0.806389 
        1.29471        0.948277        0.797713 
        1.30084        0.936648        0.789174 
        1.30697        0.927841        0.780748 
        1.31312        0.914953        0.772434 
        1.31925        0.909118        0.764268 
        1.32537        0.901965         0.75623 
        1.33151        0.894388         0.74828 
        1.33765        0.885096         0.74045 
        1.34378        0.873742        0.732748 
        1.34992        0.868964        0.725152 
        1.35606         0.85906        0.717648 
         1.3622        0.851835        0.710264 
        1.36833        0.843559        0.703003 
        1.37445        0.833313        0.695849 
        1.38059         0.82608        0.688773 
        1.38675        0.824745        0.681779 
        1.39288        0.813511        0.674911 
        1.39901        0.806611        0.668142 
        1.40515        0.800079        0.661451 
         1.4113        0.790975        0.654856 
        1.41742        0.783924        0.648376 
        1.42355         0.78075        0.641973 
         1.4297        0.770391        0.635638 
        1.43585        0.764469        0.629391 
        1.44198        0.760852        0.623253 
        1.44809        0.750766         0.61721 
        1.45423         0.74496        0.611225 
        1.46036        0.738441         0.60533 
        1.46649        0.733083        0.599512 
        1.47263        0.725594        0.593767 
        1.47877        0.718297          0.5881 
        1.48491        0.713219        0.582499 
        1.49104         0.70568        0.576983 
        1.49718        0.701283        0.571536 
        1.50333        0.695883         0.56615 
        1.50947        0.689966        0.560846 
         1.5156        0.683351        0.555618 
        1.52172        0.678071        0.550457 
        1.52787         0.67195        0.545352 
          1.534        0.667241        0.540319 
        1.54013        0.659803        0.535354 
        1.54627        0.655936        0.530444 
        1.55241        0.649615        0.525595 
        1.55855        0.643152        0.520814 
        1.56467        0.641547        0.516105 
         1.5708        0.634317        0.511443 
        1.57695        0.630123        0.506831 
        1.58308        0.624541        0.502287 
        1.58922        0.619964        0.497797 
        1.59535        0.614552        0.493363 
         1.6015        0.609739        0.488977 
        1.60764        0.605445        0.484648 
        1.61376         0.59875        0.480383 
        1.61989        0.595849        0.476167 
        1.62604        0.591108        0.471992 
        1.63218        0.587372         0.46787 
        1.63831        0.582182        0.463808 
        1.64444        0.577415        0.459792 
        1.65059        0.573284        0.455815 
        1.65673        0.568499         0.45189 
        1.66285        0.564707        0.448022 
        1.66898        0.560835        0.444199 
        1.67512        0.555401        0.440413 
        1.68127        0.550998        0.436668 
         1.6874        0.548558        0.432975 
        1.69353          0.5433        0.429328 
        1.69967        0.540242        0.425715 
        1.70581        0.535045        0.422145 
        1.71193        0.531544        0.418629 
        1.71806        0.527049        0.415147 
        1.72421        0.524201        0.411698 
        1.73035        0.519533        0.408292 
        1.73649        0.516797        0.404925 
        1.74262        0.512671          0.4016 
        1.74876        0.508609         0.39831 
        1.75489        0.505469        0.395064 
        1.76101        0.500701        0.391856 
        1.76715        0.497558        0.388679 
        1.77329        0.493733        0.385533 
        1.77943        0.490442        0.382421 
        1.78557        0.487602        0.379349 
        1.79171        0.483922        0.376309 
        1.79785        0.480349        0.373303 
        1.80399        0.476773        0.370331 
        1.81012        0.474062        0.367395 
        1.81625        0.470213        0.364492 
        1.82239        0.467734        0.361617 
        1.82853        0.462932        0.358774 
        1.83466        0.460839        0.355965 
        1.84078        0.457045        0.353189 
        1.84692         0.45441        0.350438 
        1.85306        0.451585        0.347714 
         1.8592        0.448248        0.345023 
        1.86533        0.445731        0.342362 
        1.87147        0.442373        0.339726 
        1.87761         0.44013        0.337118 
        1.88375        0.435613         0.33454 
        1.88988        0.433493        0.331991 
        1.89601        0.430359        0.329469 
        1.90215        0.427808         0.32697 
        1.90829        0.424444        0.324499 
        1.91442        0.422376        0.322053 
        1.92056        0.418914        0.319635 
         1.9267        0.415889         0.31724 
        1.93284        0.413489        0.314868 
        1.93897        0.411013        0.312524 
        1.94509          0.4087         0.31021 
        1.95123        0.405248        0.307914 
        1.95737        0.403546        0.305639 
        1.96349         0.40053        0.303393 
        1.96964        0.397543        0.301164 
        1.97578        0.395053        0.298956 
        1.98192        0.393514        0.296775 
        1.98805        0.390952        0.294616 
        1.99419        0.387669        0.292478 
        2.00033        0.385396         0.29036 
        2.00647        0.383682        0.288264 
         2.0126        0.380575        0.286193 
        2.01874        0.378717        0.284139 
        2.02488        0.376318        0.282103 
        2.03101        0.373707        0.280091 
        2.03714        0.371358        0.278101 
        2.04328        0.369278        0.276128 
        2.04941        0.366856        0.274176 
        2.05554        0.364888        0.272245 
        2.06167        0.363072        0.270329 
        2.06781         0.35956        0.268432 
        2.07396        0.357527         0.26655 
        2.08009        0.355436         0.26469 
        2.08622        0.353825         0.26285 
        2.09237        0.352352        0.261023 
        2.09851         0.35008        0.259214 
        2.10464         0.34784        0.257425 
        2.11077          0.3452        0.255656 
        2.11691        0.343341        0.253899 
        2.12305        0.341286        0.252159 
        2.12918        0.339394        0.250439 
        2.13531        0.337338        0.248735 
        2.14145        0.335233        0.247044 
         2.1476        0.333475        0.245366 
        2.15372        0.332095        0.243712 
        2.15985        0.329592        0.242072 
        2.16599        0.327328        0.240443 
        2.17213        0.326093         0.23883 
        2.17827        0.323968        0.237233 
         2.1844        0.322442        0.235652 
        2.19054         0.32046        0.234084 
        2.19666        0.317872        0.232534 
         2.2028        0.316714        0.230996 
        2.20893        0.315329        0.229471 
        2.21508        0.312636        0.227958 
        2.22122        0.311232        0.226459 
        2.22736        0.309731        0.224976 
        2.23349        0.307844        0.223508 
        2.23962        0.306454        0.222051 
        2.24577        0.304094        0.220606 
         2.2519        0.303136        0.219176 
        2.25802        0.300926        0.217762 
        2.26417         0.29942        0.216356 
        2.27031        0.297507        0.214961 
        2.27644        0.296162        0.213582 
        2.28257        0.294363        0.212216 
        2.28872        0.293066        0.210859 
        2.29486         0.29132        0.209515 
        2.30099        0.289945        0.208185 
        2.30712        0.288397        0.206866 
        2.31326        0.286183        0.205556 
         2.3194        0.286176        0.204258 
        2.32553         0.28437        0.202974 
        2.33166        0.282708        0.201702 
         2.3378         0.28113        0.200439 
        2.34394        0.279364        0.199186 
        2.35007        0.278044        0.197946 
        2.35619         0.27619        0.196718 
        2.36233        0.274502        0.195497 
        2.36848        0.273552        0.194285 
        2.37462        0.271779        0.193085 
        2.38075        0.270972        0.191897 
        2.38689        0.269254        0.190718 
        2.39303        0.268512        0.189549 
        2.39916        0.266391        0.188391 
        2.40529        0.265196        0.187243 
        2.41143        0.263911        0.186103 
        2.41757        0.262255        0.184973 
         2.4237        0.261154        0.183854 
        2.42983        0.259661        0.182745 
        2.43598        0.259008        0.181642 
        2.44211        0.257467         0.18055 
        2.44823        0.256602        0.179469 
        2.45437        0.254431        0.178394 
        2.46052        0.253677        0.177327 
        2.46665        0.252285        0.176271 
        2.47279        0.250722        0.175224 
        2.47892        0.249361        0.174185 
        2.48507        0.248283        0.173153 
         2.4912        0.247347        0.172132 
