#  k  (h/Mpc)          P(k)  (Mpc/h)^3     P_linear(k) (Mpc/h)^3
     0.00783031         16062.2         16142.9 
       0.013688         19664.1         20208.1 
       0.019231         20335.3         20677.5 
      0.0249154         19320.5         19313.9 
      0.0312784         16657.9         16881.4 
      0.0375637         14138.1         14447.8 
      0.0433917         12457.8         12579.1 
      0.0492413         10981.9         11183.5 
      0.0555754         10029.2         10137.6 
      0.0619321         8992.27         9397.24 
       0.067871         8558.16         8813.96 
      0.0738098         8045.16         8213.41 
      0.0800417         7365.59         7507.38 
      0.0862327         6595.58         6745.29 
      0.0921407         5947.54         6021.27 
      0.0982031         5390.62         5350.14 
       0.104506         4774.73         4780.93 
       0.110769         4404.01         4360.93 
       0.116806         4198.04         4076.41 
       0.122832         3952.78          3873.4 
       0.129052         3752.14         3702.89 
       0.135211         3656.15          3532.4 
       0.141259         3398.86         3339.51 
       0.147318         3157.01         3116.97 
       0.153489         2966.79         2872.99 
       0.159709         2833.99          2631.6 
       0.165845         2579.96          2418.7 
       0.171974         2499.52         2243.93 
       0.178125         2409.81         2109.15 
       0.184229         2221.48         2009.37 
        0.19034         2193.65         1931.66 
       0.196428         2134.07         1863.06 
       0.202534         2011.76         1792.01 
       0.208729         1973.86          1711.2 
       0.214876         1885.82         1621.76 
       0.220989         1792.68         1527.84 
       0.227147         1740.57         1434.79 
        0.23329         1669.53         1349.78 
       0.239377          1658.4         1277.23 
       0.245482         1579.06         1217.15 
       0.251667         1522.22         1167.59 
       0.257832          1497.4         1126.01 
       0.263955         1431.98         1088.35 
       0.270079         1395.72          1050.9 
        0.27624         1338.97         1011.36 
       0.282372         1323.86         969.742 
        0.28843            1300         927.463 
       0.294538          1241.5         885.394 
       0.300721         1218.59         845.326 
        0.30691         1188.09         809.047 
       0.313033         1143.47         777.484 
       0.319153         1131.88         749.852 
       0.325316         1117.56         725.076 
        0.33145         1092.93         702.228 
       0.337538         1057.88         680.297 
       0.343633         1034.37         658.315 
       0.349808         1015.62         635.823 
       0.355968         995.727         613.278 
       0.362074         965.586         591.324 
       0.368217         962.993         570.144 
       0.374374         948.376         550.249 
       0.380519         915.388         531.968 
       0.386598         910.796         515.354 
       0.392688          887.77          499.99 
        0.39888         870.217          485.32 
       0.405048         853.124         471.304 
       0.411186         851.188         457.714 
       0.417313         846.502         444.337 
       0.423458         821.194         431.116 
       0.429607         799.543         418.191 
       0.435692         792.894         405.814 
       0.441815         777.538         393.901 
       0.447964         769.046         382.581 
       0.454126         759.002         371.876 
       0.460267         749.706         361.789 
       0.466387          736.66         352.242 
        0.47254         725.432         343.033 
       0.478662         715.367         334.159 
       0.484765         707.823         325.548 
       0.490885         700.407         317.135 
       0.497035         687.254         308.894 
       0.503198         686.688         300.881 
       0.509342         673.816         293.175 
       0.515458         660.673         285.809 
       0.521598         659.526         278.719 
       0.527764         644.277         271.889 
       0.533884          637.78         265.383 
           0.54         633.315         259.124 
       0.546137         624.197          253.05 
       0.552299         620.819         247.129 
       0.558452         612.936         241.381 
       0.564573         609.223         235.826 
       0.570708         602.445         230.421 
       0.576825         590.523         225.195 
       0.582926         589.199         220.147 
       0.589034         580.832         215.258 
       0.595184         575.193         210.502 
       0.601379         566.707         205.875 
       0.607522         557.978         201.436 
       0.613639         557.543          197.15 
       0.619772         553.823         192.976 
       0.625918         544.587          188.91 
       0.632068         542.133         184.955 
       0.638161         535.781         181.146 
         0.6443         529.593         177.416 
       0.650464         525.706         173.777 
       0.656582         521.669         170.268 
       0.662703         516.172         166.858 
       0.668861         509.716         163.524 
       0.675024         507.564         160.284 
       0.681124         497.697         157.167 
       0.687237         497.937          154.13 
       0.693381           490.1          151.16 
       0.699536         490.458         148.263 
       0.705665          483.44         145.453 
       0.711789         482.242         142.718 
       0.717957          475.85         140.034 
        0.72409         471.698         137.434 
       0.730186         471.619         134.917 
       0.736317         464.536         132.451 
       0.742472         459.919         130.039 
       0.748622         458.548         127.691 
        0.75476         453.025         125.408 
       0.760888         450.842         123.184 
       0.767043         447.941         121.007 
       0.773185         444.346         118.887 
       0.779291         439.806          116.83 
       0.785407         436.768         114.819 
       0.791564         434.448         112.843 
       0.797719         427.799         110.914 
       0.803834         429.199         109.044 
       0.809972         422.497         107.211 
       0.816124         419.543         105.416 
       0.822261         416.876         103.668 
       0.828378         415.065         101.966 
       0.834502         408.376           100.3 
       0.840667         408.143         98.6622 
       0.846816         403.338         97.0656 
       0.852925         403.678         95.5148 
       0.859047         399.336          93.995 
       0.865192         397.137         92.5036 
       0.871341         392.459         91.0437 
       0.877463         391.505         89.6223 
       0.883569         387.857         88.2351 
       0.889708         383.951         86.8704 
       0.895864         380.067         85.5313 
       0.902008         379.264         84.2235 
       0.908149         375.723         82.9441 
       0.914301          374.44         81.6894 
       0.920448         370.387          80.462 
       0.926574         368.441         79.2644 
       0.932687         367.541          78.094 
       0.938823         363.206         76.9432 
       0.944975         362.264         75.8131 
       0.951105         359.263         74.7101 
       0.957225         354.693         73.6311 
       0.963368         355.407         72.5699 
       0.969511         350.036         71.5298 
       0.975621         348.236          70.516 
       0.981748         347.077         69.5193 
       0.987916          344.83         68.5359 
        0.99406         341.522         67.5753 
        1.00019         338.266         66.6353 
        1.00632         337.903         65.7141 
        1.01246         335.016         64.8092 
        1.01859         331.994          63.923 
        1.02471         330.166         63.0546 
        1.03085         328.984         62.1996 
        1.03698         327.074         61.3623 
        1.04314         325.101          60.537 
        1.04929         323.467          59.729 
        1.05541         320.016         58.9392 
        1.06154          318.12         58.1618 
        1.06769         315.614         57.3974 
        1.07382         313.341         56.6494 
        1.07993         312.507         55.9165 
        1.08607         310.826         55.1937 
        1.09222         307.907          54.483 
        1.09836         306.653         53.7858 
        1.10449         304.495         53.1017 
        1.11063         302.872         52.4288 
        1.11677         299.623         51.7679 
         1.1229         299.174         51.1197 
        1.12903         296.389          50.482 
        1.13518          294.66         49.8548 
        1.14131         293.381         49.2386 
        1.14745         290.498         48.6333 
        1.15359         288.309         48.0381 
        1.15973         287.081         47.4527 
        1.16584          285.41         46.8797 
        1.17197         283.841         46.3155 
        1.17811         280.919         45.7589 
        1.18424         279.971         45.2131 
        1.19038         278.537         44.6747 
        1.19652         275.718         44.1454 
        1.20267         274.911         43.6246 
        1.20881         273.222         43.1125 
        1.21495         271.684         42.6094 
        1.22108         270.015         42.1145 
         1.2272         266.779         41.6287 
        1.23334         265.894         41.1495 
        1.23949         264.453         40.6768 
        1.24562          263.12         40.2128 
        1.25174         261.721         39.7569 
        1.25789          259.17         39.3067 
        1.26402         258.634         38.8643 
        1.27014         257.288         38.4299 
        1.27628         255.338         38.0008 
        1.28244         253.191         37.5776 
        1.28858          252.38         37.1614 
        1.29471         250.722         36.7525 
        1.30084          250.21         36.3501 
        1.30697         247.294         35.9533 
        1.31312         246.107         35.5618 
        1.31925         244.811         35.1774 
        1.32537         243.875         34.7992 
        1.33151         241.701         34.4252 
        1.33765          239.97         34.0569 
        1.34378         239.261         33.6948 
        1.34992         236.874         33.3378 
        1.35606         236.005         32.9851 
         1.3622         234.133         32.6383 
        1.36833         233.767         32.2973 
        1.37445         232.665         31.9613 
        1.38059         229.837         31.6291 
        1.38675          228.57         31.3009 
        1.39288          227.95         30.9787 
        1.39901         225.735         30.6611 
        1.40515         224.867         30.3474 
         1.4113         223.436         30.0381 
        1.41742         221.733         29.7344 
        1.42355         221.086         29.4344 
         1.4297         219.656         29.1376 
        1.43585         218.472          28.845 
        1.44198         216.901         28.5576 
        1.44809         216.027         28.2747 
        1.45423         214.678         27.9945 
        1.46036         213.647         27.7188 
        1.46649         212.107         27.4466 
        1.47263         210.946         27.1779 
        1.47877           209.7          26.913 
        1.48491         208.154         26.6512 
        1.49104         206.307         26.3934 
        1.49718         205.981         26.1389 
        1.50333         204.164         25.8873 
        1.50947         203.219         25.6396 
         1.5156         202.139         25.3956 
        1.52172         200.922         25.1547 
        1.52787         199.747         24.9165 
          1.534         199.211         24.6817 
        1.54013         197.497         24.4502 
        1.54627          196.74         24.2212 
        1.55241         195.634         23.9951 
        1.55855         194.337         23.7723 
        1.56467         193.344          23.553 
         1.5708         191.781         23.3358 
        1.57695         191.133          23.121 
        1.58308         189.921         22.9094 
        1.58922         188.568         22.7004 
        1.59535         187.313          22.494 
         1.6015         186.655           22.29 
        1.60764         185.165         22.0886 
        1.61376         184.033         21.8902 
        1.61989         182.986         21.6941 
        1.62604         182.229            21.5 
        1.63218          180.96         21.3084 
        1.63831         180.378         21.1196 
        1.64444           178.8         20.9331 
        1.65059         177.937         20.7483 
        1.65673         176.899          20.566 
        1.66285         175.896         20.3864 
        1.66898         175.053         20.2089 
        1.67512          173.86         20.0332 
        1.68127          173.02         19.8594 
         1.6874         171.932         19.6881 
        1.69353         171.264         19.5189 
        1.69967         169.817         19.3513 
        1.70581         169.371         19.1858 
        1.71193         168.141         19.0228 
        1.71806         167.017         18.8614 
        1.72421         166.154         18.7016 
        1.73035         165.112         18.5438 
        1.73649         163.973         18.3878 
        1.74262         163.324         18.2338 
        1.74876         162.549         18.0814 
        1.75489         162.029         17.9312 
        1.76101         160.685         17.7826 
        1.76715         159.688         17.6356 
        1.77329         158.575         17.4901 
        1.77943         157.688         17.3461 
        1.78557         156.806          17.204 
        1.79171         156.212         17.0635 
        1.79785         154.989         16.9245 
        1.80399         154.306         16.7871 
        1.81012         153.772         16.6514 
        1.81625          152.21         16.5173 
        1.82239         151.985         16.3844 
        1.82853         150.836         16.2531 
        1.83466         149.577         16.1234 
        1.84078         149.281         15.9952 
        1.84692         148.486         15.8682 
        1.85306         147.398         15.7425 
         1.8592         146.859         15.6183 
        1.86533         145.554         15.4955 
        1.87147         144.745         15.3739 
        1.87761         144.145         15.2536 
        1.88375         143.022         15.1347 
        1.88988         142.563         15.0172 
        1.89601         141.903         14.9009 
        1.90215         141.232         14.7858 
        1.90829         139.887         14.6719 
        1.91442         139.253         14.5592 
        1.92056         138.687         14.4478 
         1.9267         137.761         14.3375 
        1.93284         136.641         14.2282 
        1.93897         136.428         14.1204 
        1.94509         135.397         14.0138 
        1.95123         134.747         13.9081 
        1.95737         134.237         13.8034 
        1.96349         133.185         13.7001 
        1.96964         132.341         13.5975 
        1.97578         131.686          13.496 
        1.98192         131.234         13.3957 
        1.98805         130.396         13.2963 
        1.99419         129.364         13.1981 
        2.00033         128.846         13.1007 
        2.00647         128.215         13.0044 
         2.0126         127.324         12.9092 
        2.01874         126.651         12.8148 
        2.02488         126.025         12.7213 
        2.03101         125.551         12.6289 
        2.03714         124.749         12.5375 
        2.04328         124.044         12.4469 
        2.04941         123.543         12.3572 
        2.05554         122.898         12.2686 
        2.06167         122.011         12.1806 
        2.06781          121.48         12.0936 
        2.07396         120.665         12.0072 
        2.08009         120.054         11.9219 
        2.08622          119.43         11.8375 
        2.09237         118.509         11.7537 
        2.09851         118.194         11.6708 
        2.10464         117.567         11.5888 
        2.11077         116.866         11.5076 
        2.11691         116.225         11.4271 
        2.12305          115.57         11.3474 
        2.12918         115.039         11.2686 
        2.13531         114.183         11.1905 
        2.14145         113.836          11.113 
         2.1476         113.108         11.0362 
        2.15372         112.355         10.9604 
        2.15985         111.827         10.8853 
        2.16599         111.105         10.8107 
        2.17213         110.586         10.7369 
        2.17827          110.08         10.6638 
         2.1844         109.418         10.5914 
        2.19054         108.935         10.5197 
        2.19666         108.087         10.4488 
         2.2028         107.681         10.3784 
        2.20893         107.249         10.3087 
        2.21508         106.392         10.2395 
        2.22122         105.724          10.171 
        2.22736         105.653         10.1032 
        2.23349         105.032          10.036 
        2.23962         104.285         9.96948 
        2.24577         103.597         9.90346 
         2.2519         103.032         9.83813 
        2.25802         102.689          9.7735 
        2.26417          101.97         9.70927 
        2.27031         101.352         9.64555 
        2.27644         100.948          9.5826 
        2.28257         100.598         9.52022 
        2.28872         99.9224         9.45828 
        2.29486         99.4741          9.3969 
        2.30099         98.7893         9.33619 
        2.30712         98.3977           9.276 
        2.31326         97.8131         9.21623 
         2.3194         97.4007         9.15704 
        2.32553         96.9271         9.09846 
        2.33166         96.4077         9.04042 
         2.3378         95.6853         8.98281 
        2.34394         95.2504         8.92568 
        2.35007         94.7072         8.86914 
        2.35619         94.1204         8.81315 
        2.36233         93.7531         8.75752 
        2.36848         93.1676         8.70226 
        2.37462         93.0159         8.64759 
        2.38075         92.2815         8.59344 
        2.38689         91.8532         8.53972 
        2.39303         91.4898         8.48646 
        2.39916          90.866         8.43372 
        2.40529         90.5369         8.38143 
        2.41143         89.8841         8.32955 
        2.41757         89.2296         8.27808 
         2.4237         88.9796         8.22715 
        2.42983         88.4117         8.17665 
        2.43598         87.9968         8.12644 
        2.44211         87.6754         8.07674 
        2.44823         87.1865         8.02757 
        2.45437         86.8759         7.97867 
        2.46052         86.2606         7.93014 
        2.46665         85.6761          7.8821 
        2.47279         85.3852         7.83448 
        2.47892         85.0138         7.78722 
        2.48507          84.625          7.7403 
         2.4912         83.9865         7.69387 
