# k  (h/Mpc)    P(k)  (Mpc/h)^3    P_linear(k)  (Mpc/h)^3
     0.00783031         375.539         378.902 
       0.013688         463.891         468.038 
       0.019231         470.361         471.966 
      0.0249154          432.12         432.291 
      0.0312784         368.411          368.35 
      0.0375637         307.725          307.73 
      0.0433917         264.242         263.484 
      0.0492413         232.493         232.271 
      0.0555754         211.218         210.441 
      0.0619321         195.183         195.859 
       0.067871         184.211           184.2 
      0.0738098         171.341         171.327 
      0.0800417         155.577         155.315 
      0.0862327         137.748         137.697 
      0.0921407         121.247         121.137 
      0.0982031         106.698         106.269 
       0.104506         94.3208         94.3001 
       0.110769         86.1906         86.1091 
       0.116806         81.4219         81.0574 
       0.122832         77.7628         77.7097 
       0.129052         74.9845         74.7866 
       0.135211          71.697         71.4138 
       0.141259         67.2512         67.1553 
       0.147318         61.9775          62.035 
       0.153489         56.5821          56.452 
       0.159709         51.3849          51.122 
       0.165845         46.6936         46.6872 
       0.171974         43.6852         43.3223 
       0.178125         41.2762          40.969 
       0.184229         39.5582         39.3853 
        0.19034         38.5023         38.1773 
       0.196428         37.2328          36.984 
       0.202534         35.5593         35.5375 
       0.208729         33.9307         33.7206 
       0.214876         31.9741         31.6485 
       0.220989         29.6556         29.5091 
       0.227147         27.8671         27.4875 
        0.23329         26.1743         25.7646 
       0.239377         24.8463          24.414 
       0.245482         23.7999         23.3916 
       0.251667         22.8944         22.6024 
       0.257832         22.3452         21.9334 
       0.263955         21.5587         21.2653 
       0.270079         20.8034         20.5145 
        0.27624         19.8732         19.6499 
       0.282372          18.958         18.7111 
        0.28843         18.1468         17.7671 
       0.294538         17.2264         16.8659 
       0.300721         16.3489         16.0591 
        0.30691         15.7743         15.3799 
       0.313033         15.1874         14.8289 
       0.319153         14.8238         14.3655 
       0.325316         14.2499         13.9465 
        0.33145         13.8225         13.5356 
       0.337538         13.4216         13.1082 
       0.343633         13.0064          12.651 
       0.349808         12.4901         12.1669 
       0.355968         12.0006         11.6821 
       0.362074         11.5996         11.2217 
       0.368217         11.1577         10.7978 
       0.374374         10.8395         10.4191 
       0.380519         10.4392         10.0877 
       0.386598         10.1169         9.79497 
       0.392688         9.82644         9.52335 
        0.39888         9.58978         9.25657 
       0.405048         9.33171         8.98922 
       0.411186         9.04991         8.71796 
       0.417313          8.7785         8.44427 
       0.423458          8.4695         8.17129 
       0.429607         8.25912         7.90744 
       0.435692         8.03039         7.66202 
       0.441815         7.76202         7.43285 
       0.447964           7.522         7.22131 
       0.454126         7.36112         7.02583 
       0.460267         7.21151          6.8422 
       0.466387          7.0107         6.66565 
        0.47254         6.85194         6.49172 
       0.478662         6.66291         6.32027 
       0.484765         6.49647         6.15012 
       0.490885         6.30698          5.9823 
       0.497035         6.12438         5.81882 
       0.503198          5.9948           5.662 
       0.509342         5.81978         5.51331 
       0.515458          5.7011         5.37347 
       0.521598          5.5701         5.24102 
       0.527764          5.4619         5.11426 
       0.533884         5.29715         4.99287 
           0.54         5.19491          4.8746 
       0.546137         5.05475         4.75856 
       0.552299         4.94986         4.64456 
       0.558452         4.83549          4.5332 
       0.564573         4.73622         4.42518 
       0.570708          4.6297         4.32034 
       0.576825         4.52796         4.21983 
       0.582926         4.42058         4.12393 
       0.589034         4.34123         4.03183 
       0.595184         4.26273         3.94247 
       0.601379         4.15616         3.85536 
       0.607522         4.06535         3.77141 
       0.613639         3.97119         3.69007 
       0.619772          3.9081         3.61068 
       0.625918         3.82662         3.53316 
       0.632068         3.75383         3.45759 
       0.638161         3.67673         3.38472 
         0.6443         3.59945         3.31343 
       0.650464         3.52606         3.24409 
       0.656582         3.47557         3.17753 
       0.662703         3.40681         3.11316 
       0.668861         3.32177         3.05041 
       0.675024         3.26359         2.98944 
       0.681124         3.23897         2.93071 
       0.687237         3.16016          2.8733 
       0.693381         3.08271         2.81697 
       0.699536         3.04903         2.76194 
       0.705665          2.9914         2.70856 
       0.711789         2.92398         2.65665 
       0.717957         2.87267         2.60581 
        0.72409          2.8256          2.5567 
       0.730186          2.7918         2.50924 
       0.736317          2.7282          2.4628 
       0.742472         2.69136         2.41739 
       0.748622         2.64865         2.37319 
        0.75476         2.58808         2.33017 
       0.760888         2.55773         2.28824 
       0.767043         2.49069         2.24715 
       0.773185         2.46097         2.20713 
       0.779291         2.43689          2.1683 
       0.785407         2.38857         2.13035 
       0.791564         2.34906         2.09309 
       0.797719         2.30914         2.05675 
       0.803834         2.27344         2.02154 
       0.809972         2.23663         1.98704 
       0.816124         2.20289          1.9533 
       0.822261         2.16989         1.92044 
       0.828378         2.13341         1.88845 
       0.834502         2.10037         1.85717 
       0.840667         2.07465          1.8264 
       0.846816         2.03828         1.79641 
       0.852925         2.00417         1.76728 
       0.859047         1.97495         1.73874 
       0.865192         1.94745         1.71073 
       0.871341         1.92123         1.68333 
       0.877463         1.88612         1.65665 
       0.883569         1.86152         1.63062 
       0.889708         1.83891         1.60502 
       0.895864         1.81218          1.5799 
       0.902008         1.78043         1.55539 
       0.908149         1.75816         1.53141 
       0.914301         1.73708          1.5079 
       0.920448         1.71419         1.48491 
       0.926574         1.69564         1.46249 
       0.932687         1.66912         1.44058 
       0.938823         1.63786         1.41905 
       0.944975         1.62259          1.3979 
       0.951105         1.59097         1.37727 
       0.957225          1.5743         1.35709 
       0.963368         1.55684         1.33725 
       0.969511         1.53817         1.31781 
       0.975621         1.51302         1.29886 
       0.981748         1.48606         1.28024 
       0.987916         1.47066         1.26187 
        0.99406          1.4565         1.24393 
        1.00019         1.43589         1.22638 
        1.00632         1.42226         1.20918 
        1.01246         1.40157         1.19229 
        1.01859         1.38461         1.17575 
        1.02471         1.36118         1.15954 
        1.03085         1.34452         1.14359 
        1.03698         1.33188         1.12797 
        1.04314         1.31514         1.11258 
        1.04929         1.30187         1.09752 
        1.05541         1.27965         1.08279 
        1.06154         1.26878         1.06831 
        1.06769         1.25496         1.05406 
        1.07382         1.23757         1.04013 
        1.07993         1.22215         1.02647 
        1.08607         1.20965         1.01301 
        1.09222          1.1921         0.99978 
        1.09836          1.1822        0.986801 
        1.10449         1.16304        0.974068 
        1.11063         1.14993        0.961547 
        1.11677         1.13981        0.949251 
         1.1229         1.12192        0.937193 
        1.12903         1.11369        0.925335 
        1.13518         1.09807        0.913673 
        1.14131         1.08796         0.90222 
        1.14745         1.07719        0.890971 
        1.15359         1.06305        0.879912 
        1.15973         1.05197        0.869037 
        1.16584         1.03865        0.858396 
        1.17197         1.02611        0.847919 
        1.17811         1.01493        0.837585 
        1.18424         1.00406        0.827454 
        1.19038        0.991729        0.817463 
        1.19652        0.984715        0.807641 
        1.20267        0.975553        0.797981 
        1.20881        0.960421        0.788482 
        1.21495        0.952174        0.779153 
        1.22108        0.942959        0.769977 
         1.2272        0.929626        0.760971 
        1.23334        0.921686        0.752089 
        1.23949        0.913573        0.743329 
        1.24562        0.903496        0.734732 
        1.25174        0.894698        0.726285 
        1.25789        0.882465        0.717946 
        1.26402        0.874324        0.709752 
        1.27014        0.863103        0.701707 
        1.27628        0.857709        0.693763 
        1.28244        0.848843        0.685927 
        1.28858        0.838032        0.678223 
        1.29471         0.82977        0.670654 
        1.30084        0.822603        0.663209 
        1.30697        0.816667        0.655866 
        1.31312        0.807499        0.648624 
        1.31925        0.799199        0.641514 
        1.32537        0.792173        0.634519 
        1.33151        0.783281        0.627603 
        1.33765        0.775862        0.620795 
        1.34378        0.767133        0.614101 
        1.34992        0.762713        0.607502 
        1.35606        0.753164        0.600986 
         1.3622        0.747056        0.594578 
        1.36833        0.740412        0.588278 
        1.37445        0.733143        0.582074 
        1.38059        0.726166         0.57594 
        1.38675        0.718963         0.56988 
        1.39288         0.71176        0.563932 
        1.39901        0.705884        0.558072 
        1.40515        0.698596        0.552282 
         1.4113        0.695087        0.546577 
        1.41742        0.686675        0.540974 
        1.42355        0.678298         0.53544 
         1.4297        0.674997        0.529966 
        1.43585        0.667316        0.524572 
        1.44198         0.66219        0.519273 
        1.44809         0.65549        0.514058 
        1.45423        0.650594        0.508896 
        1.46036        0.644571        0.503813 
        1.46649        0.638008        0.498799 
        1.47263        0.632052        0.493849 
        1.47877        0.629973        0.488968 
        1.48491        0.620306        0.484146 
        1.49104        0.618071        0.479399 
        1.49718        0.610536        0.474713 
        1.50333        0.606453        0.470082 
        1.50947        0.601985        0.465522 
         1.5156        0.596077         0.46103 
        1.52172        0.591435        0.456597 
        1.52787        0.584862        0.452214 
          1.534        0.581941        0.447893 
        1.54013        0.576495        0.443634 
        1.54627        0.571771        0.439423 
        1.55241        0.566049        0.435265 
        1.55855        0.561884        0.431168 
        1.56467        0.557343        0.427134 
         1.5708        0.552257        0.423141 
        1.57695        0.547399        0.419193 
        1.58308        0.541723        0.415305 
        1.58922        0.539247        0.411463 
        1.59535        0.533653        0.407671 
         1.6015        0.529422        0.403922 
        1.60764        0.525262        0.400222 
        1.61376        0.521036        0.396579 
        1.61989        0.516932        0.392978 
        1.62604         0.51178        0.389414 
        1.63218        0.509408        0.385897 
        1.63831        0.504279        0.382431 
        1.64444        0.500912        0.379006 
        1.65059        0.496341        0.375616 
        1.65673        0.492511        0.372271 
        1.66285        0.489189        0.368975 
        1.66898        0.485446        0.365719 
        1.67512        0.480444        0.362496 
        1.68127        0.476652        0.359309 
         1.6874        0.474175        0.356167 
        1.69353        0.469836        0.353064 
        1.69967        0.466497        0.349992 
        1.70581        0.463574        0.346957 
        1.71193        0.460108         0.34397 
        1.71806        0.456599        0.341012 
        1.72421        0.452649        0.338083 
        1.73035         0.44822        0.335191 
        1.73649        0.447107        0.332334 
        1.74262        0.441802        0.329513 
        1.74876        0.439372        0.326723 
        1.75489        0.436526        0.323971 
        1.76101        0.432393        0.321251 
        1.76715        0.429633        0.318559 
        1.77329        0.426508        0.315894 
        1.77943        0.423127        0.313259 
        1.78557        0.421391        0.310658 
        1.79171        0.418004        0.308086 
        1.79785        0.414332        0.305543 
        1.80399        0.410313        0.303029 
        1.81012        0.408586        0.300547 
        1.81625        0.406084        0.298093 
        1.82239        0.403432        0.295663 
        1.82853        0.399691        0.293262 
        1.83466        0.396683         0.29089 
        1.84078         0.39364        0.288546 
        1.84692        0.391477        0.286224 
        1.85306        0.389115        0.283926 
         1.8592        0.386009        0.281656 
        1.86533        0.383796        0.279412 
        1.87147        0.379918         0.27719 
        1.87761        0.377705        0.274991 
        1.88375        0.375353        0.272819 
        1.88988        0.372083        0.270673 
        1.89601        0.369163        0.268548 
        1.90215        0.367584        0.266445 
        1.90829        0.364296        0.264365 
        1.91442        0.362672        0.262308 
        1.92056        0.360849        0.260274 
         1.9267        0.357414         0.25826 
        1.93284        0.354696        0.256265 
        1.93897        0.352943        0.254296 
        1.94509        0.350943        0.252351 
        1.95123        0.347547        0.250422 
        1.95737        0.345532        0.248512 
        1.96349        0.343216        0.246627 
        1.96964        0.340943        0.244756 
        1.97578         0.33844        0.242903 
        1.98192        0.336908        0.241073 
        1.98805        0.334778        0.239262 
        1.99419        0.332925         0.23747 
        2.00033        0.330371        0.235695 
        2.00647         0.32826        0.233938 
         2.0126         0.32614        0.232203 
        2.01874         0.32427        0.230483 
        2.02488        0.321846        0.228778 
        2.03101        0.319622        0.227094 
        2.03714        0.318652        0.225428 
        2.04328        0.315505        0.223778 
        2.04941        0.314281        0.222145 
        2.05554        0.312193         0.22053 
        2.06167        0.310146        0.218928 
        2.06781        0.307075        0.217342 
        2.07396         0.30634         0.21577 
        2.08009        0.304006        0.214216 
        2.08622        0.302503        0.212679 
        2.09237        0.300571        0.211154 
        2.09851         0.29808        0.209644 
        2.10464        0.296691        0.208151 
        2.11077        0.294174        0.206675 
        2.11691        0.292925        0.205209 
        2.12305        0.291231        0.203758 
        2.12918        0.289205        0.202324 
        2.13531        0.287719        0.200904 
        2.14145        0.285739        0.199495 
         2.1476        0.284211        0.198097 
        2.15372        0.282733        0.196719 
        2.15985        0.280384        0.195354 
        2.16599        0.279139        0.193997 
        2.17213        0.277574        0.192655 
        2.17827        0.275525        0.191326 
         2.1844        0.274538         0.19001 
        2.19054        0.272841        0.188707 
        2.19666        0.271202        0.187417 
         2.2028        0.268832        0.186139 
        2.20893        0.267933        0.184871 
        2.21508         0.26636        0.183615 
        2.22122        0.265072        0.182369 
        2.22736        0.262677        0.181138 
        2.23349        0.260963        0.179918 
        2.23962        0.259908        0.178709 
        2.24577        0.258586         0.17751 
         2.2519        0.257271        0.176323 
        2.25802         0.25549        0.175149 
        2.26417        0.254259        0.173983 
        2.27031         0.25263        0.172826 
        2.27644        0.252074        0.171683 
        2.28257        0.249909        0.170551 
        2.28872        0.248677        0.169427 
        2.29486        0.247223        0.168313 
        2.30099        0.245707        0.167211 
        2.30712        0.244404        0.166119 
        2.31326        0.242889        0.165034 
         2.3194        0.241865         0.16396 
        2.32553        0.240398        0.162897 
        2.33166        0.239255        0.161845 
         2.3378        0.237746          0.1608 
        2.34394        0.236506        0.159763 
        2.35007         0.23513        0.158738 
        2.35619        0.233559        0.157723 
        2.36233        0.232477        0.156714 
        2.36848        0.231349        0.155712 
        2.37462        0.230462        0.154721 
        2.38075        0.229071        0.153739 
        2.38689        0.227947        0.152766 
        2.39303        0.226573          0.1518 
        2.39916        0.225228        0.150845 
        2.40529        0.224201        0.149897 
        2.41143        0.222621        0.148957 
        2.41757        0.221629        0.148024 
         2.4237        0.220506        0.147102 
        2.42983         0.21966        0.146187 
        2.43598        0.218347        0.145277 
        2.44211        0.216467        0.144377 
        2.44823        0.216219        0.143486 
        2.45437        0.215111        0.142601 
        2.46052        0.213808        0.141722 
        2.46665        0.212615        0.140852 
        2.47279         0.21144         0.13999 
        2.47892        0.210761        0.139135 
        2.48507        0.209341        0.138285 
         2.4912        0.208445        0.137445 
