# k  (h/Mpc)    P(k)  (Mpc/h)^3    P_linear(k)  (Mpc/h)^3
     0.00783031         379.618          383.27 
       0.013688         448.801         452.838 
       0.019231         436.479         437.838 
      0.0249154         384.474         384.256 
      0.0312784         313.925         313.436 
      0.0375637         253.836         253.543 
      0.0433917          214.55          213.75 
      0.0492413         188.355         188.041 
      0.0555754         171.977         171.334 
      0.0619321         159.452          159.96 
       0.067871         149.487          149.48 
      0.0738098         136.745         136.705 
      0.0800417          121.06         120.789 
      0.0862327         104.424          104.27 
      0.0921407         90.1968         90.0149 
      0.0982031         78.8633         78.4524 
       0.104506         70.2752          70.204 
       0.110769         65.3509         65.2646 
       0.116806         62.7042         62.4562 
       0.122832         60.3167         60.3015 
       0.129052         57.7755         57.6514 
       0.135211         54.2272         54.0205 
       0.141259         49.6457         49.5479 
       0.147318         44.7127         44.6926 
       0.153489         40.1897         40.0429 
       0.159709         36.4183         36.1969 
       0.165845         33.4828          33.446 
       0.171974         31.8962         31.6439 
       0.178125         30.6748         30.4849 
       0.184229          29.691         29.5939 
        0.19034         28.8131         28.6133 
       0.196428         27.5001         27.3401 
       0.202534         25.7586         25.7399 
       0.208729         24.0797         23.9187 
       0.214876         22.3664         22.1236 
       0.220989         20.6676         20.5388 
       0.227147         19.5158          19.256 
        0.23329         18.5663         18.3038 
       0.239377         17.8798         17.6158 
       0.245482         17.3143         17.0688 
       0.251667         16.7064         16.5417 
       0.257832         16.2031         15.9534 
       0.263955         15.4495         15.2709 
       0.270079          14.692         14.5101 
        0.27624         13.8693         13.7199 
       0.282372         13.1378         12.9728 
        0.28843         12.5649         12.3217 
       0.294538         12.0003         11.7736 
       0.300721         11.4972         11.3238 
        0.30691         11.1791         10.9485 
       0.313033         10.8218         10.6144 
       0.319153         10.5526         10.2818 
       0.325316         10.1021          9.9283 
        0.33145         9.71973         9.55195 
       0.337538         9.35336         9.16571 
       0.343633          9.0027         8.78332 
       0.349808         8.61816          8.4192 
       0.355968         8.28327         8.09222 
       0.362074         8.03279         7.80667 
       0.368217         7.76467         7.55458 
       0.374374         7.56949         7.32568 
       0.380519         7.31102          7.1098 
       0.386598         7.08016         6.89893 
       0.392688         6.85278          6.6845 
        0.39888         6.65538          6.4642 
       0.405048          6.4446         6.24532 
       0.411186         6.22667         6.03388 
       0.417313         6.02931         5.83481 
       0.423458         5.81936         5.64953 
       0.429607         5.68146         5.47899 
       0.435692         5.53377         5.32345 
       0.441815         5.36236         5.17615 
       0.447964         5.19962         5.03383 
       0.454126         5.08226         4.89458 
       0.460267         4.96474          4.7576 
       0.466387          4.8172         4.62249 
        0.47254          4.6945         4.48968 
       0.478662         4.55653         4.36225 
       0.484765          4.4381         4.24093 
       0.490885         4.30758         4.12545 
       0.497035         4.18406         4.01594 
       0.503198         4.09899          3.9121 
       0.509342         3.98067         3.81303 
       0.515458         3.89734         3.71762 
       0.521598         3.80588         3.62437 
       0.527764         3.72677         3.53311 
       0.533884         3.61001         3.44474 
           0.54         3.53537         3.35873 
       0.546137         3.43812         3.27514 
       0.552299         3.36275         3.19436 
       0.558452         3.28265         3.11717 
       0.564573         3.21314         3.04355 
       0.570708         3.14179         2.97254 
       0.576825          3.0727         2.90414 
       0.582926         2.99806         2.83801 
       0.589034         2.94306         2.77376 
       0.595184         2.88626         2.71091 
       0.601379         2.81292         2.64937 
       0.607522         2.74813         2.59002 
       0.613639         2.68412         2.53265 
       0.619772         2.63862         2.47689 
       0.625918         2.58228         2.42285 
       0.632068         2.53055         2.37062 
       0.638161         2.47763         2.32058 
         0.6443         2.42457         2.27173 
       0.650464         2.37673         2.22412 
       0.656582         2.33887         2.17816 
       0.662703         2.29036         2.13338 
       0.668861         2.23357         2.08954 
       0.675024         2.19268         2.04685 
       0.681124         2.17234         2.00579 
       0.687237         2.11922         1.96581 
       0.693381         2.06782          1.9268 
       0.699536         2.04223         1.88883 
       0.705665         2.00324         1.85209 
       0.711789         1.95759         1.81638 
       0.717957         1.92326         1.78137 
        0.72409         1.88962         1.74747 
       0.730186          1.8657         1.71465 
       0.736317         1.82208         1.68248 
       0.742472         1.79645         1.65101 
       0.748622           1.767         1.62038 
        0.75476         1.72689          1.5906 
       0.760888         1.70453         1.56162 
       0.767043         1.65963         1.53327 
       0.773185         1.63883         1.50569 
       0.779291         1.62136         1.47897 
       0.785407         1.58887         1.45286 
       0.791564         1.56099         1.42723 
       0.797719         1.53437         1.40223 
       0.803834         1.50967         1.37799 
       0.809972         1.48483         1.35424 
       0.816124         1.46133           1.331 
       0.822261          1.4389         1.30837 
       0.828378         1.41454         1.28633 
       0.834502         1.39107         1.26479 
       0.840667         1.37321          1.2436 
       0.846816         1.34876         1.22296 
       0.852925         1.32543         1.20293 
       0.859047         1.30549          1.1833 
       0.865192          1.2868         1.16405 
       0.871341         1.26928         1.14522 
       0.877463         1.24481          1.1269 
       0.883569         1.22824         1.10903 
       0.889708         1.21276         1.09145 
       0.895864         1.19457         1.07422 
       0.902008         1.17312          1.0574 
       0.908149         1.15805         1.04094 
       0.914301         1.14331         1.02482 
       0.920448         1.12802         1.00905 
       0.926574         1.11445        0.993679 
       0.932687         1.09723        0.978658 
       0.938823         1.07607        0.963895 
       0.944975         1.06526        0.949406 
       0.951105         1.04419        0.935268 
       0.957225         1.03272        0.921445 
       0.963368         1.02055        0.907856 
       0.969511         1.00785        0.894542 
       0.975621        0.990755        0.881569 
       0.981748        0.973279        0.868821 
       0.987916        0.962679        0.856247 
        0.99406        0.952464         0.84397 
        1.00019        0.938584         0.83196 
        1.00632        0.929341        0.820196 
        1.01246        0.915881        0.808644 
        1.01859         0.90443        0.797333 
        1.02471        0.888873        0.786255 
        1.03085        0.876891         0.77535 
        1.03698        0.868535        0.764676 
        1.04314        0.856708        0.754158 
        1.04929        0.848302        0.743864 
        1.05541        0.833537        0.733804 
        1.06154        0.825564        0.723907 
        1.06769        0.815987        0.714178 
        1.07382        0.804782         0.70466 
        1.07993        0.794746        0.695339 
        1.08607        0.785887        0.686149 
        1.09222        0.774476        0.677117 
        1.09836         0.76698        0.668258 
        1.10449        0.754956         0.65957 
        1.11063        0.745946        0.651027 
        1.11677        0.738861        0.642639 
         1.1229        0.727174        0.634414 
        1.12903        0.721225        0.626327 
        1.13518        0.711409        0.618375 
        1.14131        0.704357        0.610566 
        1.14745         0.69759        0.602897 
        1.15359        0.687677        0.595359 
        1.15973        0.680478        0.587948 
        1.16584        0.671645        0.580696 
        1.17197        0.663115        0.573557 
        1.17811         0.65534        0.566517 
        1.18424        0.648319        0.559616 
        1.19038        0.639944        0.552811 
        1.19652        0.635028        0.546122 
        1.20267        0.628873        0.539545 
        1.20881        0.618649        0.533077 
        1.21495        0.613247        0.526727 
        1.22108        0.607019        0.520481 
         1.2272        0.598575        0.514351 
        1.23334        0.592914        0.508307 
        1.23949         0.58751        0.502346 
        1.24562        0.580748        0.496498 
        1.25174        0.575019        0.490752 
        1.25789        0.566737        0.485079 
        1.26402        0.561921        0.479507 
        1.27014        0.554079        0.474036 
        1.27628        0.550326        0.468635 
        1.28244        0.544226        0.463308 
        1.28858        0.537249         0.45807 
        1.29471        0.532048        0.452926 
        1.30084        0.526938        0.447865 
        1.30697        0.523002        0.442875 
        1.31312        0.517031        0.437954 
        1.31925        0.511317        0.433123 
        1.32537        0.506468         0.42837 
        1.33151        0.500829        0.423671 
        1.33765        0.495843        0.419047 
        1.34378        0.490174          0.4145 
        1.34992        0.487093        0.410018 
        1.35606         0.48079        0.405594 
         1.3622        0.476701        0.401242 
        1.36833        0.472614        0.396965 
        1.37445        0.467729        0.392753 
        1.38059        0.463095        0.388589 
        1.38675        0.458072        0.384476 
        1.39288        0.453119        0.380439 
        1.39901         0.44958        0.376462 
        1.40515        0.444852        0.372534 
         1.4113        0.442163        0.368663 
        1.41742        0.437149        0.364862 
        1.42355        0.431245        0.361107 
         1.4297        0.429099        0.357395 
        1.43585        0.423991        0.353736 
        1.44198        0.420835        0.350143 
        1.44809        0.416199        0.346606 
        1.45423        0.412827        0.343106 
        1.46036        0.408871         0.33966 
        1.46649        0.404907        0.336261 
        1.47263        0.400457        0.332905 
        1.47877        0.399273        0.329597 
        1.48491        0.393032        0.326329 
        1.49104        0.391644        0.323112 
        1.49718        0.386686        0.319936 
        1.50333        0.383901        0.316798 
        1.50947        0.380786        0.313708 
         1.5156        0.377005        0.310664 
        1.52172        0.373895        0.307661 
        1.52787        0.369571        0.304692 
          1.534        0.367487        0.301765 
        1.54013        0.364043         0.29888 
        1.54627        0.361132        0.296028 
        1.55241        0.357684        0.293212 
        1.55855        0.354577        0.290438 
        1.56467        0.351793        0.287707 
         1.5708        0.348305        0.285003 
        1.57695        0.345253         0.28233 
        1.58308        0.341493        0.279698 
        1.58922        0.339748        0.277097 
        1.59535        0.336219        0.274531 
         1.6015        0.333647        0.271994 
        1.60764        0.330585         0.26949 
        1.61376        0.327932        0.267024 
        1.61989        0.325144        0.264588 
        1.62604        0.321991        0.262176 
        1.63218        0.320268        0.259796 
        1.63831        0.317013        0.257452 
        1.64444        0.314918        0.255135 
        1.65059        0.311628        0.252842 
        1.65673        0.309265        0.250579 
        1.66285        0.307064         0.24835 
        1.66898        0.304508        0.246148 
        1.67512        0.301547        0.243968 
        1.68127        0.299081        0.241813 
         1.6874        0.297203        0.239689 
        1.69353        0.294463        0.237591 
        1.69967        0.292181        0.235514 
        1.70581        0.290326        0.233462 
        1.71193         0.28819        0.231443 
        1.71806        0.285733        0.229443 
        1.72421        0.283169        0.227463 
        1.73035        0.280616        0.225509 
        1.73649        0.279379        0.223578 
        1.74262        0.276262        0.221671 
        1.74876        0.274714        0.219786 
        1.75489        0.272771        0.217926 
        1.76101        0.270283        0.216088 
        1.76715         0.26838        0.214269 
        1.77329        0.266181        0.212469 
        1.77943        0.264006        0.210689 
        1.78557        0.262754        0.208931 
        1.79171        0.260698        0.207194 
        1.79785        0.258262        0.205476 
        1.80399        0.255742        0.203778 
        1.81012        0.254683        0.202101 
        1.81625         0.25307        0.200444 
        1.82239        0.251451        0.198804 
        1.82853        0.248748        0.197182 
        1.83466         0.24692         0.19558 
        1.84078        0.245145        0.193998 
        1.84692        0.243529         0.19243 
        1.85306         0.24194        0.190878 
         1.8592        0.240128        0.189346 
        1.86533        0.238625        0.187831 
        1.87147        0.236234        0.186331 
        1.87761        0.234676        0.184847 
        1.88375        0.233068        0.183381 
        1.88988        0.231033        0.181933 
        1.89601        0.229144        0.180499 
        1.90215        0.228055        0.179079 
        1.90829        0.225997        0.177676 
        1.91442        0.225056        0.176288 
        1.92056        0.223677        0.174915 
         1.9267        0.221649        0.173556 
        1.93284        0.219803        0.172211 
        1.93897        0.218571        0.170882 
        1.94509        0.217319         0.16957 
        1.95123        0.215196        0.168269 
        1.95737        0.213919        0.166981 
        1.96349        0.212405        0.165709 
        1.96964        0.210906        0.164447 
        1.97578        0.209347        0.163197 
        1.98192        0.208428        0.161963 
        1.98805         0.20693        0.160742 
        1.99419        0.205833        0.159533 
        2.00033        0.204037        0.158336 
        2.00647        0.202806        0.157152 
         2.0126        0.201421        0.155982 
        2.01874         0.20012        0.154822 
        2.02488        0.198763        0.153672 
        2.03101        0.197199        0.152537 
        2.03714        0.196682        0.151414 
        2.04328        0.194602        0.150301 
        2.04941        0.193851          0.1492 
        2.05554        0.192466        0.148111 
        2.06167        0.191099        0.147032 
        2.06781        0.189327        0.145963 
        2.07396        0.188738        0.144903 
        2.08009        0.187262        0.143856 
        2.08622        0.186275         0.14282 
        2.09237        0.185058        0.141793 
        2.09851        0.183507        0.140775 
        2.10464        0.182574        0.139769 
        2.11077        0.181077        0.138774 
        2.11691        0.180195        0.137786 
        2.12305        0.178983        0.136809 
        2.12918        0.177693        0.135843 
        2.13531        0.176751        0.134886 
        2.14145        0.175548        0.133936 
         2.1476        0.174529        0.132994 
        2.15372        0.173722        0.132066 
        2.15985        0.172164        0.131147 
        2.16599        0.171216        0.130233 
        2.17213         0.17035        0.129329 
        2.17827        0.169143        0.128433 
         2.1844        0.168349        0.127547 
        2.19054        0.167267        0.126669 
        2.19666        0.166242        0.125801 
         2.2028        0.164709         0.12494 
        2.20893        0.164086        0.124086 
        2.21508        0.163189         0.12324 
        2.22122        0.162299        0.122401 
        2.22736        0.160925        0.121572 
        2.23349        0.159841        0.120751 
        2.23962        0.159093        0.119937 
        2.24577        0.158286        0.119129 
         2.2519        0.157341        0.118331 
        2.25802         0.15625         0.11754 
        2.26417        0.155584        0.116755 
        2.27031        0.154497        0.115977 
        2.27644        0.154104        0.115207 
        2.28257        0.152741        0.114445 
        2.28872        0.151927        0.113688 
        2.29486        0.151075        0.112938 
        2.30099        0.149974        0.112197 
        2.30712        0.149226        0.111462 
        2.31326        0.148221        0.110732 
         2.3194        0.147543        0.110009 
        2.32553        0.146685        0.109294 
        2.33166        0.145854        0.108585 
         2.3378        0.144997        0.107882 
        2.34394        0.144172        0.107185 
        2.35007        0.143349        0.106495 
        2.35619        0.142515        0.105812 
        2.36233        0.141744        0.105133 
        2.36848        0.140909        0.104459 
        2.37462        0.140403        0.103792 
        2.38075        0.139523        0.103132 
        2.38689        0.138753        0.102476 
        2.39303        0.137952        0.101827 
        2.39916        0.137105        0.101184 
        2.40529        0.136312        0.100547 
        2.41143        0.135393       0.0999141 
        2.41757        0.134795       0.0992869 
         2.4237        0.134049       0.0986662 
        2.42983        0.133498       0.0980508 
        2.43598        0.132653       0.0974391 
        2.44211        0.131525       0.0968337 
        2.44823        0.131326       0.0962347 
        2.45437        0.130584       0.0956391 
        2.46052        0.129773       0.0950481 
        2.46665        0.129114       0.0944632 
        2.47279         0.12833       0.0938833 
        2.47892         0.12795        0.093308 
        2.48507        0.126902       0.0927369 
         2.4912        0.126404       0.0921717 
