# k  (h/Mpc)    Pcb(k)  (Mpc/h)^3    Pcb_linear(k)  (Mpc/h)^3
     0.00783031         197.796         199.606 
       0.013688         244.519         245.571 
       0.019231          244.94         245.194 
      0.0249154         221.127         221.814 
      0.0312784         186.943         186.842 
      0.0375637         155.933         155.529 
      0.0433917         134.084         133.918 
      0.0492413         119.691         119.452 
      0.0555754         109.481          109.58 
      0.0619321         102.659         102.439 
       0.067871         95.5766         95.7259 
      0.0738098         87.5523         87.7046 
      0.0800417         77.7657         77.9491 
      0.0862327         67.9947           67.99 
      0.0921407         59.5406         59.4683 
      0.0982031         52.5985         52.5677 
       0.104506         47.7946          47.607 
       0.110769         44.6724         44.5425 
       0.116806         42.6294         42.6533 
       0.122832         41.0918         41.0535 
       0.129052         39.0098         39.0762 
       0.135211         36.4403          36.509 
       0.141259         33.5261         33.5016 
       0.147318         30.4622         30.3565 
       0.153489          27.499         27.4274 
       0.159709         25.1325         25.0528 
       0.165845         23.5348         23.3704 
       0.171974         22.3054         22.2525 
       0.178125         21.5449         21.4822 
       0.184229         20.8956         20.8178 
        0.19034         20.0416         20.0483 
       0.196428         19.1217         19.0769 
       0.202534         18.0355         17.9154 
       0.208729         16.7354         16.6549 
       0.214876          15.516         15.4623 
       0.220989         14.5661         14.4446 
       0.227147         13.6993         13.6407 
        0.23329         13.1032         13.0474 
       0.239377         12.6687         12.6052 
       0.245482         12.2546         12.2253 
       0.251667         11.9051         11.8288 
       0.257832         11.4296         11.3749 
       0.263955         10.9267         10.8578 
       0.270079         10.3766         10.3012 
        0.27624         9.85674          9.7462 
       0.282372         9.35291         9.24058 
        0.28843         8.89921         8.81389 
       0.294538         8.54746         8.46091 
       0.300721         8.28236         8.16974 
        0.30691         7.99421         7.91753 
       0.313033         7.75941         7.67965 
       0.319153         7.46947         7.43183 
       0.325316         7.26189         7.16413 
        0.33145         6.97249         6.88207 
       0.337538         6.68794         6.59977 
       0.343633         6.40437         6.32849 
       0.349808         6.16957         6.07809 
       0.355968          5.9503         5.85771 
       0.362074         5.75155         5.66736 
       0.368217         5.58287         5.49712 
       0.374374         5.40583           5.338 
       0.380519         5.26482         5.18285 
       0.386598         5.11584         5.02679 
       0.392688         4.96513         4.86703 
        0.39888         4.79435         4.70372 
       0.405048         4.63742         4.54399 
       0.411186         4.48987         4.39311 
       0.417313         4.34038         4.25369 
       0.423458         4.22032         4.12541 
       0.429607         4.09148         4.00787 
       0.435692         3.98174         3.89953 
       0.441815         3.87843         3.79491 
       0.447964         3.78845         3.69196 
       0.454126         3.67046         3.58988 
       0.460267         3.57036         3.48866 
       0.466387         3.46429         3.38928 
        0.47254         3.37308         3.29261 
       0.478662         3.28614         3.20098 
       0.484765         3.19131         3.11454 
       0.490885         3.11185         3.03283 
       0.497035         3.05002          2.9554 
       0.503198         2.96613         2.88151 
       0.509342         2.89762         2.81026 
       0.515458         2.82302         2.74087 
       0.521598         2.75585         2.67264 
       0.527764          2.6812         2.60571 
       0.533884         2.62777         2.54097 
           0.54         2.56099         2.47825 
       0.546137          2.5027         2.41763 
       0.552299         2.44357          2.3594 
       0.558452         2.38069         2.30394 
       0.564573          2.3328         2.25099 
       0.570708         2.28056         2.19974 
       0.576825         2.22609         2.15009 
       0.582926         2.18349         2.10185 
       0.589034         2.12425         2.05482 
       0.595184         2.08156         2.00878 
       0.601379         2.03569         1.96374 
       0.607522         1.99788          1.9204 
       0.613639         1.96123         1.87857 
       0.619772         1.91007         1.83798 
       0.625918         1.87475         1.79866 
       0.632068         1.84043         1.76065 
       0.638161         1.79869          1.7242 
         0.6443          1.7619         1.68856 
       0.650464         1.72254         1.65377 
       0.656582         1.69347         1.62013 
       0.662703         1.66038         1.58731 
       0.668861         1.63259         1.55515 
       0.675024         1.59661         1.52383 
       0.681124         1.56201          1.4937 
       0.687237         1.53753         1.46438 
       0.693381         1.50906         1.43578 
       0.699536          1.4723         1.40796 
       0.705665          1.4472         1.38104 
       0.711789         1.42362         1.35486 
       0.717957         1.39461         1.32918 
        0.72409         1.37035          1.3043 
       0.730186         1.34439         1.28018 
       0.736317         1.32721         1.25652 
       0.742472         1.30189         1.23336 
       0.748622         1.27652         1.21081 
        0.75476         1.25172         1.18887 
       0.760888         1.22938         1.16751 
       0.767043         1.21518         1.14662 
       0.773185         1.18951         1.12629 
       0.779291         1.17022         1.10659 
       0.785407         1.15069         1.08733 
       0.791564         1.13249         1.06843 
       0.797719         1.11531         1.04999 
       0.803834         1.09744          1.0321 
       0.809972         1.07837         1.01457 
       0.816124         1.05931        0.997415 
       0.822261         1.04039        0.980699 
       0.828378         1.02603         0.96442 
       0.834502         1.01217        0.948498 
       0.840667        0.991414        0.932835 
       0.846816        0.976428        0.917573 
       0.852925        0.965178        0.902752 
       0.859047        0.949859        0.888231 
       0.865192        0.933187        0.873984 
       0.871341        0.919312        0.860044 
       0.877463        0.908103        0.846475 
       0.883569        0.891805        0.833235 
       0.889708        0.878371        0.820214 
       0.895864        0.865368        0.807441 
       0.902008        0.851208        0.794968 
       0.908149        0.839321        0.782769 
       0.914301        0.823399        0.770808 
       0.920448         0.81318         0.75911 
       0.926574        0.800996        0.747698 
       0.932687        0.789191        0.736547 
       0.938823        0.781437        0.725585 
       0.944975        0.769257        0.714822 
       0.951105         0.75903        0.704318 
       0.957225        0.750103        0.694045 
       0.963368        0.738654        0.683943 
       0.969511        0.727004        0.674043 
       0.975621        0.715786        0.664394 
       0.981748        0.709159        0.654911 
       0.987916        0.698338        0.645554 
        0.99406        0.687922        0.636416 
        1.00019        0.680925        0.627474 
        1.00632        0.668924        0.618714 
        1.01246        0.660285        0.610109 
        1.01859         0.65284        0.601683 
        1.02471        0.643419        0.593428 
        1.03085        0.637335          0.5853 
        1.03698        0.627194        0.577343 
        1.04314        0.619778        0.569501 
        1.04929        0.610626        0.561824 
        1.05541         0.60426        0.554321 
        1.06154        0.595449        0.546937 
        1.06769        0.587385        0.539678 
        1.07382        0.580699        0.532575 
        1.07993        0.572108        0.525617 
        1.08607        0.567697        0.518756 
        1.09222        0.558934        0.512011 
        1.09836        0.554295        0.505395 
        1.10449        0.547032        0.498905 
        1.11063        0.538718        0.492522 
        1.11677        0.531228        0.486254 
         1.1229        0.526115        0.480106 
        1.12903        0.519012        0.474061 
        1.13518        0.514018        0.468115 
        1.14131        0.507124        0.462275 
        1.14745        0.498693        0.456538 
        1.15359        0.494899        0.450899 
        1.15973        0.487531        0.445353 
        1.16584        0.484307        0.439926 
        1.17197        0.478073        0.434582 
        1.17811        0.473111        0.429311 
        1.18424        0.468664        0.424143 
        1.19038        0.461866        0.419046 
        1.19652        0.455487        0.414035 
        1.20267        0.452307        0.409106 
        1.20881        0.446145        0.404259 
        1.21495        0.442396        0.399498 
        1.22108        0.437013        0.394815 
         1.2272        0.432738        0.390219 
        1.23334        0.427262        0.385685 
        1.23949         0.42271        0.381214 
        1.24562        0.418182        0.376826 
        1.25174        0.413978        0.372514 
        1.25789        0.409916        0.368256 
        1.26402        0.404002        0.364074 
        1.27014        0.400158        0.359966 
        1.27628        0.396989        0.355911 
        1.28244        0.390859         0.35191 
        1.28858        0.387577        0.347977 
        1.29471        0.384521        0.344112 
        1.30084        0.379609        0.340311 
        1.30697        0.375574        0.336561 
        1.31312        0.370399        0.332863 
        1.31925        0.367294        0.329232 
        1.32537        0.364216         0.32566 
        1.33151        0.361051        0.322128 
        1.33765        0.357077        0.318651 
        1.34378        0.352378        0.315232 
        1.34992        0.349555        0.311861 
        1.35606         0.34582        0.308533 
         1.3622        0.342409         0.30526 
        1.36833        0.338804        0.302042 
        1.37445        0.334515        0.298872 
        1.38059        0.331607        0.295738 
        1.38675        0.330058        0.292642 
        1.39288        0.325901        0.289603 
        1.39901        0.322897        0.286608 
        1.40515        0.320024        0.283649 
         1.4113        0.316131        0.280733 
        1.41742        0.313209         0.27787 
        1.42355        0.311195        0.275041 
         1.4297         0.30716        0.272243 
        1.43585        0.304613        0.269486 
        1.44198        0.302586        0.266777 
        1.44809         0.29891        0.264111 
        1.45423        0.296196        0.261472 
        1.46036        0.293379        0.258874 
        1.46649        0.291195         0.25631 
        1.47263        0.288109        0.253779 
        1.47877        0.284803        0.251283 
        1.48491        0.282697        0.248818 
        1.49104        0.279416         0.24639 
        1.49718        0.277181        0.243994 
        1.50333        0.275273        0.241625 
        1.50947        0.272453        0.239293 
         1.5156        0.269699        0.236996 
        1.52172         0.26756        0.234728 
        1.52787        0.265007        0.232486 
          1.534        0.262566        0.230276 
        1.54013        0.260039        0.228097 
        1.54627        0.258301        0.225943 
        1.55241        0.255524        0.223816 
        1.55855         0.25297         0.22172 
        1.56467        0.252002        0.219656 
         1.5708        0.249013        0.217613 
        1.57695        0.246967        0.215593 
        1.58308        0.244724        0.213603 
        1.58922        0.242823        0.211638 
        1.59535        0.240541        0.209697 
         1.6015        0.238388        0.207779 
        1.60764        0.236629        0.205885 
        1.61376        0.233946        0.204021 
        1.61989        0.232359        0.202178 
        1.62604        0.230554        0.200354 
        1.63218        0.228801        0.198553 
        1.63831        0.226914        0.196779 
        1.64444        0.224942        0.195026 
        1.65059        0.223033         0.19329 
        1.65673        0.221235        0.191577 
        1.66285        0.219693         0.18989 
        1.66898        0.217905        0.188223 
        1.67512        0.215599        0.186573 
        1.68127        0.213738        0.184941 
         1.6874        0.212631        0.183332 
        1.69353        0.210304        0.181743 
        1.69967        0.209204         0.18017 
        1.70581        0.206987        0.178616 
        1.71193        0.205499        0.177086 
        1.71806        0.203607        0.175571 
        1.72421        0.202497         0.17407 
        1.73035        0.200472        0.172589 
        1.73649        0.199267        0.171126 
        1.74262        0.197565        0.169681 
        1.74876        0.195886        0.168251 
        1.75489        0.194583        0.166841 
        1.76101        0.192729        0.165448 
        1.76715        0.191314        0.164068 
        1.77329        0.189603        0.162703 
        1.77943        0.188236        0.161353 
        1.78557        0.187181         0.16002 
        1.79171        0.185727        0.158702 
        1.79785        0.184148        0.157399 
        1.80399        0.182748        0.156111 
        1.81012        0.181453        0.154838 
        1.81625        0.180023        0.153581 
        1.82239        0.178792        0.152336 
        1.82853        0.177071        0.151105 
        1.83466        0.175959        0.149889 
        1.84078        0.174593        0.148688 
        1.84692        0.173239        0.147498 
        1.85306        0.172292        0.146319 
         1.8592        0.170671        0.145156 
        1.86533        0.169768        0.144005 
        1.87147        0.168418        0.142866 
        1.87761        0.167343        0.141739 
        1.88375        0.165795        0.140625 
        1.88988        0.164711        0.139525 
        1.89601        0.163331        0.138435 
        1.90215        0.162388        0.137357 
        1.90829        0.160948         0.13629 
        1.91442         0.16024        0.135235 
        1.92056         0.15881        0.134192 
         1.9267        0.157557        0.133159 
        1.93284        0.156487        0.132136 
        1.93897        0.155316        0.131126 
        1.94509        0.154557        0.130128 
        1.95123        0.153288        0.129139 
        1.95737        0.152415        0.128159 
        1.96349        0.151148        0.127192 
        1.96964         0.14999        0.126232 
        1.97578        0.148973        0.125282 
        1.98192        0.148126        0.124343 
        1.98805        0.147304        0.123414 
        1.99419        0.145873        0.122494 
        2.00033        0.144858        0.121583 
        2.00647        0.144319        0.120682 
         2.0126        0.142942        0.119792 
        2.01874        0.142221        0.118909 
        2.02488        0.141179        0.118034 
        2.03101        0.140238         0.11717 
        2.03714        0.139166        0.116315 
        2.04328        0.138474        0.115468 
        2.04941        0.137292         0.11463 
        2.05554        0.136568        0.113801 
        2.06167        0.135839        0.112979 
        2.06781        0.134605        0.112165 
        2.07396        0.133756        0.111358 
        2.08009        0.132904         0.11056 
        2.08622        0.132172        0.109771 
        2.09237        0.131318        0.108988 
        2.09851        0.130499        0.108213 
        2.10464        0.129662        0.107446 
        2.11077        0.128642        0.106688 
        2.11691        0.127917        0.105936 
        2.12305         0.12707        0.105191 
        2.12918        0.126398        0.104455 
        2.13531        0.125338        0.103725 
        2.14145        0.124459        0.103001 
         2.1476        0.123835        0.102284 
        2.15372         0.12328        0.101576 
        2.15985        0.122262        0.100875 
        2.16599        0.121413        0.100178 
        2.17213        0.120793       0.0994887 
        2.17827         0.11989       0.0988059 
         2.1844        0.119365       0.0981302 
        2.19054         0.11851       0.0974606 
        2.19666        0.117522       0.0967982 
         2.2028        0.117063       0.0961414 
        2.20893        0.116521       0.0954904 
        2.21508        0.115469       0.0948447 
        2.22122        0.114734       0.0942047 
        2.22736        0.114333        0.093572 
        2.23349        0.113443       0.0929453 
        2.23962         0.11291        0.092324 
        2.24577        0.112064       0.0917079 
         2.2519        0.111538       0.0910982 
        2.25802        0.110718       0.0904951 
        2.26417         0.11016       0.0898958 
        2.27031        0.109422       0.0893014 
        2.27644        0.108788        0.088714 
        2.28257        0.108134       0.0881321 
        2.28872        0.107502       0.0875542 
        2.29486        0.107044       0.0869817 
        2.30099        0.106161       0.0864154 
        2.30712        0.105645       0.0858539 
        2.31326        0.104802       0.0852965 
         2.3194        0.104679       0.0847444 
        2.32553        0.103923       0.0841981 
        2.33166        0.103424       0.0836569 
         2.3378        0.102724       0.0831196 
        2.34394        0.102032        0.082587 
        2.35007        0.101467       0.0820598 
        2.35619        0.100737       0.0815378 
        2.36233        0.100236       0.0810191 
        2.36848       0.0998396       0.0805039 
        2.37462       0.0990305       0.0799943 
        2.38075       0.0987202       0.0794896 
        2.38689       0.0981138       0.0789888 
        2.39303       0.0977173       0.0784924 
        2.39916        0.096875       0.0780009 
        2.40529       0.0964612       0.0775136 
        2.41143        0.095867       0.0770301 
        2.41757       0.0953371       0.0765505 
         2.4237       0.0949759       0.0760759 
        2.42983       0.0942857       0.0756054 
        2.43598        0.093987       0.0751376 
        2.44211       0.0932893       0.0746746 
        2.44823       0.0929823       0.0742165 
        2.45437       0.0921944        0.073761 
        2.46052       0.0918466       0.0733089 
        2.46665       0.0912318       0.0728615 
        2.47279        0.090729       0.0724179 
        2.47892       0.0901201       0.0719777 
        2.48507       0.0896346       0.0715408 
         2.4912       0.0892943       0.0711084 
