#  k  (h/Mpc)          P(k)  (Mpc/h)^3     P_linear(k) (Mpc/h)^3
     0.00783031         8657.62          8719.9 
       0.013688         9534.86         9718.99 
       0.019231         8922.09         9007.74 
      0.0249154         7652.39         7609.74 
      0.0312784         5960.88         5962.88 
      0.0375637         4626.68         4647.17 
      0.0433917         3822.27         3803.33 
      0.0492413          3274.6         3274.13 
      0.0555754         2970.52         2945.44 
      0.0619321         2697.86         2739.63 
       0.067871         2554.79         2561.39 
      0.0738098         2346.37         2342.84 
      0.0800417         2077.18         2062.32 
      0.0862327         1771.85         1762.65 
      0.0921407         1518.88         1498.17 
      0.0982031         1318.54         1279.88 
       0.104506         1143.25         1122.28 
       0.110769          1054.3         1028.54 
       0.116806         1014.29          979.11 
       0.122832         968.829         947.636 
       0.129052         932.348          912.61 
       0.135211         891.788         861.776 
       0.141259         815.321         793.821 
       0.147318         733.443         714.828 
       0.153489          661.54         634.801 
       0.159709         605.387          565.36 
       0.165845         543.452           513.7 
       0.171974         523.861         479.204 
       0.178125         500.167         458.027 
       0.184229         474.037         444.406 
        0.19034         465.194         431.946 
       0.196428         449.391         416.018 
       0.202534         416.493         394.505 
       0.208729          401.87         367.881 
       0.214876         377.409         339.558 
       0.220989         346.226          312.85 
       0.227147         331.637         290.001 
        0.23329          314.75           272.4 
       0.239377         306.551         259.758 
       0.245482         291.209         250.538 
       0.251667         279.845         242.894 
       0.257832          276.52         235.212 
       0.263955         260.802         226.392 
       0.270079         249.082         216.089 
        0.27624         237.581         204.654 
       0.282372         228.893         193.105 
        0.28843         224.451         182.418 
       0.294538          212.04         173.022 
       0.300721         203.273         165.167 
        0.30691         199.241         158.796 
       0.313033         189.974         153.533 
       0.319153         186.636          148.75 
       0.325316           181.1         143.949 
        0.33145         175.268         138.893 
       0.337538         168.479         133.556 
       0.343633         162.976         128.035 
       0.349808         157.419         122.513 
       0.355968         153.281         117.335 
       0.362074         148.798         112.688 
       0.368217         145.671         108.574 
       0.374374         141.544         104.935 
       0.380519         135.531         101.662 
       0.386598         132.921         98.6209 
       0.392688         128.578         95.6273 
        0.39888         126.171         92.5733 
       0.405048         122.907         89.4979 
       0.411186         120.792         86.4443 
       0.417313          117.71         83.4798 
       0.423458         114.486          80.651 
       0.429607         111.439         78.0095 
       0.435692         109.673         75.6027 
       0.441815         106.453         73.3617 
       0.447964         103.169         71.2532 
       0.454126         101.254         69.2427 
       0.460267         100.167         67.2988 
       0.466387         97.3533         65.3923 
        0.47254         96.2144         63.5053 
       0.478662         92.8721         61.6694 
       0.484765          91.297         59.8925 
       0.490885         89.1389         58.1803 
       0.497035         88.2209         56.5449 
       0.503198         86.4863          54.997 
       0.509342          84.184         53.5324 
       0.515458         82.7039         52.1409 
       0.521598          80.511         50.7995 
       0.527764         79.7112         49.4979 
       0.533884         78.9733         48.2406 
           0.54         76.7281         47.0141 
       0.546137          74.877         45.8154 
       0.552299         73.4491         44.6499 
       0.558452          72.157         43.5286 
       0.564573         71.7382         42.4553 
       0.570708         69.6159         41.4207 
       0.576825         68.8465          40.429 
       0.582926         67.9683         39.4776 
       0.589034          66.659         38.5585 
       0.595184         65.7146         37.6628 
       0.601379         64.3085         36.7868 
       0.607522         62.8332         35.9413 
       0.613639          62.353         35.1228 
       0.619772         61.0731         34.3266 
       0.625918         60.6326         33.5538 
       0.632068         59.2949         32.8061 
       0.638161         58.4478         32.0894 
         0.6443         57.9923         31.3902 
       0.650464         56.5708           30.71 
       0.656582          56.332          30.055 
       0.662703         55.4685          29.419 
       0.668861         54.2307         28.7976 
       0.675024         54.0474         28.1936 
       0.681124         53.1591         27.6128 
       0.687237         52.2702          27.047 
       0.693381         51.5123         26.4941 
       0.699536         50.9806         25.9556 
       0.705665           50.31         25.4344 
       0.711789         49.5187          24.928 
       0.717957          48.792         24.4322 
        0.72409         48.2419         23.9529 
       0.730186         47.8954         23.4895 
       0.736317         47.1003         23.0361 
       0.742472         46.3567         22.5931 
       0.748622         45.7134         22.1623 
        0.75476         45.3639         21.7436 
       0.760888         45.0629         21.3363 
       0.767043         44.0647         20.9378 
       0.773185          43.416         20.5503 
       0.779291         42.9868         20.1748 
       0.785407         42.5591         19.8081 
       0.791564         42.3457         19.4483 
       0.797719         41.5068         19.0976 
       0.803834         41.2767         18.7578 
       0.809972          40.811         18.4251 
       0.816124         40.2584         18.0998 
       0.822261         39.6763         17.7833 
       0.828378         39.5394         17.4753 
       0.834502         39.0502         17.1744 
       0.840667         38.6706         16.8787 
       0.846816         38.2341         16.5907 
       0.852925          37.749         16.3113 
       0.859047         37.6039         16.0378 
       0.865192         37.0205         15.7697 
       0.871341          36.621         15.5075 
       0.877463         36.2058         15.2525 
       0.883569         36.1196         15.0039 
       0.889708         35.6564         14.7595 
       0.895864         35.3376           14.52 
       0.902008         34.9731         14.2863 
       0.908149         34.4796         14.0578 
       0.914301         34.2297          13.834 
       0.920448         34.1295         13.6153 
       0.926574         33.5369         13.4021 
       0.932687         33.2456         13.1939 
       0.938823         32.8879         12.9893 
       0.944975          32.521         12.7887 
       0.951105         32.2971          12.593 
       0.957225         32.0312         12.4017 
       0.963368         31.7699         12.2138 
       0.969511         31.4663         12.0298 
       0.975621         31.1964         11.8505 
       0.981748         30.9048         11.6745 
       0.987916         30.5875         11.5009 
        0.99406         30.3763         11.3315 
        1.00019         30.0551         11.1659 
        1.00632         29.8425         11.0038 
        1.01246         29.5793         10.8446 
        1.01859         29.3552         10.6888 
        1.02471         29.0855         10.5363 
        1.03085         28.8514         10.3863 
        1.03698         28.7098         10.2395 
        1.04314         28.4147         10.0949 
        1.04929         28.0689         9.95343 
        1.05541         28.0254         9.81525 
        1.06154         27.7271         9.67937 
        1.06769         27.4223         9.54585 
        1.07382         27.2126          9.4153 
        1.07993         27.0829         9.28748 
        1.08607         26.8038         9.16151 
        1.09222         26.6447         9.03774 
        1.09836         26.4332         8.91641 
        1.10449         26.2737         8.79744 
        1.11063         26.0183          8.6805 
        1.11677         25.9547         8.56574 
         1.1229         25.6702         8.45324 
        1.12903         25.4683         8.34267 
        1.13518          25.378         8.23398 
        1.14131          25.142         8.12728 
        1.14745         24.9372         8.02254 
        1.15359         24.6405         7.91962 
        1.15973         24.6224         7.81846 
        1.16584         24.3908         7.71952 
        1.17197         24.1406         7.62215 
        1.17811         23.9983         7.52616 
        1.18424         23.7096          7.4321 
        1.19038         23.5872         7.33938 
        1.19652         23.4662         7.24827 
        1.20267         23.3163         7.15871 
        1.20881         23.1373         7.07068 
        1.21495         23.0852         6.98426 
        1.22108         22.9632         6.89931 
         1.2272         22.6798         6.81597 
        1.23334         22.5941         6.73381 
        1.23949         22.4249         6.65281 
        1.24562         22.2754         6.57337 
        1.25174          22.134         6.49535 
        1.25789         21.9688         6.41836 
        1.26402         21.8516         6.34275 
        1.27014         21.7431         6.26854 
        1.27628         21.5387          6.1953 
        1.28244         21.5551         6.12309 
        1.28858         21.2884         6.05212 
        1.29471         21.1205         5.98244 
        1.30084         20.9979         5.91392 
        1.30697           20.92         5.84637 
        1.31312         20.7683         5.77978 
        1.31925          20.601         5.71443 
        1.32537         20.4434         5.65015 
        1.33151         20.3063         5.58664 
        1.33765         20.2944         5.52413 
        1.34378         20.1763         5.46271 
        1.34992         19.9762         5.40217 
        1.35606         19.7972         5.34242 
         1.3622         19.7575         5.28367 
        1.36833         19.6839         5.22595 
        1.37445          19.499         5.16912 
        1.38059         19.3703         5.11295 
        1.38675         19.3146         5.05748 
        1.39288         19.1676         5.00306 
        1.39901         19.0232         4.94945 
        1.40515         18.9371         4.89651 
         1.4113         18.8758         4.84437 
        1.41742         18.7488         4.79318 
        1.42355         18.5732         4.74263 
         1.4297         18.5398         4.69266 
        1.43585         18.4323         4.64343 
        1.44198         18.3208          4.5951 
        1.44809         18.1943         4.54753 
        1.45423         18.1292         4.50047 
        1.46036         18.0463         4.45416 
        1.46649         17.9112         4.40848 
        1.47263         17.8118          4.3634 
        1.47877         17.6887         4.31898 
        1.48491         17.6082          4.2751 
        1.49104         17.5001         4.23192 
        1.49718         17.4943         4.18931 
        1.50333         17.3723         4.14721 
        1.50947         17.1991         4.10578 
         1.5156         17.1919         4.06497 
        1.52172         17.0741         4.02472 
        1.52787         17.0261         3.98494 
          1.534         16.8759         3.94573 
        1.54013         16.8766          3.9071 
        1.54627         16.7257         3.86891 
        1.55241         16.6489         3.83122 
        1.55855         16.5435         3.79409 
        1.56467         16.4342         3.75755 
         1.5708         16.4105         3.72139 
        1.57695         16.3148         3.68565 
        1.58308          16.182         3.65045 
        1.58922         16.1286          3.6157 
        1.59535         16.0582          3.5814 
         1.6015         16.0079          3.5475 
        1.60764         15.8884         3.51406 
        1.61376          15.814         3.48114 
        1.61989         15.6941         3.44861 
        1.62604         15.6339         3.41642 
        1.63218         15.5313         3.38467 
        1.63831         15.4794         3.35339 
        1.64444         15.4292         3.32249 
        1.65059         15.3331         3.29191 
        1.65673         15.2682         3.26174 
        1.66285         15.2024         3.23204 
        1.66898         15.1257         3.20269 
        1.67512         15.0795         3.17365 
        1.68127          14.991         3.14495 
         1.6874         14.9314         3.11666 
        1.69353         14.8271         3.08874 
        1.69967         14.7445         3.06109 
        1.70581         14.7104         3.03379 
        1.71193         14.6362         3.00692 
        1.71806         14.5622         2.98032 
        1.72421         14.5112           2.954 
        1.73035         14.4316         2.92801 
        1.73649         14.3202         2.90235 
        1.74262         14.2962         2.87701 
        1.74876         14.2568         2.85196 
        1.75489         14.1485         2.82726 
        1.76101         14.0908         2.80285 
        1.76715         14.0052          2.7787 
        1.77329         13.9464         2.75481 
        1.77943         13.9017         2.73118 
        1.78557         13.8665         2.70787 
        1.79171         13.7855         2.68482 
        1.79785         13.7003         2.66204 
        1.80399         13.6162         2.63952 
        1.81012         13.5985          2.6173 
        1.81625         13.5098         2.59533 
        1.82239         13.4499         2.57359 
        1.82853         13.3974         2.55211 
        1.83466         13.3322         2.53089 
        1.84078         13.2637         2.50993 
        1.84692           13.22         2.48918 
        1.85306         13.1779         2.46863 
         1.8592         13.1407         2.44835 
        1.86533         13.0795         2.42831 
        1.87147         12.9907         2.40847 
        1.87761          12.946         2.38884 
        1.88375         12.8808         2.36945 
        1.88988         12.8331          2.3503 
        1.89601         12.7809         2.33134 
        1.90215         12.7106         2.31259 
        1.90829         12.6782         2.29404 
        1.91442         12.5948          2.2757 
        1.92056         12.5608         2.25757 
         1.9267         12.5116         2.23962 
        1.93284         12.4811         2.22186 
        1.93897         12.4003         2.20432 
        1.94509         12.3593         2.18701 
        1.95123         12.2845         2.16984 
        1.95737         12.2149         2.15284 
        1.96349         12.2014         2.13606 
        1.96964         12.1608         2.11942 
        1.97578          12.113         2.10294 
        1.98192         12.0402         2.08668 
        1.98805         11.9904         2.07058 
        1.99419         11.9533         2.05465 
        2.00033          11.882         2.03888 
        2.00647         11.8388         2.02328 
         2.0126         11.7749         2.00787 
        2.01874         11.7416         1.99259 
        2.02488         11.6818         1.97746 
        2.03101         11.6425         1.96252 
        2.03714          11.594         1.94774 
        2.04328         11.5498          1.9331 
        2.04941         11.4903         1.91862 
        2.05554         11.4718         1.90429 
        2.06167         11.4369          1.8901 
        2.06781         11.3928         1.87604 
        2.07396         11.3338         1.86211 
        2.08009         11.2783         1.84835 
        2.08622         11.2466         1.83473 
        2.09237         11.2035         1.82123 
        2.09851         11.1509         1.80786 
        2.10464         11.0968         1.79465 
        2.11077          11.058         1.78158 
        2.11691         11.0117         1.76862 
        2.12305         10.9696         1.75578 
        2.12918         10.9267          1.7431 
        2.13531         10.8935         1.73054 
        2.14145         10.8405         1.71808 
         2.1476         10.7807         1.70573 
        2.15372         10.7902         1.69356 
        2.15985         10.7157         1.68149 
        2.16599         10.6737         1.66951 
        2.17213         10.6372         1.65766 
        2.17827         10.5878         1.64592 
         2.1844         10.5478         1.63431 
        2.19054         10.5388         1.62281 
        2.19666         10.4781         1.61143 
         2.2028         10.4439         1.60015 
        2.20893         10.3857         1.58898 
        2.21508         10.3536         1.57789 
        2.22122         10.3084         1.56691 
        2.22736          10.284         1.55606 
        2.23349         10.2353         1.54531 
        2.23962         10.2052         1.53466 
        2.24577         10.1789         1.52409 
         2.2519          10.119         1.51364 
        2.25802         10.0726         1.50331 
        2.26417         10.0787         1.49304 
        2.27031         10.0118         1.48286 
        2.27644         9.98804          1.4728 
        2.28257         9.93816         1.46284 
        2.28872         9.91701         1.45295 
        2.29486         9.89509         1.44315 
        2.30099         9.82805         1.43346 
        2.30712         9.80485         1.42386 
        2.31326          9.7578         1.41433 
         2.3194         9.73169         1.40489 
        2.32553         9.67937         1.39555 
        2.33166         9.63518          1.3863 
         2.3378          9.6277         1.37713 
        2.34394         9.57879         1.36803 
        2.35007         9.55693         1.35902 
        2.35619         9.52147         1.35011 
        2.36233         9.46975         1.34126 
        2.36848         9.43282         1.33247 
        2.37462         9.40534         1.32377 
        2.38075         9.35785         1.31516 
        2.38689         9.34956         1.30662 
        2.39303         9.29696         1.29816 
        2.39916         9.27113         1.28978 
        2.40529         9.23276         1.28147 
        2.41143          9.1995         1.27324 
        2.41757         9.15563         1.26506 
         2.4237         9.13305         1.25698 
        2.42983          9.1072         1.24897 
        2.43598         9.07849           1.241 
        2.44211         9.04383         1.23312 
        2.44823         8.99609         1.22532 
        2.45437         8.99168         1.21757 
        2.46052         8.93922         1.20988 
        2.46665         8.92402         1.20227 
        2.47279         8.89035         1.19473 
        2.47892         8.85428         1.18725 
        2.48507         8.82559         1.17982 
         2.4912         8.77449         1.17247 
