# k  (h/Mpc)    P(k)  (Mpc/h)^3    P_linear(k)  (Mpc/h)^3
     0.00783031         250.533         253.233 
       0.013688         291.606         292.913 
       0.019231         274.675         274.797 
      0.0249154         231.893         232.271 
      0.0312784         182.148         181.609 
      0.0375637         143.189         142.494 
      0.0433917         119.332         118.944 
      0.0492413         105.742         105.383 
      0.0555754         97.4779         97.5246 
      0.0619321         92.0949         91.8598 
       0.067871         85.2156         85.3325 
      0.0738098          76.414         76.4957 
      0.0800417         65.5245         65.5915 
      0.0862327         55.1512         55.0299 
      0.0921407         46.9501         46.7869 
      0.0982031         41.0255         40.9138 
       0.104506         37.6362         37.4134 
       0.110769         35.9003          35.754 
       0.116806         34.8596         34.8487 
       0.122832         33.7641         33.7095 
       0.129052         31.6883         31.7177 
       0.135211         28.8951         28.9069 
       0.141259         25.8283         25.7493 
       0.147318         22.8905         22.7461 
       0.153489         20.4015          20.289 
       0.159709         18.7163         18.6057 
       0.165845         17.8061         17.6458 
       0.171974         17.1947         17.1344 
       0.178125         16.8261         16.7572 
       0.184229         16.3255         16.2482 
        0.19034         15.4804         15.4622 
       0.196428         14.4842         14.4202 
       0.202534         13.3796         13.2514 
       0.208729         12.2155         12.1184 
       0.214876         11.2626         11.1862 
       0.220989         10.6198         10.5076 
       0.227147          10.122         10.0527 
        0.23329         9.81098         9.74946 
       0.239377         9.56416         9.49925 
       0.245482         9.24808         9.21288 
       0.251667         8.91238         8.83783 
       0.257832         8.44182         8.38133 
       0.263955         7.96096         7.88649 
       0.270079         7.48297         7.40425 
        0.27624         7.07996         6.97974 
       0.282372          6.7415         6.63961 
        0.28843         6.46156         6.38243 
       0.294538         6.25585         6.17993 
       0.300721         6.09491         6.00112 
        0.30691         5.88614         5.81856 
       0.313033         5.68501         5.61649 
       0.319153         5.43294         5.39099 
       0.325316         5.23484         5.15008 
        0.33145         4.99368         4.91348 
       0.337538         4.77545         4.69747 
       0.343633          4.5752         4.50859 
       0.349808         4.42415         4.34739 
       0.355968         4.28635         4.20973 
       0.362074         4.15632         4.08731 
       0.368217         4.03627         3.96771 
       0.374374         3.90209         3.84454 
       0.380519         3.78313         3.71651 
       0.386598         3.65881           3.586 
       0.392688         3.53669         3.45683 
        0.39888          3.4059         3.33198 
       0.405048         3.29182         3.21742 
       0.411186         3.19061         3.11513 
       0.417313         3.09194         3.02288 
       0.423458         3.01075         2.93732 
       0.429607         2.92122         2.85583 
       0.435692         2.84078         2.77656 
       0.441815         2.76043         2.69633 
       0.447964         2.68903         2.61598 
       0.454126         2.59957         2.53679 
       0.460267         2.52493         2.46041 
       0.466387           2.447         2.38811 
        0.47254          2.3822         2.32029 
       0.478662         2.32263         2.25735 
       0.484765         2.25563         2.19812 
       0.490885         2.20139         2.14136 
       0.497035         2.15656         2.08621 
       0.503198         2.09489         2.03223 
       0.509342         2.04372         1.97918 
       0.515458         1.98863         1.92737 
       0.521598         1.93833         1.87689 
       0.527764         1.88378         1.82824 
       0.533884         1.84643         1.78212 
           0.54          1.7987         1.73807 
       0.546137         1.75715         1.69577 
       0.552299         1.71587         1.65505 
       0.558452          1.6719         1.61587 
       0.564573         1.63737         1.57808 
       0.570708         1.59912         1.54113 
       0.576825         1.55965         1.50512 
       0.582926         1.52867         1.47015 
       0.589034         1.48679         1.43622 
       0.595184         1.45577         1.40326 
       0.601379         1.42289         1.37133 
       0.607522         1.39605         1.34081 
       0.613639         1.36941         1.31144 
       0.619772         1.33354         1.28289 
       0.625918         1.30884          1.2551 
       0.632068         1.28394         1.22807 
       0.638161         1.25425         1.20205 
         0.6443         1.22812         1.17659 
       0.650464         1.19995         1.15177 
       0.656582         1.17899         1.12786 
       0.662703         1.15539         1.10463 
       0.668861         1.13579         1.08194 
       0.675024         1.11048         1.05989 
       0.681124         1.08633         1.03868 
       0.687237         1.06841         1.01802 
       0.693381         1.04835        0.997836 
       0.699536         1.02267        0.978171 
       0.705665         1.00461        0.959129 
       0.711789        0.988047        0.940618 
       0.717957        0.967497        0.922476 
        0.72409          0.9498        0.904919 
       0.730186        0.931528         0.88793 
       0.736317        0.919367         0.87129 
       0.742472        0.901576        0.855019 
       0.748622        0.883565        0.839183 
        0.75476        0.866588        0.823784 
       0.760888        0.850519        0.808796 
       0.767043        0.840624        0.794124 
       0.773185        0.822471        0.779848 
       0.779291        0.808796        0.766007 
       0.785407        0.794805        0.752484 
       0.791564        0.782319        0.739206 
       0.797719        0.770002        0.726259 
       0.803834        0.757582        0.713707 
       0.809972        0.743938        0.701412 
       0.816124         0.73074        0.689383 
       0.822261        0.717376        0.677673 
       0.828378        0.707038        0.666274 
       0.834502        0.697494        0.655131 
       0.840667        0.683023        0.644173 
       0.846816        0.672525          0.6335 
       0.852925         0.66447        0.623139 
       0.859047        0.653817         0.61299 
       0.865192        0.641938        0.603036 
       0.871341        0.632264        0.593298 
       0.877463        0.624092        0.583821 
       0.883569        0.612916        0.574578 
       0.889708        0.603812        0.565489 
       0.895864        0.594352        0.556575 
       0.902008        0.584778        0.547874 
       0.908149        0.576455        0.539366 
       0.914301        0.565419        0.531026 
       0.920448        0.558169        0.522872 
       0.926574        0.549698         0.51492 
       0.932687        0.541198        0.507151 
       0.938823        0.535752        0.499516 
       0.944975        0.527504        0.492022 
       0.951105        0.520151         0.48471 
       0.957225        0.514005        0.477561 
       0.963368        0.505914        0.470532 
       0.969511        0.497883        0.463646 
       0.975621        0.490197        0.456936 
       0.981748         0.48541        0.450343 
       0.987916        0.477822        0.443839 
        0.99406        0.470678        0.437489 
        1.00019        0.465757        0.431276 
        1.00632        0.457394        0.425191 
        1.01246        0.451305        0.419215 
        1.01859        0.446173        0.413365 
        1.02471        0.439708        0.407634 
        1.03085        0.435377        0.401993 
        1.03698         0.42847        0.396472 
        1.04314        0.423148        0.391031 
        1.04929        0.416883        0.385707 
        1.05541        0.412351        0.380503 
        1.06154        0.406267        0.375384 
        1.06769         0.40073        0.370352 
        1.07382        0.395831        0.365429 
        1.07993        0.390275        0.360607 
        1.08607        0.386962        0.355854 
        1.09222        0.381049        0.351182 
        1.09836          0.3776          0.3466 
        1.10449        0.372717        0.342106 
        1.11063        0.366877        0.337688 
        1.11677         0.36176        0.333349 
         1.1229        0.358174        0.329095 
        1.12903        0.353375        0.324913 
        1.13518        0.349702        0.320799 
        1.14131        0.345091        0.316761 
        1.14745        0.339431        0.312794 
        1.15359        0.336539        0.308895 
        1.15973        0.331584        0.305061 
        1.16584        0.329153        0.301311 
        1.17197        0.324994        0.297618 
        1.17811        0.321636        0.293976 
        1.18424        0.318355        0.290407 
        1.19038        0.313694        0.286886 
        1.19652        0.309391        0.283426 
        1.20267        0.307161        0.280023 
        1.20881        0.302942        0.276677 
        1.21495        0.300291        0.273391 
        1.22108        0.296429         0.27016 
         1.2272        0.293582        0.266988 
        1.23334        0.289718        0.263861 
        1.23949        0.286712        0.260776 
        1.24562        0.283508         0.25775 
        1.25174        0.280653        0.254776 
        1.25789         0.27784        0.251841 
        1.26402        0.273791        0.248957 
        1.27014        0.271141        0.246126 
        1.27628        0.268916         0.24333 
        1.28244        0.264769        0.240574 
        1.28858        0.262549        0.237863 
        1.29471        0.260349        0.235201 
        1.30084        0.257013        0.232582 
        1.30697        0.254185            0.23 
        1.31312        0.250753        0.227453 
        1.31925        0.248542        0.224953 
        1.32537         0.24637        0.222493 
        1.33151        0.244268        0.220062 
        1.33765        0.241557        0.217668 
        1.34378        0.238329        0.215316 
        1.34992        0.236186        0.212996 
        1.35606         0.23377        0.210706 
         1.3622        0.231482        0.208454 
        1.36833        0.228891         0.20624 
        1.37445         0.22599         0.20406 
        1.38059        0.224084        0.201905 
        1.38675        0.222749        0.199776 
        1.39288        0.220086        0.197687 
        1.39901        0.217919        0.195628 
        1.40515        0.216006        0.193594 
         1.4113        0.213303         0.19159 
        1.41742        0.211352        0.189622 
        1.42355          0.2099        0.187679 
         1.4297        0.207198        0.185757 
        1.43585        0.205365        0.183862 
        1.44198        0.203971        0.182002 
        1.44809        0.201543        0.180171 
        1.45423        0.199644        0.178358 
        1.46036        0.197742        0.176574 
        1.46649        0.196237        0.174814 
        1.47263        0.194166        0.173076 
        1.47877        0.191876        0.171363 
        1.48491        0.190391        0.169671 
        1.49104        0.188154        0.168005 
        1.49718        0.186635         0.16636 
        1.50333        0.185272        0.164735 
        1.50947        0.183331        0.163135 
         1.5156         0.18153        0.161559 
        1.52172         0.18003        0.160003 
        1.52787        0.178303        0.158465 
          1.534        0.176585        0.156949 
        1.54013         0.17496        0.155455 
        1.54627        0.173742        0.153978 
        1.55241        0.171813        0.152519 
        1.55855        0.170163        0.151082 
        1.56467        0.169396        0.149667 
         1.5708        0.167405        0.148267 
        1.57695        0.165985        0.146882 
        1.58308        0.164443        0.145519 
        1.58922        0.163126        0.144172 
        1.59535         0.16159        0.142842 
         1.6015        0.160125        0.141528 
        1.60764        0.158842         0.14023 
        1.61376        0.157093        0.138953 
        1.61989         0.15597         0.13769 
        1.62604        0.154769        0.136441 
        1.63218        0.153532        0.135208 
        1.63831        0.152252        0.133993 
        1.64444        0.150932        0.132792 
        1.65059        0.149578        0.131604 
        1.65673        0.148395        0.130431 
        1.66285        0.147358        0.129276 
        1.66898        0.146164        0.128135 
        1.67512        0.144535        0.127006 
        1.68127        0.143291        0.125889 
         1.6874        0.142519        0.124788 
        1.69353        0.140915        0.123701 
        1.69967        0.140139        0.122624 
        1.70581        0.138657        0.121561 
        1.71193        0.137642        0.120514 
        1.71806        0.136373        0.119477 
        1.72421        0.135575        0.118451 
        1.73035        0.134214        0.117438 
        1.73649        0.133383        0.116437 
        1.74262        0.132269        0.115449 
        1.74876        0.131096        0.114471 
        1.75489        0.130186        0.113507 
        1.76101        0.128986        0.112554 
        1.76715        0.127995        0.111611 
        1.77329        0.126862        0.110678 
        1.77943         0.12587        0.109755 
        1.78557        0.125182        0.108844 
        1.79171        0.124218        0.107943 
        1.79785        0.123132        0.107052 
        1.80399        0.122199        0.106172 
        1.81012        0.121279        0.105302 
        1.81625        0.120331        0.104443 
        1.82239        0.119452        0.103592 
        1.82853        0.118332        0.102751 
        1.83466        0.117506         0.10192 
        1.84078        0.116635          0.1011 
        1.84692        0.115672        0.100287 
        1.85306        0.115095       0.0994819 
         1.8592        0.113893        0.098687 
        1.86533        0.113323       0.0979014 
        1.87147        0.112409       0.0971234 
        1.87761        0.111653       0.0963536 
        1.88375        0.110683       0.0955931 
        1.88988        0.109909       0.0948416 
        1.89601        0.108995       0.0940978 
        1.90215        0.108261       0.0933614 
        1.90829        0.107338       0.0926333 
        1.91442         0.10688       0.0919129 
        1.92056        0.105923       0.0912009 
         1.9267         0.10509       0.0904957 
        1.93284        0.104334       0.0897976 
        1.93897        0.103536       0.0891082 
        1.94509        0.103013       0.0884276 
        1.95123        0.102146       0.0877523 
        1.95737        0.101553       0.0870837 
        1.96349        0.100685       0.0864238 
        1.96964       0.0998951       0.0857689 
        1.97578       0.0992065       0.0851204 
        1.98192       0.0985919       0.0844801 
        1.98805       0.0980946       0.0838462 
        1.99419       0.0971378       0.0832189 
        2.00033       0.0964029       0.0825977 
        2.00647       0.0960444        0.081983 
         2.0126       0.0951187       0.0813756 
        2.01874       0.0946186       0.0807735 
        2.02488       0.0939399        0.080177 
        2.03101       0.0932904       0.0795876 
        2.03714       0.0925506       0.0790047 
        2.04328       0.0920976        0.078427 
        2.04941       0.0912597       0.0778556 
        2.05554        0.090792       0.0772903 
        2.06167       0.0903137       0.0767299 
        2.06781       0.0894518        0.076175 
        2.07396        0.088922       0.0756248 
        2.08009       0.0883456        0.075081 
        2.08622       0.0878274       0.0745432 
        2.09237       0.0871812       0.0740097 
        2.09851        0.086664       0.0734813 
        2.10464       0.0861074       0.0729589 
        2.11077       0.0854686       0.0724423 
        2.11691       0.0849625       0.0719295 
        2.12305       0.0843857       0.0714217 
        2.12918       0.0839171       0.0709201 
        2.13531       0.0831671       0.0704232 
        2.14145       0.0826088         0.06993 
         2.1476       0.0821961       0.0694409 
        2.15372       0.0818035        0.068959 
        2.15985       0.0811062       0.0684812 
        2.16599       0.0805283       0.0680065 
        2.17213       0.0800982       0.0675369 
        2.17827       0.0795038       0.0670718 
         2.1844       0.0791515       0.0666116 
        2.19054       0.0785564       0.0661555 
        2.19666       0.0779176       0.0657044 
         2.2028        0.077593        0.065257 
        2.20893       0.0772433       0.0648137 
        2.21508       0.0765544       0.0643739 
        2.22122       0.0759852       0.0639381 
        2.22736        0.075764       0.0635073 
        2.23349       0.0751563       0.0630806 
        2.23962       0.0748282       0.0626575 
        2.24577       0.0742354        0.062238 
         2.2519       0.0738513        0.061823 
        2.25802       0.0733193       0.0614124 
        2.26417       0.0729223       0.0610044 
        2.27031        0.072436       0.0605997 
        2.27644       0.0719925       0.0601999 
        2.28257       0.0715649       0.0598038 
        2.28872       0.0711233       0.0594104 
        2.29486        0.070859       0.0590207 
        2.30099       0.0702275       0.0586353 
        2.30712       0.0698491       0.0582532 
        2.31326       0.0693474       0.0578739 
         2.3194       0.0691998       0.0574982 
        2.32553       0.0686904       0.0571264 
        2.33166       0.0683783       0.0567581 
         2.3378       0.0679106       0.0563925 
        2.34394       0.0674204       0.0560301 
        2.35007       0.0670347       0.0556714 
        2.35619       0.0665359       0.0553162 
        2.36233       0.0662391       0.0549633 
        2.36848       0.0659877       0.0546128 
        2.37462       0.0654287       0.0542661 
        2.38075       0.0651927       0.0539228 
        2.38689       0.0647926       0.0535821 
        2.39303         0.06452       0.0532445 
        2.39916       0.0639735       0.0529101 
        2.40529       0.0636548       0.0525786 
        2.41143       0.0632706       0.0522498 
        2.41757       0.0629316       0.0519236 
         2.4237       0.0626746       0.0516008 
        2.42983       0.0622394       0.0512808 
        2.43598       0.0619984       0.0509627 
        2.44211       0.0615471       0.0506478 
        2.44823       0.0612887       0.0503363 
        2.45437       0.0608302       0.0500265 
        2.46052       0.0605518       0.0497191 
        2.46665       0.0601304       0.0494149 
        2.47279       0.0598338       0.0491133 
        2.47892       0.0593958        0.048814 
        2.48507       0.0590749        0.048517 
         2.4912       0.0588336        0.048223 
