# k  (h/Mpc)    P(k)  (Mpc/h)^3    P_linear(k)  (Mpc/h)^3
     0.00783031         15859.2         16149.4 
       0.013688         17172.7         17049.8 
       0.019231         15258.9         15209.1 
      0.0249154         12300.7         12496.1 
      0.0312784         9632.86         9664.19 
      0.0375637          7668.2         7600.23 
      0.0433917         6334.54         6363.82 
      0.0492413          5624.3         5606.26 
      0.0555754         4997.29         5083.71 
      0.0619321         4704.58         4642.65 
       0.067871         4140.91         4184.49 
      0.0738098         3643.77         3664.03 
      0.0800417         3085.44         3107.16 
      0.0862327         2650.16         2620.53 
      0.0921407         2340.54         2264.93 
      0.0982031         2068.37         2017.83 
       0.104506         1958.21         1861.18 
       0.110769         1836.46         1761.97 
       0.116806         1736.03         1676.79 
       0.122832         1636.54         1573.55 
       0.129052         1478.07         1439.74 
       0.135211         1347.25         1291.29 
       0.141259         1240.12         1150.02 
       0.147318         1134.27         1030.06 
       0.153489         1029.12          938.34 
       0.159709         972.772         875.245 
       0.165845         933.958         833.036 
       0.171974         888.336         799.295 
       0.178125          847.98         763.927 
       0.184229         804.395         722.037 
        0.19034         743.073         673.468 
       0.196428         712.567         622.563 
       0.202534          676.46         574.316 
       0.208729         632.897         532.445 
       0.214876         598.714         499.552 
       0.220989         574.519         474.448 
       0.227147         550.594         454.237 
        0.23329           527.2         436.115 
       0.239377         513.631         417.804 
       0.245482         475.915         397.963 
       0.251667         468.894         376.617 
       0.257832         447.687         355.255 
       0.263955         429.157         335.296 
       0.270079         409.261         317.585 
        0.27624         401.938         302.355 
       0.282372         386.845         289.455 
        0.28843         374.976         278.242 
       0.294538         355.759         267.679 
       0.300721         351.795         257.156 
        0.30691         335.114          246.49 
       0.313033         326.912           235.9 
       0.319153         314.875         225.535 
       0.325316         305.793         215.667 
        0.33145             295         206.632 
       0.337538         289.368         198.522 
       0.343633         279.291         191.157 
       0.349808         268.937         184.283 
       0.355968         265.216         177.801 
       0.362074         259.922         171.575 
       0.368217         252.129          165.45 
       0.374374         241.084          159.44 
       0.380519         238.485         153.642 
       0.386598         232.044         148.175 
       0.392688         228.575         143.011 
        0.39888          222.38         138.104 
       0.405048         216.527          133.53 
       0.411186         212.155         129.234 
       0.417313         207.537         125.148 
       0.423458         202.696         121.207 
       0.429607         198.919         117.386 
       0.435692         192.868         113.732 
       0.441815         190.694         110.187 
       0.447964         186.505         106.771 
       0.454126         180.315         103.505 
       0.460267         177.315          100.41 
       0.466387         174.839         97.4729 
        0.47254         170.698         94.6504 
       0.478662         170.064          91.958 
       0.484765         163.707          89.376 
       0.490885         161.562         86.8772 
       0.497035         158.704         84.4507 
       0.503198         155.249         82.1064 
       0.509342         153.534         79.8572 
       0.515458         150.979         77.7051 
       0.521598         147.436         75.6283 
       0.527764         145.825         73.6234 
       0.533884         143.679         71.7099 
           0.54         141.133         69.8685 
       0.546137          139.97         68.0855 
       0.552299         137.011         66.3557 
       0.558452         135.658         64.6859 
       0.564573         133.464         63.0802 
       0.570708          130.39         61.5252 
       0.576825         128.744         60.0281 
       0.582926         126.319         58.5859 
       0.589034         125.018         57.1903 
       0.595184          123.58         55.8317 
       0.601379         121.365         54.5085 
       0.607522         119.456         53.2389 
       0.613639         118.257         52.0151 
       0.619772         115.979         50.8267 
       0.625918         114.736          49.673 
       0.632068         113.145         48.5543 
       0.638161         112.169         47.4799 
         0.6443         110.522         46.4303 
       0.650464         109.515         45.4087 
       0.656582         107.487         44.4254 
       0.662703         106.813         43.4711 
       0.668861         104.864         42.5397 
       0.675024         103.413          41.635 
       0.681124         102.669         40.7658 
       0.687237         100.949         39.9197 
       0.693381         99.3801         39.0937 
       0.699536          98.712         38.2895 
       0.705665         97.9765         37.5115 
       0.711789          96.322         36.7558 
       0.717957         96.2012         36.0158 
        0.72409         94.4143         35.3003 
       0.730186         93.1537         34.6086 
       0.736317         92.2676         33.9318 
       0.742472         91.5249         33.2706 
       0.748622         90.5568         32.6277 
        0.75476         89.6066         32.0032 
       0.760888         88.5854          31.396 
       0.767043         88.0414         30.8022 
       0.773185         87.2092         30.2249 
       0.779291         85.5569         29.6658 
       0.785407         85.1101           29.12 
       0.791564         84.6315         28.5845 
       0.797719         82.7387         28.0627 
       0.803834         82.4236         27.5573 
       0.809972         81.6975         27.0625 
       0.816124         81.1281         26.5788 
       0.822261         80.4108         26.1082 
       0.828378         79.7603         25.6504 
       0.834502          79.222         25.2032 
       0.840667         78.0063         24.7638 
       0.846816         77.1203          24.336 
       0.852925         76.6251         23.9211 
       0.859047         75.7308          23.515 
       0.865192         75.1769         23.1169 
       0.871341         74.5114         22.7278 
       0.877463         73.5167         22.3494 
       0.883569         73.4561         21.9806 
       0.889708         72.6065         21.6182 
       0.895864         71.9886         21.2631 
       0.902008         71.3922         20.9166 
       0.908149         71.0493         20.5781 
       0.914301         70.2222         20.2466 
       0.920448         69.6996         19.9226 
       0.926574         69.0952         19.6069 
       0.932687         69.0632         19.2987 
       0.938823          67.989          18.996 
       0.944975         67.3329          18.699 
       0.951105         66.7925         18.4096 
       0.957225         66.3166         18.1267 
       0.963368         65.5737         17.8488 
       0.969511         65.4929         17.5767 
       0.975621         65.0184         17.3118 
       0.981748         64.5412         17.0516 
       0.987916         63.8612         16.7952 
        0.99406         63.4578         16.5449 
        1.00019         63.1636         16.3003 
        1.00632          62.482         16.0608 
        1.01246          62.218         15.8258 
        1.01859         61.4799         15.5958 
        1.02471         61.0403         15.3707 
        1.03085         60.5238         15.1493 
        1.03698         60.3018         14.9327 
        1.04314         59.7569         14.7194 
        1.04929         59.4011         14.5107 
        1.05541         58.7654          14.307 
        1.06154         58.7379         14.1066 
        1.06769         58.3164         13.9097 
        1.07382         57.8857         13.7173 
        1.07993         57.5772         13.5289 
        1.08607         57.0547         13.3432 
        1.09222         56.9147         13.1609 
        1.09836         56.3169         12.9821 
        1.10449         56.1224         12.8069 
        1.11063         55.5891         12.6347 
        1.11677         55.2528         12.4657 
         1.1229         54.8194         12.3001 
        1.12903         54.4192         12.1374 
        1.13518         54.3307         11.9775 
        1.14131         53.9764         11.8205 
        1.14745         53.5828         11.6664 
        1.15359         53.2531         11.5151 
        1.15973         52.9193         11.3663 
        1.16584         52.4703         11.2209 
        1.17197         52.1671         11.0777 
        1.17811         51.9935         10.9367 
        1.18424         51.5029         10.7985 
        1.19038         51.3306         10.6622 
        1.19652         51.0097         10.5284 
        1.20267         50.4529         10.3969 
        1.20881         50.3533         10.2676 
        1.21495         49.9151         10.1408 
        1.22108         49.9189         10.0161 
         1.2272         49.2263         9.89374 
        1.23334         49.0077         9.77317 
        1.23949         48.8895         9.65432 
        1.24562         48.4516         9.53778 
        1.25174          48.281         9.42333 
        1.25789         48.1268          9.3104 
        1.26402         47.6067         9.19952 
        1.27014         47.4514         9.09071 
        1.27628         47.1458         8.98333 
        1.28244         46.8936         8.87747 
        1.28858         46.7452         8.77346 
        1.29471         46.5019         8.67134 
        1.30084         46.2109         8.57093 
        1.30697         45.9152         8.47195 
        1.31312         45.6443         8.37439 
        1.31925         45.3785         8.27866 
        1.32537         45.1714         8.18452 
        1.33151         44.8304         8.09149 
        1.33765         44.6729         7.99996 
        1.34378         44.4414         7.91002 
        1.34992         44.1435          7.8214 
        1.35606         43.9441         7.73393 
         1.3622         43.6828         7.64796 
        1.36833         43.5031         7.56349 
        1.37445         43.1708         7.48034 
        1.38059         42.9246         7.39818 
        1.38675         42.7136         7.31705 
        1.39288         42.5211         7.23746 
        1.39901         42.3509         7.15908 
        1.40515         42.0395         7.08169 
         1.4113         41.8656         7.00546 
        1.41742         41.7922         6.93065 
        1.42355         41.4744         6.85678 
         1.4297           41.34         6.78377 
        1.43585         41.1461         6.71185 
        1.44198         40.7993         6.64124 
        1.44809         40.6661         6.57177 
        1.45423         40.4992         6.50304 
        1.46036          40.273         6.43541 
        1.46649         40.1226         6.36872 
        1.47263         39.8907         6.30292 
        1.47877         39.5819         6.23807 
        1.48491         39.5659         6.17403 
        1.49104         39.2989         6.11102 
        1.49718         38.9989         6.04884 
        1.50333         39.0256         5.98742 
        1.50947         38.7133         5.92698 
         1.5156         38.5613         5.86745 
        1.52172         38.4181         5.80874 
        1.52787         38.2684         5.75071 
          1.534          37.962         5.69354 
        1.54013         37.7886          5.6372 
        1.54627         37.7196         5.58151 
        1.55241         37.3505         5.52657 
        1.55855         37.2648         5.47244 
        1.56467          37.035         5.41918 
         1.5708         37.0157         5.36648 
        1.57695         36.8347         5.31439 
        1.58308          36.613         5.26311 
        1.58922         36.3844         5.21247 
        1.59535         36.3171         5.16251 
         1.6015         36.0361         5.11314 
        1.60764         35.8771         5.06443 
        1.61376         35.7491         5.01649 
        1.61989         35.5924         4.96913 
        1.62604         35.3745         4.92227 
        1.63218         35.3694         4.87604 
        1.63831          35.077         4.83051 
        1.64444         34.9487         4.78554 
        1.65059         34.9543         4.74104 
        1.65673         34.6439         4.69714 
        1.66285         34.4192         4.65392 
        1.66898          34.386         4.61123 
        1.67512         34.0918           4.569 
        1.68127         34.0295         4.52724 
         1.6874         33.8244         4.48611 
        1.69353          33.679          4.4455 
        1.69967         33.5642          4.4053 
        1.70581         33.4986         4.36561 
        1.71193         33.3288         4.32656 
        1.71806         33.0266          4.2879 
        1.72421         33.0252         4.24964 
        1.73035         32.8458         4.21188 
        1.73649         32.6213         4.17459 
        1.74262         32.4699         4.13777 
        1.74876         32.3301         4.10138 
        1.75489         32.2466         4.06549 
        1.76101         32.1439         4.03004 
        1.76715          31.988         3.99496 
        1.77329         31.8301         3.96026 
        1.77943         31.6923         3.92595 
        1.78557          31.522         3.89209 
        1.79171         31.4483         3.85863 
        1.79785         31.2572         3.82555 
        1.80399         31.2398         3.79286 
        1.81012         30.9965          3.7606 
        1.81625         30.8883         3.72873 
        1.82239         30.7462         3.69717 
        1.82853         30.6583           3.666 
        1.83466         30.4162         3.63521 
        1.84078         30.2552          3.6048 
        1.84692         30.2235          3.5747 
        1.85306         30.0494          3.5449 
         1.8592         29.9198         3.51548 
        1.86533         29.8014         3.48641 
        1.87147         29.7172         3.45764 
        1.87761         29.5768         3.42917 
        1.88375         29.4481         3.40106 
        1.88988         29.3544         3.37329 
        1.89601         29.2192         3.34582 
        1.90215         29.1443         3.31863 
        1.90829         29.0495         3.29175 
        1.91442          28.901         3.26517 
        1.92056         28.6911          3.2389 
         1.9267         28.6864         3.21289 
        1.93284         28.4255         3.18715 
        1.93897         28.4031         3.16174 
        1.94509         28.2773         3.13666 
        1.95123         28.1452         3.11179 
        1.95737         27.9988         3.08717 
        1.96349         27.9285         3.06288 
        1.96964         27.8102         3.03877 
        1.97578         27.6554         3.01492 
        1.98192         27.5726         2.99137 
        1.98805         27.4873         2.96806 
        1.99419         27.3846           2.945 
        2.00033          27.229         2.92218 
        2.00647         27.1639          2.8996 
         2.0126         26.9918         2.87729 
        2.01874         26.9416         2.85519 
        2.02488         26.8531         2.83329 
        2.03101         26.7086         2.81167 
        2.03714         26.6256         2.79029 
        2.04328         26.4699          2.7691 
        2.04941         26.3727         2.74816 
        2.05554         26.2783         2.72744 
        2.06167         26.1878         2.70691 
        2.06781         26.0516         2.68658 
        2.07396         25.9973         2.66643 
        2.08009         25.8445         2.64653 
        2.08622          25.702         2.62684 
        2.09237         25.6629         2.60732 
        2.09851         25.5828           2.588 
        2.10464         25.4399         2.56889 
        2.11077         25.4035         2.55001 
        2.11691         25.2164         2.53127 
        2.12305         25.1408         2.51272 
        2.12918         25.0267         2.49439 
        2.13531         24.9878         2.47625 
        2.14145         24.8427         2.45825 
         2.1476         24.7348          2.4404 
        2.15372         24.6483         2.42282 
        2.15985         24.6212         2.40539 
        2.16599         24.4583         2.38808 
        2.17213         24.4287         2.37096 
        2.17827         24.2685         2.35402 
         2.1844         24.2172         2.33725 
        2.19054         24.1118         2.32064 
        2.19666         23.9731         2.30421 
         2.2028         23.8986         2.28792 
        2.20893         23.8677         2.27179 
        2.21508         23.7613         2.25579 
        2.22122         23.6115         2.23994 
        2.22736         23.5697         2.22427 
        2.23349         23.4146         2.20876 
        2.23962         23.3712         2.19338 
        2.24577         23.2492         2.17814 
         2.2519         23.1847         2.16306 
        2.25802         23.1097         2.14815 
        2.26417         23.0017         2.13334 
        2.27031         22.8832         2.11865 
        2.27644         22.8264         2.10415 
        2.28257         22.7624         2.08977 
        2.28872         22.6614         2.07551 
        2.29486         22.5695         2.06138 
        2.30099         22.4647         2.04741 
        2.30712         22.4062         2.03356 
        2.31326         22.3266         2.01982 
         2.3194          22.238         2.00621 
        2.32553         22.1683         1.99275 
        2.33166          22.075         1.97942 
         2.3378         21.9833         1.96619 
        2.34394         21.8969         1.95307 
        2.35007          21.822         1.94009 
        2.35619         21.7464         1.92725 
        2.36233          21.625         1.91449 
        2.36848         21.5623         1.90182 
        2.37462         21.4758         1.88929 
        2.38075         21.4278         1.87689 
        2.38689         21.3328         1.86458 
        2.39303          21.235         1.85239 
        2.39916         21.1367         1.84032 
        2.40529         21.1211         1.82835 
        2.41143         21.0257         1.81649 
        2.41757         20.9244         1.80472 
         2.4237         20.8612         1.79308 
        2.42983         20.7491         1.78154 
        2.43598         20.7066         1.77007 
        2.44211         20.5973         1.75872 
        2.44823         20.5347          1.7475 
        2.45437         20.4297         1.73634 
        2.46052         20.3524         1.72527 
        2.46665         20.3098         1.71431 
        2.47279         20.2466         1.70346 
        2.47892         20.1638         1.69269 
        2.48507         20.0504           1.682 
         2.4912         19.9954         1.67142 
