# k  (h/Mpc)    P(k)  (Mpc/h)^3    P_linear(k)  (Mpc/h)^3
     0.00783031         5954.91         6005.68 
       0.013688         7069.47         7200.44 
       0.019231          7077.8          7145.8 
      0.0249154         6498.66         6485.32 
      0.0312784         5473.28         5493.41 
      0.0375637         4530.47         4565.16 
      0.0433917         3885.72         3881.93 
      0.0492413         3375.91         3390.19 
      0.0555754         3049.75          3037.5 
      0.0619321         2751.45         2801.36 
       0.067871         2608.01         2623.05 
      0.0738098         2433.75         2440.05 
      0.0800417         2222.63         2220.53 
      0.0862327         1972.51         1978.72 
      0.0921407         1748.92         1746.29 
      0.0982031          1551.2         1530.24 
       0.104506         1354.08         1348.18 
       0.110769          1230.1         1216.44 
       0.116806         1160.74         1130.67 
       0.122832         1090.48         1073.41 
       0.129052         1047.09         1028.63 
       0.135211          1011.9         984.421 
       0.141259         948.099         932.197 
       0.147318         876.263         868.849 
       0.153489         812.357         796.705 
       0.159709         754.001         723.602 
       0.165845         677.607         658.456 
       0.171974         645.875         605.161 
       0.178125         607.757         564.942 
       0.184229         567.663         536.559 
        0.19034         554.068         516.015 
       0.196428         536.578         498.995 
       0.202534          504.98         481.443 
       0.208729         494.294          460.58 
       0.214876         472.554         436.246 
       0.220989         438.617         409.598 
       0.227147         422.733         382.451 
        0.23329         400.996         357.315 
       0.239377          386.98         335.911 
       0.245482         365.108          318.54 
       0.251667         349.046         304.786 
       0.257832         344.507         293.886 
       0.263955         326.358         284.469 
       0.270079         314.816         275.205 
        0.27624         302.239         265.189 
       0.282372         293.427         254.219 
        0.28843         289.572         242.663 
       0.294538         274.319         230.847 
       0.300721         262.519         219.424 
        0.30691         256.979         209.075 
       0.313033         244.864         200.202 
       0.319153          240.14         192.656 
       0.325316         232.926         186.135 
        0.33145         226.183         180.316 
       0.337538         218.615         174.811 
       0.343633         212.021         169.251 
       0.349808         205.582         163.444 
       0.355968         200.559         157.464 
       0.362074         195.371         151.518 
       0.368217         191.421         145.698 
       0.374374         186.234         140.215 
       0.380519         178.202         135.215 
       0.386598         174.785         130.744 
       0.392688         169.746         126.706 
        0.39888         166.343         122.926 
       0.405048          162.68         119.364 
       0.411186         160.186         115.916 
       0.417313         156.362         112.489 
       0.423458         152.282         109.058 
       0.429607         148.736         105.656 
       0.435692         146.222         102.361 
       0.441815         142.203         99.1773 
       0.447964         137.991         96.1606 
       0.454126         135.484         93.3278 
       0.460267         134.156         90.6923 
       0.466387         130.928         88.2304 
        0.47254         129.396         85.8767 
       0.478662         124.991         83.6167 
       0.484765         123.195         81.4228 
       0.490885          120.55         79.2676 
       0.497035         119.458         77.1385 
       0.503198         117.052         75.0557 
       0.509342         113.961         73.0461 
       0.515458         112.406         71.1251 
       0.521598         109.609           69.28 
       0.527764         108.429         67.5127 
       0.533884          107.69         65.8424 
           0.54         104.734         64.2452 
       0.546137          102.32         62.7002 
       0.552299         100.733         61.1948 
       0.558452         98.8878         59.7326 
       0.564573         98.4501         58.3166 
       0.570708         95.6248         56.9348 
       0.576825         94.6035         55.5948 
       0.582926         93.4873          54.299 
       0.589034         91.8526         53.0451 
       0.595184         90.7357         51.8294 
       0.601379         88.6346         50.6511 
       0.607522         87.0311         49.5237 
       0.613639          86.323         48.4375 
       0.619772         84.7964         47.3811 
       0.625918         84.0577         46.3528 
       0.632068         82.4507         45.3529 
       0.638161         81.2128         44.3897 
         0.6443         80.6714         43.4456 
       0.650464         78.9238         42.5239 
       0.656582         78.6067         41.6348 
       0.662703         77.5193         40.7712 
       0.668861         75.7849         39.9285 
       0.675024         75.6582          39.111 
       0.681124         74.4637         38.3265 
       0.687237         73.0876          37.563 
       0.693381         72.4524         36.8171 
       0.699536         71.6072         36.0899 
       0.705665          70.633         35.3844 
       0.711789         69.6446         34.6976 
       0.717957          68.709         34.0237 
        0.72409         68.1025         33.3712 
       0.730186         67.6689         32.7399 
       0.736317         66.4582          32.122 
       0.742472         65.5733         31.5183 
       0.748622         64.6571         30.9312 
        0.75476         64.1863         30.3607 
       0.760888         63.8608         29.8056 
       0.767043         62.5438         29.2623 
       0.773185         61.7706         28.7336 
       0.779291         61.0868         28.2207 
       0.785407          60.388         27.7196 
       0.791564          60.283         27.2274 
       0.797719         59.3223         26.7474 
       0.803834         58.8564          26.282 
       0.809972          58.261         25.8262 
       0.816124         57.5964         25.3803 
       0.822261         56.8026         24.9462 
       0.828378         56.6386         24.5238 
       0.834502         55.8629         24.1109 
       0.840667         55.4437         23.7049 
       0.846816         54.8238         23.3094 
       0.852925         54.2092         22.9255 
       0.859047         54.1108         22.5495 
       0.865192         53.2123         22.1806 
       0.871341         52.6043         21.8197 
       0.877463         52.1953         21.4686 
       0.883569          52.047          21.126 
       0.889708          51.484         20.7891 
       0.895864         51.0169         20.4588 
       0.902008         50.5096         20.1363 
       0.908149          49.905          19.821 
       0.914301         49.6009          19.512 
       0.920448         49.4008         19.2098 
       0.926574         48.5193         18.9151 
       0.932687         48.2211         18.6273 
       0.938823         47.7567         18.3444 
       0.944975          47.238         18.0668 
       0.951105         46.9139         17.7959 
       0.957225         46.6327         17.5311 
       0.963368         46.2253         17.2708 
       0.969511          45.815         17.0158 
       0.975621         45.4759         16.7673 
       0.981748         45.0086         16.5231 
       0.987916         44.6636         16.2823 
        0.99406         44.3242         16.0473 
        1.00019          43.899         15.8173 
        1.00632         43.5857         15.5921 
        1.01246         43.2439         15.3709 
        1.01859         42.9907         15.1544 
        1.02471         42.5311         14.9423 
        1.03085         42.2917         14.7336 
        1.03698         42.0544         14.5294 
        1.04314         41.6889         14.3281 
        1.04929         41.2387         14.1311 
        1.05541         41.1178         13.9387 
        1.06154           40.81         13.7493 
        1.06769         40.2805         13.5632 
        1.07382          40.069         13.3812 
        1.07993         39.8505         13.2029 
        1.08607         39.5172         13.0272 
        1.09222         39.3133         12.8544 
        1.09836         38.9806         12.6851 
        1.10449         38.7943         12.5189 
        1.11063         38.4146         12.3556 
        1.11677         38.3445         12.1952 
         1.1229         37.9263          12.038 
        1.12903         37.7089         11.8834 
        1.13518         37.6138         11.7313 
        1.14131         37.2168         11.5821 
        1.14745         36.8903         11.4355 
        1.15359         36.5405         11.2914 
        1.15973         36.4882         11.1497 
        1.16584         36.2015         11.0112 
        1.17197         35.7664         10.8747 
        1.17811         35.6605         10.7402 
        1.18424         35.1695         10.6083 
        1.19038         35.1142         10.4783 
        1.19652         34.9261         10.3505 
        1.20267          34.727         10.2248 
        1.20881         34.4635         10.1013 
        1.21495         34.3431         9.97998 
        1.22108         34.2253         9.86068 
         1.2272         33.8679         9.74362 
        1.23334         33.6995         9.62818 
        1.23949         33.4641         9.51435 
        1.24562         33.2054         9.40268 
        1.25174         33.0286         9.29297 
        1.25789         32.9196         9.18468 
        1.26402         32.6872         9.07831 
        1.27014         32.5412         8.97388 
        1.27628         32.2034         8.87079 
        1.28244         32.2072         8.76912 
        1.28858          31.895         8.66919 
        1.29471         31.6869         8.57103 
        1.30084         31.4789         8.47449 
        1.30697         31.3929         8.37929 
        1.31312         31.1232         8.28541 
        1.31925         30.8803         8.19327 
        1.32537         30.7137         8.10263 
        1.33151         30.5112         8.01303 
        1.33765         30.4743         7.92484 
        1.34378         30.3074         7.83815 
        1.34992         30.0556          7.7527 
        1.35606         29.8522         7.66834 
         1.3622         29.7249         7.58538 
        1.36833         29.6095         7.50384 
        1.37445         29.3339         7.42355 
        1.38059         29.2388         7.34418 
        1.38675         29.0077         7.26578 
        1.39288          28.903         7.18883 
        1.39901         28.7011         7.11304 
        1.40515         28.5975         7.03816 
         1.4113         28.5311         6.96439 
        1.41742         28.3398         6.89196 
        1.42355         28.0856         6.82042 
         1.4297         27.9897         6.74968 
        1.43585          27.817         6.67998 
        1.44198         27.6734         6.61152 
        1.44809         27.5094         6.54415 
        1.45423         27.4127         6.47747 
        1.46036         27.3066         6.41184 
        1.46649         27.1149          6.3471 
        1.47263         26.9416          6.2832 
        1.47877         26.8275          6.2202 
        1.48491         26.7151         6.15797 
        1.49104         26.5241         6.09673 
        1.49718         26.4825         6.03627 
        1.50333         26.3403         5.97653 
        1.50947         26.1491         5.91773 
         1.5156         26.0477          5.8598 
        1.52172         25.8647         5.80265 
        1.52787         25.8022         5.74614 
          1.534         25.6109         5.69046 
        1.54013         25.6051         5.63557 
        1.54627         25.3662         5.58131 
        1.55241         25.2551         5.52775 
        1.55855         25.1573         5.47497 
        1.56467         25.0352         5.42303 
         1.5708         24.9155         5.37161 
        1.57695         24.8211         5.32078 
        1.58308         24.5897         5.27072 
        1.58922         24.4984         5.22127 
        1.59535         24.4136         5.17247 
         1.6015         24.3466         5.12423 
        1.60764         24.1837         5.07662 
        1.61376         24.0766         5.02975 
        1.61989         23.8747         4.98343 
        1.62604         23.8082         4.93759 
        1.63218          23.714         4.89236 
        1.63831         23.6037          4.8478 
        1.64444         23.4987         4.80377 
        1.65059         23.3889         4.76018 
        1.65673         23.2903         4.71719 
        1.66285         23.2089         4.67484 
        1.66898         23.0561           4.633 
        1.67512         23.0181         4.59159 
        1.68127         22.8825         4.55064 
         1.6874         22.7636         4.51029 
        1.69353         22.6651         4.47045 
        1.69967         22.5561         4.43099 
        1.70581         22.4393         4.39203 
        1.71193         22.3232         4.35369 
        1.71806          22.249         4.31571 
        1.72421         22.1722         4.27812 
        1.73035         22.0384         4.24101 
        1.73649         21.9139         4.20436 
        1.74262         21.8166         4.16816 
        1.74876         21.7672         4.13237 
        1.75489          21.645         4.09707 
        1.76101         21.5399         4.06219 
        1.76715         21.4761         4.02767 
        1.77329         21.3104         3.99351 
        1.77943         21.2633         3.95973 
        1.78557         21.1916         3.92639 
        1.79171         21.0929         3.89343 
        1.79785         20.9871         3.86083 
        1.80399         20.8765         3.82862 
        1.81012         20.8421         3.79682 
        1.81625         20.6919         3.76539 
        1.82239         20.5949         3.73427 
        1.82853         20.5164         3.70352 
        1.83466         20.4281         3.67314 
        1.84078         20.3249         3.64313 
        1.84692         20.2903         3.61341 
        1.85306         20.1695         3.58399 
         1.8592         20.1401         3.55493 
        1.86533         19.9947         3.52622 
        1.87147         19.8949         3.49779 
        1.87761         19.8146         3.46966 
        1.88375         19.7731         3.44187 
        1.88988         19.6696         3.41441 
        1.89601         19.5769         3.38724 
        1.90215         19.4732         3.36034 
        1.90829         19.4386         3.33375 
        1.91442         19.2966         3.30744 
        1.92056         19.2573         3.28144 
         1.9267          19.167         3.25569 
        1.93284         19.1521          3.2302 
        1.93897          19.039         3.20503 
        1.94509         18.9567         3.18019 
        1.95123         18.8448         3.15554 
        1.95737         18.7604         3.13114 
        1.96349          18.712         3.10706 
        1.96964         18.7025         3.08316 
        1.97578         18.5421          3.0595 
        1.98192         18.4879         3.03613 
        1.98805         18.3499         3.01301 
        1.99419          18.348         2.99012 
        2.00033         18.2335         2.96747 
        2.00647         18.1844         2.94505 
         2.0126         18.0861          2.9229 
        2.01874         18.0266         2.90095 
        2.02488         17.9056          2.8792 
        2.03101         17.8475         2.85771 
        2.03714         17.7948         2.83646 
        2.04328         17.7352         2.81541 
        2.04941         17.6412         2.79458 
        2.05554         17.6039         2.77398 
        2.06167         17.5446         2.75356 
        2.06781         17.4723         2.73334 
        2.07396         17.4131          2.7133 
        2.08009         17.2977         2.69349 
        2.08622         17.2573          2.6739 
        2.09237         17.2283         2.65447 
        2.09851         17.1117         2.63522 
        2.10464         17.0189          2.6162 
        2.11077         16.9834         2.59739 
        2.11691         16.9023         2.57872 
        2.12305         16.8575         2.56023 
        2.12918          16.789         2.54197 
        2.13531          16.734         2.52388 
        2.14145         16.6253         2.50593 
         2.1476         16.5453         2.48813 
        2.15372           16.54         2.47059 
        2.15985         16.4581         2.45321 
        2.16599         16.3818         2.43594 
        2.17213         16.3425         2.41885 
        2.17827         16.2447         2.40194 
         2.1844         16.1915          2.3852 
        2.19054         16.1738         2.36861 
        2.19666         16.0759          2.3522 
         2.2028         16.0436         2.33594 
        2.20893         15.9379         2.31982 
        2.21508           15.88         2.30383 
        2.22122         15.8072         2.28799 
        2.22736         15.8124         2.27233 
        2.23349         15.6963         2.25682 
        2.23962         15.6584         2.24144 
        2.24577         15.6093          2.2262 
         2.2519         15.5421         2.21112 
        2.25802          15.442          2.1962 
        2.26417         15.4379         2.18138 
        2.27031         15.3586         2.16668 
        2.27644          15.335         2.15216 
        2.28257         15.2334         2.13777 
        2.28872         15.2413         2.12348 
        2.29486         15.1664         2.10933 
        2.30099         15.0667         2.09534 
        2.30712         15.0386         2.08146 
        2.31326         14.9594         2.06769 
         2.3194         14.8976         2.05405 
        2.32553         14.8697         2.04056 
        2.33166         14.7739         2.02719 
         2.3378         14.7551         2.01393 
        2.34394         14.6624         2.00077 
        2.35007         14.6406         1.98776 
        2.35619         14.6014         1.97487 
        2.36233         14.5096         1.96207 
        2.36848         14.4464         1.94936 
        2.37462          14.397         1.93678 
        2.38075         14.3696         1.92433 
        2.38689         14.3143         1.91198 
        2.39303         14.2403         1.89974 
        2.39916         14.1915         1.88761 
        2.40529          14.161          1.8756 
        2.41143         14.0874         1.86367 
        2.41757         14.0282         1.85185 
         2.4237         13.9857         1.84015 
        2.42983         13.9569         1.82855 
        2.43598         13.8922         1.81703 
        2.44211         13.8364         1.80562 
        2.44823         13.7927         1.79433 
        2.45437         13.7714         1.78311 
        2.46052          13.679         1.77197 
        2.46665         13.6718         1.76095 
        2.47279         13.5894         1.75002 
        2.47892         13.5295         1.73919 
        2.48507         13.4899         1.72843 
         2.4912         13.4343         1.71778 
