# k  (h/Mpc)    P(k)  (Mpc/h)^3    P_linear(k)  (Mpc/h)^3
     0.00783031         61.3698         61.8544 
       0.013688         73.8916         74.3115 
       0.019231         73.7408          73.814 
      0.0249154         67.0529          67.026 
      0.0312784         56.8982         56.7943 
      0.0375637         47.3184          47.208 
      0.0433917         40.3023         40.1483 
      0.0492413         35.1745          35.066 
      0.0555754         31.5462         31.4204 
      0.0619321         28.9978         28.9795 
       0.067871         27.1754         27.1361 
      0.0738098         25.2771         25.2438 
      0.0800417         23.0152         22.9735 
      0.0862327         20.5054         20.4723 
      0.0921407         18.0995         18.0679 
      0.0982031         15.8869         15.8328 
       0.104506          13.979         13.9494 
       0.110769         12.6165         12.5864 
       0.116806         11.7372         11.6991 
       0.122832         11.1249         11.1067 
       0.129052         10.6648         10.6434 
       0.135211         10.2078          10.186 
       0.141259         9.65537         9.64569 
       0.147318         8.99168         8.99027 
       0.153489         8.25369         8.24383 
       0.159709         7.50318         7.48745 
       0.165845         6.81694          6.8134 
       0.171974         6.28341         6.26196 
       0.178125         5.86275          5.8458 
       0.184229         5.56219         5.55211 
        0.19034         5.35749         5.33954 
       0.196428         5.17475         5.16343 
       0.202534         4.97961          4.9818 
       0.208729         4.77195         4.76594 
       0.214876         4.52713         4.51414 
       0.220989         4.23939         4.23841 
       0.227147         3.97135         3.95752 
        0.23329         3.71202         3.69743 
       0.239377         3.49089         3.47595 
       0.245482         3.31043          3.2962 
       0.251667          3.1623         3.15388 
       0.257832         3.05385         3.04109 
       0.263955         2.95152         2.94364 
       0.270079         2.85443         2.84778 
        0.27624          2.7466         2.74413 
       0.282372         2.63375         2.63062 
        0.28843         2.52005         2.51105 
       0.294538         2.39707         2.38878 
       0.300721         2.27575         2.27058 
        0.30691         2.17213         2.16349 
       0.313033         2.07986         2.07167 
       0.319153          2.0076         1.99359 
       0.325316          1.9307         1.92612 
        0.33145          1.8708          1.8659 
       0.337538         1.81459         1.80893 
       0.343633          1.7586          1.7514 
       0.349808         1.69717          1.6913 
       0.355968         1.63372         1.62943 
       0.362074         1.57499          1.5679 
       0.368217         1.51415         1.50768 
       0.374374         1.46096         1.45094 
       0.380519         1.40571          1.3992 
       0.386598         1.35838         1.35294 
       0.392688         1.31489         1.31115 
        0.39888         1.27773         1.27204 
       0.405048         1.24085         1.23517 
       0.411186          1.2044          1.1995 
       0.417313          1.1697         1.16404 
       0.423458         1.13213         1.12853 
       0.429607         1.09932         1.09333 
       0.435692         1.06559         1.05924 
       0.441815         1.03188         1.02629 
       0.447964        0.998467         0.99507 
       0.454126        0.971248        0.965757 
       0.460267        0.945373        0.938485 
       0.466387        0.919138         0.91301 
        0.47254        0.895204        0.888653 
       0.478662        0.870961        0.865267 
       0.484765        0.848707        0.842564 
       0.490885        0.825432        0.820263 
       0.497035         0.80192        0.798231 
       0.503198         0.78209        0.776678 
       0.509342         0.75948        0.755883 
       0.515458        0.741184        0.736005 
       0.521598        0.722033        0.716911 
       0.527764        0.705136        0.698623 
       0.533884        0.685189         0.68134 
           0.54         0.66926        0.664812 
       0.546137        0.652472        0.648824 
       0.552299        0.637665        0.633246 
       0.558452        0.622842        0.618115 
       0.564573        0.607894        0.603463 
       0.570708        0.593673        0.589164 
       0.576825        0.579793        0.575297 
       0.582926        0.565599        0.561888 
       0.589034        0.554225        0.548913 
       0.595184        0.541693        0.536333 
       0.601379        0.528519         0.52414 
       0.607522        0.516512        0.512473 
       0.613639        0.504523        0.501234 
       0.619772         0.49487        0.490302 
       0.625918        0.484002        0.479661 
       0.632068        0.473634        0.469314 
       0.638161        0.463407        0.459347 
         0.6443        0.453581        0.449577 
       0.650464        0.444484        0.440039 
       0.656582         0.43548        0.430839 
       0.662703        0.426287        0.421903 
       0.668861        0.416558        0.413182 
       0.675024        0.408547        0.404723 
       0.681124        0.401987        0.396605 
       0.687237        0.392931        0.388704 
       0.693381        0.384531        0.380986 
       0.699536        0.378017         0.37346 
       0.705665        0.370649         0.36616 
       0.711789        0.362585        0.359053 
       0.717957        0.356106        0.352079 
        0.72409        0.348949        0.345327 
       0.730186        0.343289        0.338795 
       0.736317        0.336007          0.3324 
       0.742472        0.330269        0.326154 
       0.748622        0.324185        0.320078 
        0.75476        0.318182        0.314175 
       0.760888        0.312744        0.308431 
       0.767043        0.305712        0.302808 
       0.773185        0.300856        0.297337 
       0.779291        0.296278         0.29203 
       0.785407        0.290525        0.286844 
       0.791564        0.285502        0.281751 
       0.797719        0.280498        0.276784 
       0.803834        0.275628        0.271968 
       0.809972        0.270883        0.267251 
       0.816124        0.266149        0.262637 
       0.822261        0.261938        0.258146 
       0.828378        0.257354        0.253774 
       0.834502        0.253032        0.249501 
       0.840667        0.249087          0.2453 
       0.846816        0.244802        0.241208 
       0.852925        0.240401        0.237235 
       0.859047        0.236623        0.233344 
       0.865192        0.233077        0.229527 
       0.871341        0.229552        0.225792 
       0.877463        0.225324        0.222158 
       0.883569        0.221927        0.218613 
       0.889708        0.218541        0.215128 
       0.895864        0.215156        0.211709 
       0.902008        0.211573        0.208372 
       0.908149        0.208559        0.205109 
       0.914301        0.205674        0.201911 
       0.920448        0.202299        0.198785 
       0.926574        0.199438        0.195735 
       0.932687        0.196506        0.192757 
       0.938823        0.193035         0.18983 
       0.944975        0.190436        0.186957 
       0.951105        0.187233        0.184154 
       0.957225        0.184426        0.181413 
       0.963368        0.182119         0.17872 
       0.969511        0.179669        0.176081 
       0.975621        0.176756        0.173509 
       0.981748        0.173785        0.170983 
       0.987916        0.171522        0.168491 
        0.99406        0.169261        0.166058 
        1.00019         0.16675        0.163679 
        1.00632        0.164741        0.161348 
        1.01246        0.162492        0.159059 
        1.01859         0.16008        0.156819 
        1.02471        0.157668        0.154625 
        1.03085        0.155361        0.152465 
        1.03698        0.153474        0.150351 
        1.04314        0.151333        0.148268 
        1.04929        0.149553         0.14623 
        1.05541        0.147198        0.144239 
        1.06154         0.14538        0.142279 
        1.06769        0.143574        0.140354 
        1.07382        0.141655         0.13847 
        1.07993         0.13987        0.136625 
        1.08607        0.137816        0.134806 
        1.09222        0.136063        0.133019 
        1.09836        0.134225        0.131266 
        1.10449        0.132474        0.129547 
        1.11063        0.130837        0.127857 
        1.11677        0.129312        0.126197 
         1.1229        0.127354         0.12457 
        1.12903        0.125935         0.12297 
        1.13518        0.124267        0.121397 
        1.14131        0.122794        0.119852 
        1.14745        0.121542        0.118335 
        1.15359        0.119868        0.116844 
        1.15973        0.118551        0.115379 
        1.16584        0.116944        0.113945 
        1.17197        0.115432        0.112533 
        1.17811        0.113965        0.111141 
        1.18424        0.112621        0.109776 
        1.19038        0.111134        0.108431 
        1.19652        0.110162        0.107108 
        1.20267        0.108694        0.105808 
        1.20881        0.107137        0.104529 
        1.21495        0.106019        0.103274 
        1.22108        0.104911        0.102039 
         1.2272        0.103533        0.100828 
        1.23334        0.102369       0.0996334 
        1.23949        0.101331       0.0984555 
        1.24562        0.100124       0.0972999 
        1.25174       0.0989296       0.0961646 
        1.25789       0.0975567        0.095044 
        1.26402       0.0967914       0.0939433 
        1.27014       0.0954175       0.0928627 
        1.27628       0.0945066       0.0917959 
        1.28244       0.0934675       0.0907438 
        1.28858       0.0922998       0.0897096 
        1.29471       0.0913151       0.0886939 
        1.30084       0.0902742       0.0876949 
        1.30697       0.0894243       0.0867097 
        1.31312       0.0884858       0.0857383 
        1.31925       0.0873973       0.0847848 
        1.32537       0.0864738       0.0838468 
        1.33151       0.0855437       0.0829197 
        1.33765       0.0845733       0.0820071 
        1.34378       0.0835898         0.08111 
        1.34992       0.0829657       0.0802258 
        1.35606       0.0819581       0.0793528 
         1.3622       0.0810738       0.0784943 
        1.36833       0.0803129       0.0776506 
        1.37445       0.0795639       0.0768197 
        1.38059        0.078571       0.0759984 
        1.38675       0.0777071       0.0751871 
        1.39288       0.0768052       0.0743908 
        1.39901       0.0762742       0.0736065 
        1.40515         0.07535       0.0728317 
         1.4113        0.074684       0.0720683 
        1.41742       0.0739499       0.0713187 
        1.42355       0.0729926       0.0705785 
         1.4297       0.0724545       0.0698465 
        1.43585       0.0716214       0.0691251 
        1.44198       0.0709347       0.0684167 
        1.44809       0.0702013       0.0677196 
        1.45423       0.0695364       0.0670296 
        1.46036       0.0688125       0.0663504 
        1.46649       0.0681253       0.0656805 
        1.47263       0.0673304       0.0650192 
        1.47877        0.066967       0.0643673 
        1.48491       0.0660907       0.0637234 
        1.49104        0.065635       0.0630896 
        1.49718       0.0649684        0.062464 
        1.50333       0.0642759       0.0618458 
        1.50947       0.0637207       0.0612373 
         1.5156       0.0630852       0.0606379 
        1.52172       0.0625014       0.0600465 
        1.52787       0.0618126       0.0594618 
          1.534       0.0613583       0.0588855 
        1.54013       0.0606989       0.0583176 
        1.54627        0.060195        0.057756 
        1.55241       0.0596525       0.0572018 
        1.55855       0.0590803       0.0566557 
        1.56467       0.0585852       0.0561181 
         1.5708       0.0579612        0.055586 
        1.57695       0.0574754         0.05506 
        1.58308       0.0568249        0.054542 
        1.58922       0.0564244       0.0540303 
        1.59535       0.0558535       0.0535253 
         1.6015       0.0554226       0.0530261 
        1.60764        0.054846       0.0525335 
        1.61376       0.0543756       0.0520485 
        1.61989       0.0538579       0.0515692 
        1.62604       0.0534123       0.0510948 
        1.63218       0.0529543       0.0506267 
        1.63831       0.0524979       0.0501656 
        1.64444       0.0520041         0.04971 
        1.65059       0.0514692        0.049259 
        1.65673        0.051123        0.048814 
        1.66285       0.0507025       0.0483758 
        1.66898       0.0501499       0.0479428 
        1.67512       0.0497711       0.0475143 
        1.68127       0.0493604       0.0470906 
         1.6874        0.048936        0.046673 
        1.69353       0.0485211       0.0462608 
        1.69967       0.0479926       0.0458525 
        1.70581       0.0477505       0.0454493 
        1.71193       0.0473237       0.0450525 
        1.71806       0.0468867       0.0446595 
        1.72421       0.0464308       0.0442705 
        1.73035       0.0461235       0.0438865 
        1.73649       0.0457017       0.0435072 
        1.74262       0.0453234       0.0431327 
        1.74876       0.0449978       0.0427623 
        1.75489       0.0445761        0.042397 
        1.76101       0.0442217       0.0420361 
        1.76715       0.0439096       0.0416788 
        1.77329       0.0434878       0.0413253 
        1.77943       0.0431131       0.0409758 
        1.78557        0.042837       0.0406308 
        1.79171       0.0424955       0.0402897 
        1.79785       0.0420774       0.0399524 
        1.80399       0.0417536       0.0396191 
        1.81012       0.0414428         0.03929 
        1.81625       0.0411026       0.0389648 
        1.82239       0.0408307       0.0386427 
        1.82853       0.0404632       0.0383245 
        1.83466       0.0401511       0.0380101 
        1.84078       0.0398678       0.0376996 
        1.84692       0.0395623       0.0373921 
        1.85306       0.0392346       0.0370876 
         1.8592       0.0389194       0.0367869 
        1.86533       0.0386572       0.0364898 
        1.87147       0.0383462       0.0361956 
        1.87761       0.0379897       0.0359045 
        1.88375       0.0376537       0.0356169 
        1.88988       0.0374656       0.0353328 
        1.89601       0.0371338       0.0350516 
        1.90215       0.0368273       0.0347733 
        1.90829       0.0365361       0.0344981 
        1.91442       0.0363074       0.0342258 
        1.92056       0.0360181       0.0339568 
         1.9267        0.035755       0.0336903 
        1.93284       0.0354426       0.0334266 
        1.93897       0.0351815       0.0331661 
        1.94509       0.0349234        0.032909 
        1.95123       0.0346875        0.032654 
        1.95737       0.0344767       0.0324014 
        1.96349       0.0342391       0.0321522 
        1.96964       0.0339182       0.0319049 
        1.97578       0.0336986       0.0316601 
        1.98192       0.0334495       0.0314183 
        1.98805       0.0332456        0.031179 
        1.99419       0.0329853       0.0309422 
        2.00033       0.0327013       0.0307078 
        2.00647       0.0324732       0.0304758 
         2.0126       0.0323287       0.0302466 
        2.01874       0.0320131       0.0300194 
        2.02488       0.0317804       0.0297943 
        2.03101       0.0315503        0.029572 
        2.03714       0.0314525       0.0293521 
        2.04328       0.0310951       0.0291342 
        2.04941       0.0309231       0.0289187 
        2.05554       0.0307379       0.0287056 
        2.06167       0.0304849       0.0284942 
        2.06781       0.0302598        0.028285 
        2.07396       0.0300382       0.0280776 
        2.08009       0.0298305       0.0278726 
        2.08622       0.0296581       0.0276699 
        2.09237       0.0294256       0.0274688 
        2.09851       0.0292577       0.0272697 
        2.10464       0.0290248       0.0270728 
        2.11077       0.0288305       0.0268781 
        2.11691       0.0286811       0.0266849 
        2.12305       0.0283985       0.0264936 
        2.12918       0.0282444       0.0263047 
        2.13531       0.0280544       0.0261175 
        2.14145       0.0278797       0.0259317 
         2.1476       0.0276895       0.0257475 
        2.15372       0.0275024       0.0255661 
        2.15985       0.0273106       0.0253862 
        2.16599       0.0270973       0.0252074 
        2.17213       0.0269871       0.0250307 
        2.17827       0.0267854       0.0248556 
         2.1844       0.0265809       0.0246824 
        2.19054        0.026444       0.0245107 
        2.19666       0.0262416       0.0243409 
         2.2028       0.0260454       0.0241726 
        2.20893       0.0259285       0.0240058 
        2.21508       0.0257071       0.0238404 
        2.22122       0.0255458       0.0236764 
        2.22736       0.0254003       0.0235144 
        2.23349       0.0252169       0.0233539 
        2.23962       0.0250978       0.0231948 
        2.24577        0.024917       0.0230371 
         2.2519       0.0247327        0.022881 
        2.25802       0.0246104       0.0227266 
        2.26417       0.0244559       0.0225732 
        2.27031       0.0243107       0.0224211 
        2.27644       0.0241649       0.0222708 
        2.28257        0.023996       0.0221219 
        2.28872       0.0238561       0.0219741 
        2.29486       0.0237012       0.0218277 
        2.30099        0.023535       0.0216829 
        2.30712       0.0234352       0.0215393 
        2.31326       0.0232341       0.0213968 
         2.3194       0.0231086       0.0212557 
        2.32553       0.0229908        0.021116 
        2.33166       0.0228172       0.0209777 
         2.3378       0.0226873       0.0208404 
        2.34394       0.0225415       0.0207043 
        2.35007       0.0224298       0.0205696 
        2.35619        0.022327       0.0204363 
        2.36233       0.0221444       0.0203038 
        2.36848        0.022011       0.0201723 
        2.37462       0.0218993       0.0200422 
        2.38075       0.0217533       0.0199133 
        2.38689       0.0216337       0.0197855 
        2.39303        0.021532       0.0196588 
        2.39916       0.0213425       0.0195333 
        2.40529       0.0212173        0.019409 
        2.41143         0.02109       0.0192856 
        2.41757       0.0209799       0.0191633 
         2.4237       0.0208384       0.0190422 
        2.42983       0.0207334       0.0189222 
        2.43598       0.0206113       0.0188029 
        2.44211       0.0204875       0.0186848 
        2.44823       0.0203662        0.018568 
        2.45437       0.0202513       0.0184519 
        2.46052       0.0201385       0.0183366 
        2.46665            0.02       0.0182226 
        2.47279       0.0199348       0.0181095 
        2.47892       0.0198206       0.0179974 
        2.48507       0.0196818       0.0178861 
         2.4912       0.0195796       0.0177759 
