# k  (h/Mpc)    P(k)  (Mpc/h)^3    P_linear(k)  (Mpc/h)^3
     0.00783031          96.325         97.1759 
       0.013688         117.699         118.094 
       0.019231         117.414         117.377 
      0.0249154         106.381         106.487 
      0.0312784         90.8323         90.6385 
      0.0375637         76.7959         76.5089 
      0.0433917         66.8215         66.6334 
      0.0492413         59.9709         59.7881 
      0.0555754         54.8367         54.7696 
      0.0619321         50.9703         50.8221 
       0.067871         47.1249         47.0974 
      0.0738098         42.9125         42.8989 
      0.0800417         38.1077          38.105 
      0.0862327         33.4897         33.4373 
      0.0921407         29.6265         29.5536 
      0.0982031         26.4843         26.4352 
       0.104506         24.2387         24.1461 
       0.110769         22.6834         22.6189 
       0.116806         21.5441          21.533 
       0.122832          20.551         20.5194 
       0.129052         19.3268         19.3285 
       0.135211         17.9345         17.9407 
       0.141259         16.4786         16.4559 
       0.147318         15.0447         14.9979 
       0.153489         13.7247         13.6905 
       0.159709         12.6726         12.6409 
       0.165845         11.9302         11.8731 
       0.171974         11.3279         11.3113 
       0.178125         10.8772         10.8589 
       0.184229         10.4533          10.428 
        0.19034         9.94898         9.95237 
       0.196428         9.42872         9.41622 
       0.202534         8.87726         8.83801 
       0.208729         8.27881         8.25564 
       0.214876         7.73751         7.72795 
       0.220989         7.31746         7.28163 
       0.227147         6.92702         6.91719 
        0.23329         6.63291         6.62422 
       0.239377         6.38613         6.37708 
       0.245482         6.14667         6.14444 
       0.251667          5.9191         5.90341 
       0.257832         5.65711         5.64877 
       0.263955         5.39777         5.38521 
       0.270079         5.13812         5.12264 
        0.27624         4.89877         4.87285 
       0.282372         4.67358         4.64879 
        0.28843         4.46984         4.45502 
       0.294538         4.29968         4.28502 
       0.300721         4.15455         4.13208 
        0.30691         4.00225         3.98955 
       0.313033         3.86471         3.85195 
       0.319153         3.71171         3.71378 
       0.325316         3.59349         3.57377 
        0.33145         3.45255         3.43584 
       0.337538         3.31973         3.30395 
       0.343633         3.19136         3.18011 
       0.349808         3.07984         3.06467 
       0.355968          2.9766         2.95965 
       0.362074         2.87746          2.8638 
       0.368217         2.78684         2.77348 
       0.374374         2.69346         2.68668 
       0.380519         2.61506         2.60213 
       0.386598         2.53504         2.52002 
       0.392688         2.45766         2.43937 
        0.39888         2.37483         2.35993 
       0.405048         2.30001          2.2843 
       0.411186         2.22963         2.21302 
       0.417313         2.15938         2.14613 
       0.423458         2.09969         2.08297 
       0.429607         2.03557         2.02303 
       0.435692          1.9786         1.96632 
       0.441815         1.92376         1.91124 
       0.447964         1.87488         1.85749 
       0.454126         1.81719         1.80516 
       0.460267         1.76588         1.75466 
       0.466387         1.71609         1.70609 
        0.47254          1.6701         1.65919 
       0.478662         1.62731         1.61458 
       0.484765         1.58227         1.57211 
       0.490885         1.54303         1.53131 
       0.497035         1.50789         1.49191 
       0.503198         1.46677         1.45386 
       0.509342         1.43238         1.41719 
       0.515458          1.3938         1.38181 
       0.521598         1.35977         1.34735 
       0.527764         1.32365         1.31387 
       0.533884         1.29599         1.28178 
           0.54         1.26384         1.25086 
       0.546137          1.2349         1.22093 
       0.552299         1.20515         1.19194 
       0.558452         1.17492         1.16401 
       0.564573         1.14965         1.13715 
       0.570708         1.12357         1.11111 
       0.576825         1.09736         1.08593 
       0.582926         1.07511         1.06156 
       0.589034         1.04682         1.03789 
       0.595184         1.02453         1.01478 
       0.601379         1.00261        0.992236 
       0.607522        0.982594        0.970586 
       0.613639        0.963363        0.949697 
       0.619772        0.939892        0.929393 
       0.625918        0.921064        0.909657 
       0.632068        0.903133        0.890492 
       0.638161        0.883373        0.872057 
         0.6443        0.865307        0.854016 
       0.650464        0.845871        0.836425 
       0.656582        0.830362        0.819459 
       0.662703        0.814121        0.802961 
       0.668861          0.7997        0.786828 
       0.675024        0.782386        0.771131 
       0.681124        0.765541        0.756026 
       0.687237        0.752558        0.741303 
       0.693381        0.738546        0.726911 
       0.699536        0.721668        0.712884 
       0.705665        0.708511        0.699294 
       0.711789        0.696903        0.686076 
       0.717957        0.682506        0.673114 
        0.72409        0.670581        0.660563 
       0.730186        0.657743        0.648412 
       0.736317        0.647729        0.636503 
       0.742472        0.635514        0.624852 
       0.748622        0.623493        0.613507 
        0.75476         0.61133        0.602472 
       0.760888         0.60032        0.591727 
       0.767043        0.592747        0.581206 
       0.773185        0.580586        0.570966 
       0.779291        0.570516        0.561033 
       0.785407        0.561069        0.551326 
       0.791564        0.551723         0.54179 
       0.797719        0.542848        0.532487 
       0.803834        0.534007        0.523465 
       0.809972        0.524473        0.514621 
       0.816124        0.515558        0.505965 
       0.822261         0.50646        0.497534 
       0.828378         0.49909        0.489323 
       0.834502        0.491505        0.481292 
       0.840667        0.482333        0.473391 
       0.846816        0.474806        0.465692 
       0.852925        0.468548        0.458214 
       0.859047        0.461071        0.450887 
       0.865192        0.452887        0.443698 
       0.871341        0.445701        0.436662 
       0.877463        0.440179        0.429812 
       0.883569        0.432446        0.423129 
       0.889708        0.426126        0.416554 
       0.895864        0.419301        0.410104 
       0.902008         0.41285        0.403806 
       0.908149         0.40648        0.397645 
       0.914301        0.399356        0.391604 
       0.920448        0.394024        0.385696 
       0.926574        0.387969        0.379931 
       0.932687        0.381995        0.374298 
       0.938823        0.377716         0.36876 
       0.944975        0.372081        0.363323 
       0.951105         0.36675        0.358016 
       0.957225        0.362349        0.352825 
       0.963368        0.356657        0.347721 
       0.969511        0.350954        0.342719 
       0.975621        0.345951        0.337843 
       0.981748        0.342198         0.33305 
       0.987916        0.337066        0.328321 
        0.99406        0.332131        0.323702 
        1.00019        0.328172        0.319183 
        1.00632        0.322778        0.314754 
        1.01246        0.318211        0.310404 
        1.01859        0.314586        0.306144 
        1.02471        0.310244         0.30197 
        1.03085        0.306877         0.29786 
        1.03698        0.302061        0.293836 
        1.04314        0.298225         0.28987 
        1.04929        0.293976        0.285987 
        1.05541        0.290707        0.282191 
        1.06154        0.286475        0.278456 
        1.06769        0.282509        0.274783 
        1.07382          0.2791        0.271188 
        1.07993        0.275281        0.267667 
        1.08607        0.272676        0.264195 
        1.09222         0.26862        0.260781 
        1.09836        0.265955        0.257432 
        1.10449        0.262557        0.254146 
        1.11063        0.258556        0.250914 
        1.11677        0.255245        0.247741 
         1.1229        0.252439        0.244628 
        1.12903        0.249091        0.241566 
        1.13518        0.246437        0.238555 
        1.14131        0.243158        0.235597 
        1.14745        0.239469        0.232691 
        1.15359        0.237212        0.229834 
        1.15973        0.233864        0.227025 
        1.16584         0.23183        0.224275 
        1.17197        0.228896        0.221568 
        1.17811        0.226591        0.218897 
        1.18424        0.224182        0.216279 
        1.19038        0.221045        0.213696 
        1.19652        0.218021        0.211157 
        1.20267        0.216213        0.208659 
        1.20881        0.213581        0.206203 
        1.21495        0.211485         0.20379 
        1.22108         0.20872        0.201416 
         1.2272        0.206691        0.199087 
        1.23334        0.204059        0.196789 
        1.23949        0.201808        0.194522 
        1.24562        0.199616        0.192298 
        1.25174        0.197497        0.190112 
        1.25789        0.195638        0.187953 
        1.26402        0.192805        0.185832 
        1.27014        0.190988         0.18375 
        1.27628        0.189088        0.181693 
        1.28244        0.186516        0.179664 
        1.28858        0.184802        0.177669 
        1.29471        0.183281        0.175709 
        1.30084        0.180872         0.17378 
        1.30697        0.178918        0.171878 
        1.31312        0.176589        0.170001 
        1.31925         0.17495        0.168159 
        1.32537        0.173327        0.166346 
        1.33151        0.171655        0.164553 
        1.33765        0.169902        0.162788 
        1.34378         0.16781        0.161053 
        1.34992        0.166128        0.159341 
        1.35606        0.164501        0.157652 
         1.3622        0.162893         0.15599 
        1.36833        0.161107        0.154356 
        1.37445         0.15908        0.152746 
        1.38059        0.157703        0.151155 
        1.38675        0.156663        0.149583 
        1.39288        0.154878        0.148039 
        1.39901        0.153232        0.146518 
        1.40515        0.151995        0.145015 
         1.4113        0.150061        0.143534 
        1.41742        0.148612         0.14208 
        1.42355        0.147491        0.140643 
         1.4297        0.145786        0.139222 
        1.43585        0.144473        0.137821 
        1.44198        0.143254        0.136445 
        1.44809        0.141637        0.135091 
        1.45423        0.140441         0.13375 
        1.46036        0.138971        0.132429 
        1.46649        0.137987        0.131127 
        1.47263        0.136465         0.12984 
        1.47877        0.134935        0.128572 
        1.48491        0.133865        0.127319 
        1.49104        0.132344        0.126085 
        1.49718        0.131119        0.124867 
        1.50333        0.130273        0.123663 
        1.50947        0.128786        0.122477 
         1.5156        0.127628        0.121309 
        1.52172        0.126499        0.120156 
        1.52787        0.125331        0.119016 
          1.534        0.123997        0.117892 
        1.54013        0.122932        0.116784 
        1.54627         0.12209        0.115688 
        1.55241        0.120704        0.114607 
        1.55855         0.11953         0.11354 
        1.56467        0.118953         0.11249 
         1.5708        0.117661        0.111451 
        1.57695        0.116595        0.110423 
        1.58308        0.115465        0.109411 
        1.58922        0.114558        0.108411 
        1.59535        0.113549        0.107424 
         1.6015        0.112456        0.106447 
        1.60764         0.11154        0.105484 
        1.61376         0.11045        0.104535 
        1.61989        0.109654        0.103597 
        1.62604        0.108772        0.102668 
        1.63218        0.107779        0.101752 
        1.63831        0.106893        0.100849 
        1.64444        0.105959       0.0999564 
        1.65059        0.105069       0.0990728 
        1.65673        0.104231       0.0982008 
        1.66285        0.103523       0.0973419 
        1.66898        0.102535        0.096493 
        1.67512        0.101536       0.0956526 
        1.68127        0.100658       0.0948216 
         1.6874        0.100035       0.0940023 
        1.69353       0.0989129       0.0931933 
        1.69967       0.0984768       0.0923919 
        1.70581       0.0972882       0.0916004 
        1.71193       0.0966042       0.0908211 
        1.71806        0.095712       0.0900494 
        1.72421       0.0952633       0.0892851 
        1.73035       0.0942408       0.0885306 
        1.73649       0.0936822        0.087785 
        1.74262       0.0928554       0.0870486 
        1.74876       0.0920662       0.0863202 
        1.75489       0.0914513       0.0856017 
        1.76101       0.0905498       0.0848917 
        1.76715       0.0898619       0.0841888 
        1.77329       0.0890396        0.083493 
        1.77943       0.0884521       0.0828048 
        1.78557       0.0878508       0.0821254 
        1.79171       0.0871673       0.0814536 
        1.79785        0.086475       0.0807892 
        1.80399       0.0857715       0.0801324 
        1.81012       0.0851555       0.0794839 
        1.81625       0.0844569       0.0788428 
        1.82239       0.0837723       0.0782079 
        1.82853       0.0831225       0.0775803 
        1.83466       0.0825407       0.0769603 
        1.84078       0.0819052       0.0763477 
        1.84692       0.0811712       0.0757408 
        1.85306       0.0807376       0.0751399 
         1.8592       0.0799768       0.0745464 
        1.86533       0.0795042       0.0739597 
        1.87147       0.0788169       0.0733787 
        1.87761       0.0784101       0.0728036 
        1.88375       0.0777615       0.0722355 
        1.88988       0.0771191       0.0716741 
        1.89601       0.0765458       0.0711183 
        1.90215       0.0759802       0.0705681 
        1.90829       0.0753435       0.0700239 
        1.91442       0.0750076       0.0694855 
        1.92056       0.0743244       0.0689533 
         1.9267       0.0737379       0.0684261 
        1.93284       0.0732442       0.0679041 
        1.93897       0.0727226       0.0673887 
        1.94509       0.0722872       0.0668797 
        1.95123       0.0716813       0.0663746 
        1.95737       0.0712229       0.0658745 
        1.96349       0.0706496       0.0653809 
        1.96964       0.0701444       0.0648909 
        1.97578       0.0696426       0.0644057 
        1.98192       0.0692483       0.0639265 
        1.98805       0.0687439       0.0634521 
        1.99419       0.0681632       0.0629825 
        2.00033       0.0676834       0.0625175 
        2.00647       0.0673775       0.0620574 
         2.0126       0.0667286       0.0616026 
        2.01874       0.0664314       0.0611517 
        2.02488       0.0659682        0.060705 
        2.03101       0.0654991       0.0602636 
        2.03714       0.0649187        0.059827 
        2.04328       0.0646514       0.0593943 
        2.04941       0.0640401       0.0589662 
        2.05554       0.0637513       0.0585426 
        2.06167       0.0633981       0.0581227 
        2.06781       0.0628217       0.0577069 
        2.07396       0.0624426       0.0572945 
        2.08009       0.0619994       0.0568869 
        2.08622       0.0616287       0.0564838 
        2.09237       0.0612276       0.0560838 
        2.09851       0.0608133       0.0556876 
        2.10464        0.060467       0.0552959 
        2.11077       0.0599943       0.0549085 
        2.11691        0.059585        0.054524 
        2.12305       0.0592167       0.0541431 
        2.12918       0.0588947       0.0537668 
        2.13531       0.0583853       0.0533941 
        2.14145       0.0579757        0.053024 
         2.1476       0.0576716       0.0526571 
        2.15372       0.0573973       0.0522954 
        2.15985       0.0569133       0.0519369 
        2.16599       0.0565549       0.0515806 
        2.17213       0.0562256       0.0512282 
        2.17827       0.0558196       0.0508791 
         2.1844       0.0555633       0.0505336 
        2.19054       0.0551743       0.0501912 
        2.19666       0.0547987       0.0498524 
         2.2028        0.054412       0.0495166 
        2.20893       0.0541857       0.0491836 
        2.21508       0.0537925       0.0488534 
        2.22122       0.0533927       0.0485261 
        2.22736       0.0531569       0.0482025 
        2.23349       0.0527909       0.0478819 
        2.23962       0.0525627       0.0475641 
        2.24577        0.052149       0.0472489 
         2.2519       0.0518541        0.046937 
        2.25802       0.0515221       0.0466285 
        2.26417       0.0512112       0.0463219 
        2.27031       0.0508485       0.0460177 
        2.27644       0.0505581       0.0457172 
        2.28257       0.0502875       0.0454194 
        2.28872       0.0499857       0.0451237 
        2.29486       0.0497563       0.0448307 
        2.30099       0.0493987        0.044541 
        2.30712       0.0490173       0.0442536 
        2.31326       0.0487466       0.0439683 
         2.3194       0.0485791       0.0436858 
        2.32553       0.0482289       0.0434061 
        2.33166       0.0480361       0.0431291 
         2.3378       0.0477306       0.0428541 
        2.34394       0.0473896       0.0425814 
        2.35007       0.0470837       0.0423115 
        2.35619       0.0467441       0.0420443 
        2.36233       0.0465759       0.0417787 
        2.36848       0.0463979        0.041515 
        2.37462       0.0460184        0.041254 
        2.38075       0.0457643       0.0409956 
        2.38689       0.0455001       0.0407391 
        2.39303       0.0452883        0.040485 
        2.39916       0.0449939       0.0402332 
        2.40529       0.0447795       0.0399837 
        2.41143       0.0444537        0.039736 
        2.41757       0.0442238       0.0394904 
         2.4237       0.0440407       0.0392473 
        2.42983       0.0438126       0.0390063 
        2.43598       0.0435873       0.0387667 
        2.44211       0.0432407       0.0385295 
        2.44823       0.0430482       0.0382948 
        2.45437       0.0427689       0.0380615 
        2.46052       0.0425729       0.0378299 
        2.46665       0.0422789       0.0376006 
        2.47279       0.0420669       0.0373733 
        2.47892       0.0417643       0.0371478 
        2.48507       0.0415712       0.0369239 
         2.4912       0.0413674       0.0367023 
