# k  (h/Mpc)    Pcb(k)  (Mpc/h)^3    Pcb_linear(k)  (Mpc/h)^3
     0.00783031         9370.97         9496.24 
       0.013688         11020.8         10957.7 
       0.019231         10369.3           10338 
      0.0249154         8734.32          8846.1 
      0.0312784         7034.62         7052.58 
      0.0375637         5685.83         5647.63 
      0.0433917          4757.5         4780.04 
      0.0492413         4261.62         4255.24 
      0.0555754         3858.96         3918.74 
      0.0619321         3683.14         3653.47 
       0.067871         3324.35         3364.32 
      0.0738098         2973.92          3004.4 
      0.0800417          2550.5         2585.31 
      0.0862327         2194.23         2192.93 
      0.0921407         1923.62          1891.3 
      0.0982031         1694.88         1675.68 
       0.104506         1594.41         1541.82 
       0.110769         1506.92         1468.29 
       0.116806         1439.27         1416.76 
       0.122832         1379.97         1354.09 
       0.129052         1268.49         1261.83 
       0.135211          1162.9         1146.07 
       0.141259          1066.6         1024.84 
       0.147318          968.92         914.322 
       0.153489         874.244         825.891 
       0.159709         820.683          765.05 
       0.165845         789.696         728.055 
       0.171974         754.075         704.176 
       0.178125         727.711         682.471 
       0.184229         698.758          655.01 
        0.19034         648.353         618.484 
       0.196428         622.114         575.172 
       0.202534             589         530.076 
       0.208729         547.832         488.409 
       0.214876         513.827         454.952 
       0.220989         493.573         430.398 
       0.227147         471.038         412.845 
        0.23329          454.01         399.398 
       0.239377         444.091         386.792 
       0.245482         414.862         372.439 
       0.251667         407.918         355.222 
       0.257832         390.499         336.062 
       0.263955          373.08         316.679 
       0.270079         355.586         298.656 
        0.27624         347.793         283.141 
       0.282372         334.406          270.61 
        0.28843         323.075         260.663 
       0.294538          308.36         252.135 
       0.300721         305.146         243.995 
        0.30691         290.971         235.519 
       0.313033         283.633         226.488 
       0.319153         272.055         216.969 
       0.325316         264.627         207.348 
        0.33145         254.695         198.264 
       0.337538         250.036         190.136 
       0.343633         241.106         183.005 
       0.349808         232.935         176.728 
       0.355968         229.333         171.102 
       0.362074         223.648         165.849 
       0.368217          217.18          160.61 
       0.374374         209.006          155.27 
       0.380519          205.85         149.883 
       0.386598         200.166         144.591 
       0.392688         196.922         139.498 
        0.39888         191.634         134.662 
       0.405048         186.507         130.232 
       0.411186         182.452         126.208 
       0.417313         178.472         122.488 
       0.423458          174.48         118.943 
       0.429607         170.592         115.504 
       0.435692         165.178         112.157 
       0.441815         163.631         108.819 
       0.447964         160.392         105.533 
       0.454126         153.672         102.354 
       0.460267         151.791         99.3316 
       0.466387         149.706         96.4803 
        0.47254         146.078         93.7858 
       0.478662         145.138         91.2546 
       0.484765         140.306         88.8428 
       0.490885         138.111         86.5047 
       0.497035         136.169         84.2207 
       0.503198          132.45         81.9923 
       0.509342         130.419         79.8267 
       0.515458         128.417         77.7328 
       0.521598         126.066         75.7058 
       0.527764         124.363         73.7577 
       0.533884         122.479           71.91 
           0.54         120.135         70.1404 
       0.546137         119.002         68.4304 
       0.552299         116.798         66.7715 
       0.558452         114.793         65.1683 
       0.564573         112.839         63.6215 
       0.570708         110.712         62.1157 
       0.576825         109.382         60.6572 
       0.582926         107.133         59.2465 
       0.589034         105.652         57.8797 
       0.595184         104.241         56.5515 
       0.601379         102.757         55.2619 
       0.607522         100.598         54.0275 
       0.613639         100.019          52.838 
       0.619772         97.9188         51.6811 
       0.625918         96.6446         50.5545 
       0.632068         95.5651         49.4586 
       0.638161         94.5329         48.4035 
         0.6443         93.2622         47.3714 
       0.650464         92.2532         46.3662 
       0.656582         90.6691         45.3989 
       0.662703         89.3359         44.4603 
       0.668861         88.0189          43.544 
       0.675024         87.0282         42.6534 
       0.681124         86.1977         41.7968 
       0.687237         84.5436         40.9619 
       0.693381         83.4375         40.1457 
       0.699536         82.7025           39.35 
       0.705665         82.6285         38.5794 
       0.711789         80.6146         37.8301 
       0.717957         80.1816         37.0959 
        0.72409         78.8761         36.3856 
       0.730186          77.636         35.6986 
       0.736317         77.3276         35.0259 
       0.742472         76.5399         34.3684 
       0.748622         75.6088         33.7285 
        0.75476         74.8362         33.1065 
       0.760888         73.7864         32.5012 
       0.767043         73.2025         31.9086 
       0.773185         72.3287         31.3321 
       0.779291         71.4634         30.7731 
       0.785407         70.9341          30.227 
       0.791564         70.3072         29.6908 
       0.797719         68.9882         29.1679 
       0.803834         68.6838         28.6611 
       0.809972         67.5942         28.1646 
       0.816124         67.2094         27.6788 
       0.822261         66.6502          27.206 
       0.828378         66.1231         26.7457 
       0.834502         65.4545         26.2958 
       0.840667         64.6841         25.8535 
       0.846816         63.8207         25.4226 
       0.852925         63.3734         25.0044 
       0.859047          62.536         24.5948 
       0.865192         62.1609         24.1931 
       0.871341         61.7212         23.8002 
       0.877463         60.7417         23.4178 
       0.883569         60.4207         23.0449 
       0.889708         59.9471         22.6783 
       0.895864         59.4768         22.3187 
       0.902008         58.8885         21.9678 
       0.908149         58.4584         21.6246 
       0.914301         57.8846         21.2883 
       0.920448         57.4469         20.9596 
       0.926574         56.8207         20.6389 
       0.932687         56.6959         20.3257 
       0.938823           55.78         20.0179 
       0.944975         55.3438         19.7158 
       0.951105         54.8871         19.4211 
       0.957225         54.2652         19.1329 
       0.963368         54.1059         18.8496 
       0.969511         53.7435         18.5722 
       0.975621         53.4018         18.3018 
       0.981748         52.7836         18.0361 
       0.987916         52.3245          17.774 
        0.99406         52.0164         17.5182 
        1.00019         51.5187         17.2679 
        1.00632         51.2006         17.0228 
        1.01246         50.8439         16.7821 
        1.01859         50.1271         16.5465 
        1.02471         50.0688         16.3157 
        1.03085         49.6042         16.0885 
        1.03698         49.2153         15.8662 
        1.04314         48.7977         15.6471 
        1.04929         48.4466         15.4328 
        1.05541         47.9449         15.2233 
        1.06154         47.9433         15.0172 
        1.06769          47.471         14.8147 
        1.07382         47.2266         14.6165 
        1.07993         46.8976         14.4225 
        1.08607         46.5235         14.2312 
        1.09222         46.2501         14.0432 
        1.09836         45.8586         13.8588 
        1.10449         45.5991          13.678 
        1.11063         45.1308         13.5003 
        1.11677         44.8747         13.3257 
         1.1229         44.5198         13.1546 
        1.12903         43.9748         12.9864 
        1.13518         44.1699         12.8209 
        1.14131         43.8256         12.6585 
        1.14745         43.2545          12.499 
        1.15359         43.1906         12.3422 
        1.15973         42.6893         12.1881 
        1.16584         42.4937         12.0372 
        1.17197         42.2305         11.8888 
        1.17811         42.0535         11.7424 
        1.18424         41.6322         11.5989 
        1.19038         41.3564         11.4574 
        1.19652         41.2799         11.3183 
        1.20267         40.8767         11.1816 
        1.20881         40.6857         11.0471 
        1.21495          40.313         10.9151 
        1.22108          40.186         10.7852 
         1.2272         39.7197         10.6578 
        1.23334         39.5705         10.5321 
        1.23949         39.5454         10.4082 
        1.24562         39.0624         10.2866 
        1.25174         38.9598         10.1672 
        1.25789         38.7832         10.0493 
        1.26402         38.4278         9.93349 
        1.27014         38.0893         9.81979 
        1.27628          37.913         9.70753 
        1.28244         37.7261         9.59683 
        1.28858         37.5662         9.48801 
        1.29471         37.3895         9.38112 
        1.30084         37.1795         9.27599 
        1.30697         36.9057         9.17232 
        1.31312         36.6284         9.07009 
        1.31925         36.4869         8.96974 
        1.32537         36.3161         8.87102 
        1.33151         35.9755         8.77344 
        1.33765         35.8954          8.6774 
        1.34378         35.6504         8.58298 
        1.34992         35.4261         8.48991 
        1.35606         35.2307         8.39803 
         1.3622         35.0364         8.30768 
        1.36833         34.7901         8.21887 
        1.37445         34.6966         8.13142 
        1.38059         34.4622         8.04497 
        1.38675         34.1835         7.95958 
        1.39288         34.1393         7.87578 
        1.39901         33.8907         7.79322 
        1.40515          33.705         7.71166 
         1.4113         33.5546          7.6313 
        1.41742         33.3614          7.5524 
        1.42355         33.1414         7.47447 
         1.4297         33.0215         7.39741 
        1.43585         32.9031         7.32146 
        1.44198         32.5747         7.24688 
        1.44809         32.5187         7.17348 
        1.45423          32.325         7.10083 
        1.46036         32.2279         7.02931 
        1.46649         32.0051         6.95877 
        1.47263         31.8057         6.88913 
        1.47877          31.692         6.82048 
        1.48491         31.6785         6.75267 
        1.49104         31.3558         6.68592 
        1.49718         31.0495         6.62003 
        1.50333         31.0695         6.55492 
        1.50947         30.9423         6.49082 
         1.5156         30.7235         6.42768 
        1.52172         30.6053         6.36538 
        1.52787          30.505         6.30378 
          1.534         30.3284         6.24307 
        1.54013         30.1013         6.18323 
        1.54627         30.0269         6.12407 
        1.55241         29.7385         6.06567 
        1.55855         29.7047         6.00812 
        1.56467         29.4067         5.95148 
         1.5708          29.494         5.89541 
        1.57695          29.211         5.83998 
        1.58308         29.0899         5.78539 
        1.58922         29.0423         5.73147 
        1.59535         28.8794         5.67825 
         1.6015          28.654         5.62564 
        1.60764          28.495         5.57372 
        1.61376         28.3732          5.5226 
        1.61989         28.2199         5.47208 
        1.62604         28.1423         5.42209 
        1.63218         28.0636         5.37275 
        1.63831          27.872         5.32414 
        1.64444         27.7529         5.27611 
        1.65059         27.6011         5.22856 
        1.65673         27.4314         5.18165 
        1.66285         27.3547         5.13545 
        1.66898         27.2011          5.0898 
        1.67512         27.0849         5.04462 
        1.68127         26.9249         4.99994 
         1.6874         26.8136         4.95591 
        1.69353         26.7058         4.91244 
        1.69967         26.5689         4.86938 
        1.70581         26.4868         4.82687 
        1.71193         26.3857         4.78502 
        1.71806         26.1613         4.74358 
        1.72421         26.0561         4.70255 
        1.73035         25.9252         4.66205 
        1.73649         25.8171         4.62204 
        1.74262          25.716         4.58253 
        1.74876         25.6801         4.54346 
        1.75489         25.5235         4.50492 
        1.76101         25.3713         4.46685 
        1.76715         25.2974         4.42916 
        1.77329         25.2284         4.39186 
        1.77943         25.1015         4.35498 
        1.78557         24.9053         4.31857 
        1.79171         24.8147         4.28258 
        1.79785         24.6955         4.24699 
        1.80399         24.6557         4.21181 
        1.81012         24.5166         4.17708 
        1.81625         24.4187         4.14276 
        1.82239         24.3083         4.10877 
        1.82853         24.1759         4.07518 
        1.83466         24.1024           4.042 
        1.84078         23.8989         4.00923 
        1.84692         23.8388         3.97676 
        1.85306         23.7377         3.94462 
         1.8592         23.6189         3.91288 
        1.86533         23.5246         3.88151 
        1.87147         23.4569         3.85045 
        1.87761         23.3768         3.81971 
        1.88375         23.2804         3.78935 
        1.88988         23.1794         3.75935 
        1.89601         23.0537         3.72966 
        1.90215         22.9594         3.70027 
        1.90829         22.9106         3.67121 
        1.91442         22.7767         3.64245 
        1.92056         22.6963         3.61404 
         1.9267         22.5772         3.58589 
        1.93284         22.4292         3.55803 
        1.93897         22.4143         3.53052 
        1.94509          22.285         3.50336 
        1.95123          22.211         3.47642 
        1.95737         22.0722         3.44974 
        1.96349         22.0175         3.42342 
        1.96964           21.92         3.39729 
        1.97578            21.8         3.37142 
        1.98192         21.7173         3.34587 
        1.98805         21.6613         3.32059 
        1.99419         21.5601         3.29557 
        2.00033         21.4379         3.27079 
        2.00647         21.3626         3.24628 
         2.0126         21.2834         3.22205 
        2.01874         21.1883         3.19804 
        2.02488         21.1376         3.17426 
        2.03101         21.0202         3.15075 
        2.03714         20.9415         3.12751 
        2.04328         20.8357         3.10448 
        2.04941         20.7508          3.0817 
        2.05554         20.6904         3.05916 
        2.06167         20.6056         3.03682 
        2.06781         20.5121          3.0147 
        2.07396          20.458         2.99277 
        2.08009          20.399          2.9711 
        2.08622         20.2254         2.94966 
        2.09237         20.1861          2.9284 
        2.09851         20.1174         2.90734 
        2.10464         20.0231         2.88652 
        2.11077         19.9253         2.86593 
        2.11691         19.8746          2.8455 
        2.12305         19.8201         2.82527 
        2.12918         19.7267         2.80528 
        2.13531         19.6472         2.78549 
        2.14145         19.6134         2.76584 
         2.1476         19.4943         2.74635 
        2.15372          19.391         2.72716 
        2.15985         19.2948         2.70812 
        2.16599         19.2793         2.68922 
        2.17213         19.1999         2.67051 
        2.17827         19.0724         2.65199 
         2.1844         18.9776         2.63366 
        2.19054         18.9529          2.6155 
        2.19666         18.8756         2.59753 
         2.2028         18.7969         2.57972 
        2.20893         18.7348         2.56207 
        2.21508          18.654         2.54456 
        2.22122         18.5107         2.52721 
        2.22736         18.5195         2.51005 
        2.23349          18.424         2.49307 
        2.23962         18.3524         2.47622 
        2.24577         18.2622         2.45953 
         2.2519         18.2312           2.443 
        2.25802         18.1164         2.42666 
        2.26417         18.1059         2.41042 
        2.27031          17.995         2.39431 
        2.27644         17.9296          2.3784 
        2.28257         17.8471         2.36264 
        2.28872         17.7637         2.34699 
        2.29486         17.7337         2.33148 
        2.30099         17.6386         2.31614 
        2.30712         17.5869         2.30094 
        2.31326         17.5477         2.28585 
         2.3194         17.4785          2.2709 
        2.32553         17.3812         2.25611 
        2.33166         17.2935         2.24146 
         2.3378         17.2487         2.22691 
        2.34394         17.1851          2.2125 
        2.35007         17.1236         2.19823 
        2.35619         17.0293          2.1841 
        2.36233         16.9863         2.17007 
        2.36848         16.9128         2.15613 
        2.37462         16.8397         2.14234 
        2.38075         16.7851         2.12868 
        2.38689         16.7492         2.11514 
        2.39303         16.6555         2.10171 
        2.39916         16.5906         2.08841 
        2.40529          16.538         2.07523 
        2.41143          16.465         2.06216 
        2.41757         16.4275         2.04919 
         2.4237         16.3392         2.03636 
        2.42983         16.2634         2.02364 
        2.43598         16.2484         2.01099 
        2.44211         16.1658         1.99847 
        2.44823         16.1104         1.98609 
        2.45437         16.0283         1.97378 
        2.46052         15.9946         1.96156 
        2.46665          15.956         1.94947 
        2.47279         15.8461         1.93748 
        2.47892         15.8159         1.92559 
        2.48507         15.7485         1.91379 
         2.4912         15.7243          1.9021 
