# k  (h/Mpc)    Pcb(k)  (Mpc/h)^3    Pcb_linear(k)  (Mpc/h)^3
     0.00783031         8943.58         8996.47 
       0.013688         10828.1         11058.4 
       0.019231         10912.7         11037.6 
      0.0249154           10010         9983.38 
      0.0312784         8365.14          8408.4 
      0.0375637          6924.8         6998.72 
      0.0433917         6021.82         6025.99 
      0.0492413         5335.66         5374.89 
      0.0555754            4930         4930.59 
      0.0619321         4491.67         4609.17 
       0.067871         4252.14         4307.09 
      0.0738098         3918.76         3946.14 
      0.0800417         3501.97         3507.17 
      0.0862327          3049.9         3059.05 
      0.0921407         2687.57         2675.62 
      0.0982031         2410.92         2365.14 
       0.104506         2155.96         2141.93 
       0.110769         2024.38         2004.05 
       0.116806         1962.42         1919.05 
       0.122832         1862.43         1847.07 
       0.129052         1773.67          1758.1 
       0.135211         1688.23          1642.6 
       0.141259         1540.33         1507.29 
       0.147318         1394.04         1365.78 
       0.153489         1284.17         1233.99 
       0.159709         1206.85         1127.15 
       0.165845         1104.34         1051.46 
       0.171974          1082.3         1001.17 
       0.178125         1046.73         966.509 
       0.184229         983.759         936.615 
        0.19034         963.315         901.995 
       0.196428          926.53         858.291 
       0.202534         857.226         806.033 
       0.208729         829.931         749.319 
       0.214876         785.427         695.662 
       0.220989         730.727         649.876 
       0.227147         711.077         613.709 
        0.23329         684.013         587.013 
       0.239377         674.069         567.119 
       0.245482         641.958         550.026 
       0.251667          618.03         532.188 
       0.257832         609.977         511.768 
       0.263955         575.152         488.501 
       0.270079         552.217         463.461 
        0.27624         527.092          438.49 
       0.282372         513.327         415.741 
        0.28843         507.672         396.544 
       0.294538          481.79         380.663 
       0.300721         466.989         367.563 
        0.30691         459.369         356.216 
       0.313033         439.228         345.514 
       0.319153         432.133         334.364 
       0.325316         422.504          322.32 
        0.33145         411.453          309.63 
       0.337538         396.155         296.929 
       0.343633         383.868         284.724 
       0.349808         373.344         273.458 
       0.355968         365.724         263.543 
       0.362074         354.476         254.979 
       0.368217         350.879         247.319 
       0.374374           343.2         240.161 
       0.380519         329.311          233.18 
       0.386598          324.79         226.159 
       0.392688         316.452         218.971 
        0.39888         308.775         211.624 
       0.405048         302.479         204.438 
       0.411186         300.308         197.649 
       0.417313         294.877         191.377 
       0.423458         286.712         185.605 
       0.429607         279.279         180.317 
       0.435692         274.721         175.442 
       0.441815         269.469         170.736 
       0.447964         262.551         166.104 
       0.454126         258.898         161.511 
       0.460267         255.334         156.957 
       0.466387         249.895         152.486 
        0.47254         246.786         148.137 
       0.478662         239.931         144.014 
       0.484765         236.923         140.125 
       0.490885         233.631         136.449 
       0.497035         230.208         132.965 
       0.503198         228.068         129.641 
       0.509342         222.111         126.435 
       0.515458         219.037         123.313 
       0.521598         214.256         120.244 
       0.527764         211.966         117.233 
       0.533884         210.999          114.32 
           0.54         206.439         111.498 
       0.546137         201.784         108.771 
       0.552299         200.196         106.151 
       0.558452         196.733         103.656 
       0.564573         195.594         101.274 
       0.570708         191.108         98.9677 
       0.576825         188.458          96.734 
       0.582926          186.52         94.5634 
       0.589034         183.751         92.4479 
       0.595184         182.298         90.3764 
       0.601379         178.829         88.3498 
       0.607522         175.274         86.3999 
       0.613639         174.184          84.518 
       0.619772         172.377         82.6918 
       0.625918         170.843          80.923 
       0.632068         167.049         79.2129 
       0.638161         165.795         77.5727 
         0.6443         164.527         75.9693 
       0.650464         161.397         74.4042 
       0.656582         160.429         72.8906 
       0.662703         158.945         71.4141 
       0.668861          155.75          69.967 
       0.675024         155.645         68.5579 
       0.681124         153.245         67.2024 
       0.687237         151.463         65.8833 
       0.693381           149.8         64.5968 
       0.699536         148.253         63.3451 
       0.705665         146.668         62.1337 
       0.711789          144.83          60.956 
       0.717957         143.263         59.8008 
        0.72409         141.818         58.6813 
       0.730186         141.836         57.5961 
       0.736317         139.568         56.5316 
       0.742472         137.525         55.4897 
       0.748622         135.518         54.4749 
        0.75476         136.006         53.4878 
       0.760888         134.425         52.5272 
       0.767043         132.051          51.587 
       0.773185         130.761         50.6725 
       0.779291         129.288          49.786 
       0.785407         128.442         48.9198 
       0.791564         127.488         48.0693 
       0.797719         125.631         47.2396 
       0.803834         125.657          46.435 
       0.809972         124.521         45.6463 
       0.816124          122.58         44.8743 
       0.822261         121.612         44.1222 
       0.828378         121.326         43.3898 
       0.834502         119.649         42.6735 
       0.840667         119.115         41.9688 
       0.846816         117.773         41.2822 
       0.852925         116.605         40.6154 
       0.859047         115.791          39.962 
       0.865192         114.927         39.3211 
       0.871341          113.71         38.6939 
       0.877463         112.759         38.0834 
       0.883569         112.719         37.4877 
       0.889708         111.609         36.9019 
       0.895864         110.603         36.3272 
       0.902008          109.46         35.7661 
       0.908149         108.157         35.2172 
       0.914301         108.073         34.6791 
       0.920448         107.741         34.1528 
       0.926574         105.647         33.6394 
       0.932687          105.65         33.1377 
       0.938823          104.85         32.6445 
       0.944975         103.783         32.1602 
       0.951105         102.869         31.6877 
       0.957225         102.611         31.2255 
       0.963368         101.496          30.771 
       0.969511         100.868         30.3256 
       0.975621         99.7708         29.8915 
       0.981748         99.1424         29.4648 
       0.987916         98.5149         29.0438 
        0.99406         98.1544         28.6327 
        1.00019         97.0461         28.2304 
        1.00632         96.3539         27.8363 
        1.01246         95.8532         27.4492 
        1.01859         95.3619         27.0701 
        1.02471         94.6567         26.6986 
        1.03085         93.7405          26.333 
        1.03698         93.1346          25.975 
        1.04314         92.5394         25.6222 
        1.04929         92.1939         25.2768 
        1.05541         91.4587         24.9392 
        1.06154         90.8542          24.607 
        1.06769         90.2227         24.2804 
        1.07382         89.4735         23.9608 
        1.07993         89.1473         23.6478 
        1.08607         88.4591         23.3391 
        1.09222         88.0854         23.0357 
        1.09836         87.2572          22.738 
        1.10449         86.7951          22.446 
        1.11063         86.2678         22.1588 
        1.11677         85.7186         21.8768 
         1.1229         84.9889         21.6002 
        1.12903          84.656         21.3282 
        1.13518         84.2032         21.0607 
        1.14131         83.5911          20.798 
        1.14745         83.2234         20.5399 
        1.15359         82.1936         20.2862 
        1.15973         82.0905         20.0367 
        1.16584         81.5522         19.7925 
        1.17197         81.0892         19.5521 
        1.17811         80.4504         19.3149 
        1.18424         79.8368         19.0824 
        1.19038         79.7117         18.8531 
        1.19652         79.1904         18.6276 
        1.20267         78.6499         18.4059 
        1.20881         78.1566         18.1878 
        1.21495         77.6979         17.9736 
        1.22108         77.4741         17.7629 
         1.2272         76.6823         17.5562 
        1.23334         76.5474         17.3522 
        1.23949         75.9923          17.151 
        1.24562         75.3878         16.9536 
        1.25174         75.0831         16.7596 
        1.25789         74.8267          16.568 
        1.26402         74.3052         16.3799 
        1.27014         73.9458         16.1951 
        1.27628         73.3513         16.0126 
        1.28244         73.2771         15.8326 
        1.28858         72.6596         15.6556 
        1.29471          72.241         15.4818 
        1.30084         71.6173         15.3108 
        1.30697         71.6414         15.1421 
        1.31312         71.1202         14.9757 
        1.31925         70.5907         14.8123 
        1.32537         70.2896         14.6516 
        1.33151         70.0386         14.4927 
        1.33765         69.5694         14.3363 
        1.34378         69.1685         14.1825 
        1.34992         68.9632         14.0308 
        1.35606         68.4528         13.8811 
         1.3622         68.2572         13.7338 
        1.36833         67.7208          13.589 
        1.37445         67.2228         13.4464 
        1.38059         67.0766         13.3054 
        1.38675          66.436         13.1661 
        1.39288         66.3484         13.0294 
        1.39901         65.7931         12.8946 
        1.40515         65.5931         12.7615 
         1.4113         65.3032         12.6303 
        1.41742          64.872         12.5015 
        1.42355          64.689         12.3742 
         1.4297          64.276         12.2484 
        1.43585         63.9003         12.1243 
        1.44198         63.5514         12.0024 
        1.44809         63.1195         11.8825 
        1.45423         62.9754         11.7637 
        1.46036         62.5648         11.6468 
        1.46649         62.2559         11.5315 
        1.47263          61.958         11.4176 
        1.47877         61.7127         11.3054 
        1.48491         61.3161         11.1944 
        1.49104         60.9029         11.0852 
        1.49718         60.7131         10.9774 
        1.50333         60.4134         10.8708 
        1.50947         60.1834         10.7659 
         1.5156         59.9518         10.6625 
        1.52172         59.4695         10.5605 
        1.52787         59.1362         10.4597 
          1.534         58.8509         10.3602 
        1.54013         58.7808         10.2622 
        1.54627         58.2231         10.1653 
        1.55241         58.0355         10.0696 
        1.55855         57.7179         9.97528 
        1.56467         57.2363         9.88243 
         1.5708         57.2209         9.79052 
        1.57695         56.8756         9.69964 
        1.58308         56.5699         9.61012 
        1.58922         56.3444         9.52168 
        1.59535         56.2221         9.43439 
         1.6015         56.0426         9.34807 
        1.60764         55.6381         9.26288 
        1.61376         55.3465         9.17899 
        1.61989         54.9004         9.09608 
        1.62604         54.7696           9.014 
        1.63218         54.4683           8.933 
        1.63831         54.3104         8.85317 
        1.64444         54.1103          8.7743 
        1.65059         53.7183         8.69621 
        1.65673         53.4481         8.61915 
        1.66285         53.2401         8.54325 
        1.66898         52.8573         8.46824 
        1.67512         52.6554         8.39399 
        1.68127         52.5325         8.32056 
         1.6874         52.2193         8.24818 
        1.69353         51.9536         8.17671 
        1.69967         51.7717         8.10591 
        1.70581         51.4375         8.03599 
        1.71193         51.2549         7.96717 
        1.71806         51.0136           7.899 
        1.72421         50.8329          7.8315 
        1.73035         50.5582         7.76487 
        1.73649         50.2335         7.69903 
        1.74262         49.8936           7.634 
        1.74876         49.9413         7.56969 
        1.75489          49.577         7.50626 
        1.76101         49.3848         7.44357 
        1.76715         49.2164         7.38151 
        1.77329         48.7862         7.32009 
        1.77943         48.8164         7.25934 
        1.78557          48.508         7.19938 
        1.79171         48.2454         7.14008 
        1.79785         48.0584         7.08145 
        1.80399         47.7876         7.02348 
        1.81012         47.6012         6.96625 
        1.81625         47.3346         6.90968 
        1.82239           47.12         6.85365 
        1.82853         46.9133         6.79828 
        1.83466         46.7312         6.74357 
        1.84078          46.495         6.68953 
        1.84692          46.322         6.63599 
        1.85306          46.058         6.58297 
         1.8592         45.8535         6.53062 
        1.86533         45.6712         6.47886 
        1.87147         45.4355         6.42761 
        1.87761         45.2547         6.37689 
        1.88375         45.0338         6.32679 
        1.88988         44.8365         6.27727 
        1.89601         44.6519         6.22826 
        1.90215         44.3646         6.17973 
        1.90829         44.2482         6.13175 
        1.91442         43.9814         6.08427 
        1.92056         43.8607         6.03735 
         1.9267          43.706         5.99087 
        1.93284         43.4865         5.94485 
        1.93897         43.2547          5.8994 
        1.94509         42.9905         5.85453 
        1.95123         42.8718         5.81001 
        1.95737         42.6943         5.76593 
        1.96349         42.5521         5.72242 
        1.96964         42.2492         5.67923 
        1.97578         42.0748         5.63647 
        1.98192         41.8516         5.59424 
        1.98805         41.6595         5.55244 
        1.99419         41.5376         5.51106 
        2.00033         41.3763         5.47009 
        2.00647         41.1998         5.42954 
         2.0126          40.964         5.38948 
        2.01874         40.8632         5.34976 
        2.02488         40.5728          5.3104 
        2.03101         40.5129         5.27152 
        2.03714         40.2771         5.23306 
        2.04328         40.1436         5.19494 
        2.04941         39.8756         5.15724 
        2.05554         39.7766         5.11994 
        2.06167         39.6208         5.08296 
        2.06781         39.3833         5.04633 
        2.07396         39.1838         5.01002 
        2.08009         39.0337         4.97413 
        2.08622          38.923         4.93864 
        2.09237         38.6857         4.90342 
        2.09851         38.5453         4.86854 
        2.10464         38.3986         4.83406 
        2.11077         38.2503         4.79995 
        2.11691         37.9849          4.7661 
        2.12305         37.7882         4.73257 
        2.12918          37.705         4.69945 
        2.13531         37.4986         4.66664 
        2.14145         37.3712         4.63407 
         2.1476         37.2638         4.60178 
        2.15372         37.1331         4.56995 
        2.15985         36.8505          4.5384 
        2.16599         36.6909         4.50705 
        2.17213         36.5796         4.47603 
        2.17827         36.4273         4.44531 
         2.1844         36.1891         4.41491 
        2.19054         36.1295         4.38479 
        2.19666         35.9054         4.35499 
         2.2028         35.7032         4.32544 
        2.20893         35.6416         4.29615 
        2.21508         35.4796         4.26709 
        2.22122         35.3382          4.2383 
        2.22736          35.093         4.20984 
        2.23349         35.0341         4.18164 
        2.23962         34.8538         4.15369 
        2.24577          34.695         4.12597 
         2.2519         34.5159         4.09854 
        2.25802         34.3986         4.07141 
        2.26417         34.2428         4.04444 
        2.27031          34.086          4.0177 
        2.27644         34.0584         3.99127 
        2.28257         33.7548         3.96509 
        2.28872         33.7408         3.93909 
        2.29486         33.5798         3.91333 
        2.30099         33.3638         3.88786 
        2.30712         33.2868          3.8626 
        2.31326          33.091         3.83752 
         2.3194         32.9319         3.81268 
        2.32553         32.8469          3.7881 
        2.33166         32.6847         3.76375 
         2.3378         32.5033         3.73958 
        2.34394         32.4028         3.71562 
        2.35007         32.3289         3.69189 
        2.35619          32.169         3.66841 
        2.36233         31.9619         3.64508 
        2.36848         31.9185          3.6219 
        2.37462         31.7397         3.59897 
        2.38075         31.6017         3.57626 
        2.38689         31.5034         3.55373 
        2.39303         31.3908          3.5314 
        2.39916         31.1323         3.50928 
        2.40529         31.0762         3.48736 
        2.41143         30.9434         3.46561 
        2.41757           30.87         3.44403 
         2.4237          30.716         3.42268 
        2.42983          30.517         3.40151 
        2.43598         30.4294         3.38046 
        2.44211         30.3008         3.35963 
        2.44823         30.1489         3.33902 
        2.45437          30.095         3.31853 
        2.46052         29.9002         3.29819 
        2.46665         29.8015         3.27806 
        2.47279         29.6098          3.2581 
        2.47892         29.5457          3.2383 
        2.48507         29.4488         3.21864 
         2.4912         29.3004         3.19919 
