# k  (h/Mpc)    P(k)  (Mpc/h)^3    P_linear(k)  (Mpc/h)^3
     0.00783031         7196.27         7251.46 
       0.013688         8725.94         8904.19 
       0.019231         8788.57         8883.35 
      0.0249154         8050.52         8032.68 
      0.0312784         6735.23         6764.21 
      0.0375637          5578.6         5629.53 
      0.0433917          4847.3         4846.74 
      0.0492413         4296.86         4322.82 
      0.0555754         3969.22         3965.32 
      0.0619321         3623.98          3706.7 
       0.067871         3428.16         3463.68 
      0.0738098          3156.3         3173.35 
      0.0800417         2819.99          2820.3 
      0.0862327         2455.08         2459.91 
      0.0921407         2160.16         2151.56 
      0.0982031         1934.66         1901.87 
       0.104506         1730.82         1722.37 
       0.110769         1624.56         1611.49 
       0.116806         1574.21         1543.12 
       0.122832         1494.94         1485.24 
       0.129052         1425.47         1413.69 
       0.135211         1353.22         1320.81 
       0.141259         1234.94            1212 
       0.147318         1116.18         1098.22 
       0.153489         1025.92         992.243 
       0.159709         960.419         906.333 
       0.165845         879.253         845.469 
       0.171974         860.802         805.023 
       0.178125          831.49         777.154 
       0.184229         784.684         753.117 
        0.19034         767.137         725.278 
       0.196428          736.43         690.137 
       0.202534         680.962         648.115 
       0.208729         656.969         602.512 
       0.214876         621.249         559.367 
       0.220989          576.11          522.55 
       0.227147         560.184         493.468 
        0.23329          538.86         472.002 
       0.239377         529.262         456.006 
       0.245482         504.701         442.261 
       0.251667         485.543         427.917 
       0.257832          479.14         411.499 
       0.263955         451.146         392.791 
       0.270079         432.262         372.656 
        0.27624         412.067         352.577 
       0.282372         399.839         334.286 
        0.28843         395.205         318.851 
       0.294538         375.371          306.08 
       0.300721         362.616         295.546 
        0.30691          357.02         286.422 
       0.313033         341.575          277.82 
       0.319153         335.832         268.852 
       0.325316         326.883         259.167 
        0.33145         317.645         248.964 
       0.337538         305.939         238.751 
       0.343633         296.067         228.937 
       0.349808         287.388         219.879 
       0.355968         281.037         211.907 
       0.362074          273.33         205.021 
       0.368217         269.446         198.862 
       0.374374          263.09         193.106 
       0.380519         252.368         187.492 
       0.386598         248.271         181.847 
       0.392688         241.536         176.068 
        0.39888         236.159         170.159 
       0.405048         231.086         164.382 
       0.411186          228.53         158.922 
       0.417313         223.703          153.88 
       0.423458         217.695         149.238 
       0.429607         212.435         144.987 
       0.435692           208.9         141.067 
       0.441815         204.288         137.283 
       0.447964         198.589         133.558 
       0.454126         195.411         129.865 
       0.460267         193.165         126.204 
       0.466387         188.821         122.609 
        0.47254         186.572         119.111 
       0.478662         180.725         115.797 
       0.484765         178.392          112.67 
       0.490885         175.342         109.713 
       0.497035         173.394         106.913 
       0.503198         170.772          104.24 
       0.509342         166.273         101.662 
       0.515458         164.102         99.1519 
       0.521598         160.199          96.684 
       0.527764         158.595         94.2627 
       0.533884         157.798         91.9207 
           0.54         153.801         89.6519 
       0.546137         150.337         87.4588 
       0.552299         148.629         85.3522 
       0.558452         146.009         83.3458 
       0.564573         145.302         81.4305 
       0.570708         141.524         79.5765 
       0.576825         139.809         77.7803 
       0.582926         138.296         76.0351 
       0.589034         136.118         74.3341 
       0.595184         134.807         72.6684 
       0.601379          131.89          71.039 
       0.607522         129.473         69.4711 
       0.613639          128.52         67.9579 
       0.619772         126.679         66.4895 
       0.625918          125.77         65.0673 
       0.632068         122.934         63.6923 
       0.638161         121.588         62.3734 
         0.6443         120.883         61.0842 
       0.650464         118.402         59.8258 
       0.656582         117.896         58.6088 
       0.662703         116.494         57.4215 
       0.668861          114.06          56.258 
       0.675024          114.07         55.1249 
       0.681124         112.133         54.0351 
       0.687237         110.429         52.9744 
       0.693381         109.535           51.94 
       0.699536         108.199         50.9335 
       0.705665         106.886         49.9594 
       0.711789         105.503         49.0125 
       0.717957         104.261         48.0837 
        0.72409         103.354         47.1835 
       0.730186         102.952         46.3109 
       0.736317         101.227         45.4551 
       0.742472         99.7849         44.6173 
       0.748622         98.3312         43.8013 
        0.75476          98.321         43.0076 
       0.760888         97.4895         42.2352 
       0.767043         95.6028         41.4792 
       0.773185         94.5027         40.7439 
       0.779291         93.4886         40.0311 
       0.785407         92.6414         39.3347 
       0.791564         92.2351         38.6507 
       0.797719         90.9194         37.9837 
       0.803834         90.4869         37.3367 
       0.809972         89.7368         36.7025 
       0.816124         88.5012         36.0818 
       0.822261         87.5129         35.4771 
       0.828378         87.3314         34.8882 
       0.834502         86.0895         34.3122 
       0.840667         85.5613         33.7456 
       0.846816         84.7599         33.1935 
       0.852925         83.7466         32.6573 
       0.859047         83.4465          32.132 
       0.865192         82.3897         31.6166 
       0.871341         81.5045         31.1123 
       0.877463         80.8775         30.6215 
       0.883569         80.7802         30.1425 
       0.889708          79.968         29.6715 
       0.895864         79.3164         29.2094 
       0.902008          78.495         28.7582 
       0.908149          77.519         28.3169 
       0.914301         77.3497         27.8842 
       0.920448          77.101          27.461 
       0.926574         75.5257         27.0482 
       0.932687         75.3674         26.6448 
       0.938823         74.7909         26.2482 
       0.944975         73.8971         25.8589 
       0.951105         73.3164         25.4789 
       0.957225         73.1374         25.1072 
       0.963368         72.3725         24.7418 
       0.969511         71.8532         24.3837 
       0.975621         71.2094         24.0346 
       0.981748          70.608         23.6916 
       0.987916         70.0981         23.3531 
        0.99406         69.8136         23.0225 
        1.00019         68.9254          22.699 
        1.00632         68.4685         22.3821 
        1.01246         68.0812         22.0709 
        1.01859          67.792          21.766 
        1.02471         67.1067         21.4674 
        1.03085         66.5642         21.1734 
        1.03698         66.1957         20.8855 
        1.04314         65.6643         20.6018 
        1.04929         65.2441         20.3241 
        1.05541         64.8359         20.0527 
        1.06154         64.4328         19.7856 
        1.06769         63.8156          19.523 
        1.07382         63.2511          19.266 
        1.07993         63.0999         19.0143 
        1.08607         62.5819         18.7661 
        1.09222         62.3529         18.5221 
        1.09836         61.7932         18.2828 
        1.10449         61.4545          18.048 
        1.11063         60.9752         17.8171 
        1.11677         60.7304         17.5903 
         1.1229         60.1233          17.368 
        1.12903         59.9214         17.1493 
        1.13518         59.7219         16.9342 
        1.14131         59.1177         16.7229 
        1.14745         58.7481         16.5154 
        1.15359         58.0784         16.3114 
        1.15973         58.0959         16.1107 
        1.16584         57.6443         15.9144 
        1.17197         57.1185         15.7211 
        1.17811         56.8525         15.5304 
        1.18424         56.1533         15.3435 
        1.19038         56.1054         15.1591 
        1.19652         55.8266         14.9778 
        1.20267         55.4196         14.7995 
        1.20881         55.0858         14.6242 
        1.21495         54.8098         14.4519 
        1.22108         54.6772         14.2825 
         1.2272         54.0695         14.1163 
        1.23334         53.8704         13.9523 
        1.23949         53.5169         13.7905 
        1.24562         53.1525         13.6317 
        1.25174         52.8544         13.4758 
        1.25789         52.7601         13.3217 
        1.26402         52.3362         13.1704 
        1.27014         52.1662         13.0219 
        1.27628         51.6273         12.8751 
        1.28244         51.6018         12.7304 
        1.28858         51.1874         12.5881 
        1.29471         50.8475         12.4483 
        1.30084         50.4023         12.3108 
        1.30697         50.4903         12.1752 
        1.31312         50.0345         12.0414 
        1.31925         49.6378         11.9101 
        1.32537         49.4208         11.7808 
        1.33151         49.1386          11.653 
        1.33765         48.9336         11.5273 
        1.34378          48.686         11.4036 
        1.34992         48.3934         11.2817 
        1.35606         48.0227         11.1612 
         1.3622         47.8756         11.0428 
        1.36833         47.6399         10.9264 
        1.37445         47.1629         10.8117 
        1.38059         47.1106         10.6984 
        1.38675         46.6545         10.5864 
        1.39288         46.6199         10.4764 
        1.39901         46.2277         10.3681 
        1.40515         46.0943         10.2611 
         1.4113         45.9899         10.1556 
        1.41742         45.6483          10.052 
        1.42355         45.3678         9.94967 
         1.4297         45.1776         9.84846 
        1.43585         44.8923          9.7487 
        1.44198         44.5934         9.65072 
        1.44809         44.3395         9.55427 
        1.45423         44.2127         9.45879 
        1.46036           44.02          9.3648 
        1.46649          43.783         9.27205 
        1.47263         43.5244         9.18049 
        1.47877         43.3515         9.09022 
        1.48491          43.141         9.00102 
        1.49104         42.8066         8.91321 
        1.49718         42.6927         8.82651 
        1.50333         42.5004         8.74084 
        1.50947         42.2483         8.65647 
         1.5156         42.0759         8.57336 
        1.52172          41.776         8.49133 
        1.52787         41.6235         8.41023 
          1.534          41.365         8.33028 
        1.54013         41.3679         8.25146 
        1.54627         40.9632         8.17352 
        1.55241          40.762         8.09658 
        1.55855         40.6727         8.02075 
        1.56467         40.3475          7.9461 
         1.5708         40.3138         7.87219 
        1.57695         40.0824         7.79912 
        1.58308         39.7727         7.72714 
        1.58922         39.6342         7.65603 
        1.59535         39.5071         7.58584 
         1.6015         39.4507         7.51644 
        1.60764         39.1155         7.44794 
        1.61376         38.9142         7.38049 
        1.61989         38.6512         7.31382 
        1.62604         38.5304         7.24782 
        1.63218         38.2828         7.18269 
        1.63831         38.2097         7.11851 
        1.64444         38.0303         7.05509 
        1.65059         37.8087          6.9923 
        1.65673         37.6335         6.93034 
        1.66285         37.5617         6.86931 
        1.66898         37.2472         6.80899 
        1.67512         37.1407         6.74929 
        1.68127         36.9593         6.69025 
         1.6874         36.7945         6.63205 
        1.69353         36.6926         6.57459 
        1.69967           36.53         6.51766 
        1.70581         36.2578         6.46144 
        1.71193         36.1133          6.4061 
        1.71806         35.9959         6.35129 
        1.72421         35.8264         6.29702 
        1.73035         35.6381         6.24344 
        1.73649         35.4081          6.1905 
        1.74262         35.1958         6.13822 
        1.74876         35.2463         6.08651 
        1.75489         34.9582          6.0355 
        1.76101         34.8421          5.9851 
        1.76715         34.7137          5.9352 
        1.77329         34.4204         5.88581 
        1.77943         34.4183         5.83697 
        1.78557          34.281         5.78875 
        1.79171         34.0896         5.74107 
        1.79785         33.9493         5.69393 
        1.80399         33.7756         5.64732 
        1.81012         33.6799          5.6013 
        1.81625           33.38         5.55581 
        1.82239         33.2947         5.51077 
        1.82853         33.1761         5.46624 
        1.83466         32.9997         5.42225 
        1.84078         32.8532          5.3788 
        1.84692          32.703         5.33575 
        1.85306         32.5252         5.29312 
         1.8592         32.4629         5.25103 
        1.86533          32.309         5.20941 
        1.87147         32.1587          5.1682 
        1.87761         31.9654         5.12742 
        1.88375         31.8913         5.08713 
        1.88988         31.7601         5.04732 
        1.89601         31.5494         5.00791 
        1.90215         31.4457         4.96889 
        1.90829         31.3304         4.93031 
        1.91442          31.168         4.89214 
        1.92056         31.0502         4.85441 
         1.9267         30.9845         4.81703 
        1.93284         30.8026         4.78003 
        1.93897         30.7246         4.74349 
        1.94509         30.5342         4.70741 
        1.95123         30.4587         4.67162 
        1.95737         30.2653         4.63617 
        1.96349         30.2109         4.60118 
        1.96964         30.0675         4.56646 
        1.97578         29.8621         4.53208 
        1.98192         29.7547         4.49812 
        1.98805         29.6036         4.46451 
        1.99419         29.5124         4.43124 
        2.00033          29.368         4.39829 
        2.00647         29.3225         4.36569 
         2.0126         29.1211         4.33348 
        2.01874         29.0264         4.30154 
        2.02488         28.8575          4.2699 
        2.03101         28.7283         4.23863 
        2.03714         28.6564         4.20771 
        2.04328         28.5418         4.17706 
        2.04941         28.3846         4.14674 
        2.05554         28.2959         4.11675 
        2.06167         28.1608         4.08702 
        2.06781         28.0709         4.05757 
        2.07396         27.9417         4.02837 
        2.08009         27.8096         3.99952 
        2.08622         27.7047         3.97097 
        2.09237         27.6157         3.94266 
        2.09851          27.483         3.91461 
        2.10464         27.3248         3.88688 
        2.11077         27.2991         3.85946 
        2.11691         27.1185         3.83224 
        2.12305         27.0166         3.80528 
        2.12918         26.9067         3.77865 
        2.13531          26.818         3.75227 
        2.14145         26.7108         3.72609 
         2.1476         26.5616         3.70012 
        2.15372          26.513         3.67453 
        2.15985         26.3572         3.64916 
        2.16599         26.2026         3.62395 
        2.17213           26.15         3.59901 
        2.17827         26.0383         3.57431 
         2.1844         25.9377         3.54987 
        2.19054         25.8787         3.52565 
        2.19666         25.7119         3.50168 
         2.2028         25.6694         3.47792 
        2.20893         25.5518         3.45437 
        2.21508         25.4406         3.43101 
        2.22122         25.3226         3.40786 
        2.22736         25.2413         3.38497 
        2.23349         25.0995          3.3623 
        2.23962         25.0242         3.33983 
        2.24577         24.9125         3.31754 
         2.2519         24.8154         3.29548 
        2.25802         24.6767         3.27367 
        2.26417         24.5808         3.25199 
        2.27031         24.5166         3.23048 
        2.27644         24.4484         3.20924 
        2.28257         24.3372         3.18818 
        2.28872         24.2734         3.16728 
        2.29486          24.142         3.14657 
        2.30099         24.0013         3.12608 
        2.30712         23.9463         3.10577 
        2.31326         23.8214         3.08561 
         2.3194          23.757         3.06563 
        2.32553         23.6735         3.04587 
        2.33166         23.5585         3.02629 
         2.3378          23.477         3.00686 
        2.34394         23.3826         2.98759 
        2.35007         23.3153         2.96852 
        2.35619          23.254         2.94963 
        2.36233         23.0693         2.93087 
        2.36848         23.0004         2.91223 
        2.37462         22.9743          2.8938 
        2.38075         22.8344         2.87554 
        2.38689         22.7041         2.85742 
        2.39303         22.6828         2.83947 
        2.39916         22.5416         2.82168 
        2.40529         22.4873         2.80406 
        2.41143         22.3644         2.78657 
        2.41757         22.2526         2.76922 
         2.4237         22.2181         2.75205 
        2.42983         22.1058         2.73503 
        2.43598         22.0004         2.71811 
        2.44211         21.9506         2.70135 
        2.44823         21.8218         2.68478 
        2.45437          21.821         2.66831 
        2.46052         21.6939         2.65195 
        2.46665         21.6224         2.63577 
        2.47279          21.503         2.61972 
        2.47892         21.4351          2.6038 
        2.48507         21.3664         2.58799 
         2.4912         21.2902         2.57235 
