# k  (h/Mpc)    P(k)  (Mpc/h)^3    P_linear(k)  (Mpc/h)^3
     0.00783031           10100         10262.3 
       0.013688         12895.5         12831.2 
       0.019231         13061.6           13055 
      0.0249154         11845.5           12060 
      0.0312784           10284         10375.2 
      0.0375637         8756.61          8750.5 
      0.0433917         7453.62         7553.71 
      0.0492413         6673.47         6703.09 
      0.0555754         5957.81         6101.18 
      0.0619321         5706.58         5689.78 
       0.067871         5236.32         5352.52 
      0.0738098         4865.11         4977.39 
      0.0800417         4372.22         4513.82 
      0.0862327         3931.42         4008.97 
      0.0921407         3529.52         3538.89 
      0.0982031         3103.95         3120.03 
       0.104506         2855.02         2784.75 
       0.110769         2620.88         2555.51 
       0.116806         2459.62         2412.48 
       0.122832         2362.87         2314.17 
       0.129052          2221.7         2224.12 
       0.135211         2119.04            2119 
       0.141259          2021.9         1988.74 
       0.147318         1890.92         1835.79 
       0.153489         1720.19         1672.53 
       0.159709         1602.93         1519.46 
       0.165845         1516.45          1393.9 
       0.171974         1418.78         1299.46 
       0.178125         1350.13         1233.26 
       0.184229         1298.96         1187.51 
        0.19034         1225.65         1150.61 
       0.196428         1207.65         1112.55 
       0.202534         1168.66         1066.44 
       0.208729         1109.33         1009.91 
       0.214876         1049.92          947.23 
       0.220989         1009.31         884.123 
       0.227147         954.355         825.704 
        0.23329         912.154         776.672 
       0.239377         891.096         738.526 
       0.245482         833.124          709.42 
       0.251667         827.255         686.217 
       0.257832         798.057         665.631 
       0.263955         772.872         644.402 
       0.270079         745.008         620.507 
        0.27624         735.488         593.545 
       0.282372         704.005         564.927 
        0.28843          687.36         536.839 
       0.294538         652.548         510.524 
       0.300721         648.146         487.298 
        0.30691         618.731         467.819 
       0.313033         606.484         451.848 
       0.319153         589.093         438.089 
       0.325316          572.03         425.244 
        0.33145         556.076         412.361 
       0.337538         548.286         398.923 
       0.343633          531.26         384.677 
       0.349808         513.252         369.875 
       0.355968         508.473         355.305 
       0.362074         499.028         341.707 
       0.368217         485.056          329.29 
       0.374374         465.181         318.238 
       0.380519          462.05         308.488 
       0.386598         450.409         299.722 
       0.392688          447.57         291.449 
        0.39888         434.707         283.188 
       0.405048         425.787          274.86 
       0.411186         418.025         266.475 
       0.417313         410.227         258.073 
       0.423458         402.455         249.809 
       0.429607         394.729         241.922 
       0.435692         385.144          234.62 
       0.441815         382.057         227.813 
       0.447964         374.102         221.523 
       0.454126         363.338         215.636 
       0.460267         357.977         210.039 
       0.466387          353.89         204.621 
        0.47254         346.623         199.263 
       0.478662         345.584         193.965 
       0.484765         334.382         188.747 
       0.490885         330.753         183.645 
       0.497035         325.052         178.704 
       0.503198         319.269         173.976 
       0.509342         316.646         169.504 
       0.515458         312.848         165.304 
       0.521598         306.343         161.298 
       0.527764         301.334         157.434 
       0.533884         298.662         153.711 
           0.54         294.437         150.083 
       0.546137         293.048         146.525 
       0.552299         286.945         143.029 
       0.558452         284.721         139.619 
       0.564573          280.27         136.327 
       0.570708         275.117         133.146 
       0.576825         270.855         130.106 
       0.582926         268.209         127.197 
       0.589034         265.508         124.392 
       0.595184         262.765         121.662 
       0.601379         259.781         118.994 
       0.607522         255.224         116.424 
       0.613639         253.896         113.934 
       0.619772         248.126         111.502 
       0.625918         246.872         109.125 
       0.632068         243.241          106.81 
       0.638161         242.146         104.581 
         0.6443         238.139         102.404 
       0.650464         235.779          100.29 
       0.656582          234.09         98.2615 
       0.662703         232.325         96.2952 
       0.668861          228.21         94.3745 
       0.675024         225.551         92.5041 
       0.681124         224.621         90.6991 
       0.687237         221.583          88.934 
       0.693381          218.28         87.2045 
       0.699536           216.6         85.5166 
       0.705665         215.328         83.8812 
       0.711789         212.444         82.2921 
       0.717957         211.469         80.7363 
        0.72409         208.933          79.232 
       0.730186          206.29         77.7769 
       0.736317         204.258         76.3514 
       0.742472         203.202         74.9566 
       0.748622         201.458         73.5975 
        0.75476         199.803         72.2742 
       0.760888         197.064         70.9848 
       0.767043         196.761         69.7214 
       0.773185         194.437         68.4914 
       0.779291         190.967         67.2983 
       0.785407         190.496         66.1323 
       0.791564          188.65         64.9874 
       0.797719         186.189          63.871 
       0.803834         185.228         62.7885 
       0.809972         183.755         61.7278 
       0.816124         183.525         60.6897 
       0.822261          181.02         59.6786 
       0.828378         179.418         58.6937 
       0.834502         179.171         57.7304 
       0.840667         176.326         56.7824 
       0.846816         174.987         55.8585 
       0.852925         174.225          54.961 
       0.859047         172.334         54.0814 
       0.865192         170.888         53.2183 
       0.871341         169.335         52.3736 
       0.877463         168.132         51.5512 
       0.883569         167.306         50.7487 
       0.889708         165.759         49.9594 
       0.895864         163.792          49.185 
       0.902008         163.096         48.4289 
       0.908149         162.407         47.6893 
       0.914301          160.53          46.964 
       0.920448         159.315         46.2548 
       0.926574         158.465         45.5627 
       0.932687         158.034         44.8865 
       0.938823         155.936         44.2216 
       0.944975          154.49         43.5688 
       0.951105         153.909         42.9317 
       0.957225         152.255         42.3085 
       0.963368         150.652         41.6956 
       0.969511         150.276         41.0949 
       0.975621         149.359         40.5095 
       0.981748         148.799          39.934 
       0.987916         147.038         39.3661 
        0.99406         146.002         38.8115 
        1.00019         145.723         38.2688 
        1.00632         144.276         37.7371 
        1.01246         143.408         37.2147 
        1.01859         142.426         36.7031 
        1.02471         141.287         36.2018 
        1.03085         139.895         35.7083 
        1.03698         139.321          35.225 
        1.04314         138.077         34.7487 
        1.04929         137.164         34.2824 
        1.05541         136.587         33.8266 
        1.06154         135.633          33.378 
        1.06769         135.477          32.937 
        1.07382         134.297         32.5054 
        1.07993         133.151         32.0826 
        1.08607         132.287         31.6656 
        1.09222         131.794         31.2556 
        1.09836         130.628         30.8534 
        1.10449         129.536         30.4589 
        1.11063         128.661         30.0708 
        1.11677          128.34         29.6897 
         1.1229         127.009         29.3159 
        1.12903         126.324         28.9483 
        1.13518         126.224         28.5867 
        1.14131          124.86         28.2315 
        1.14745         124.312         27.8826 
        1.15359         123.425         27.5396 
        1.15973         123.013         27.2022 
        1.16584         121.735         26.8721 
        1.17197         121.196          26.547 
        1.17811         120.492         26.2263 
        1.18424         119.864         25.9119 
        1.19038         119.421         25.6017 
        1.19652         118.547         25.2968 
        1.20267         117.706         24.9969 
        1.20881         116.833          24.702 
        1.21495         116.264         24.4122 
        1.22108         115.697         24.1273 
         1.2272         114.641         23.8475 
        1.23334         114.167         23.5716 
        1.23949         113.149         23.2994 
        1.24562         112.754         23.0323 
        1.25174         111.762         22.7698 
        1.25789         111.345         22.5106 
        1.26402         110.728         22.2559 
        1.27014         110.038         22.0058 
        1.27628          109.51         21.7588 
        1.28244         108.897         21.5152 
        1.28858         108.513         21.2756 
        1.29471         107.373         21.0403 
        1.30084          107.01         20.8087 
        1.30697         106.289         20.5803 
        1.31312         105.922          20.355 
        1.31925         104.992         20.1338 
        1.32537         104.612         19.9162 
        1.33151         103.601          19.701 
        1.33765         103.251         19.4891 
        1.34378         102.613         19.2808 
        1.34992         102.406         19.0753 
        1.35606          101.67         18.8725 
         1.3622         100.802          18.673 
        1.36833         100.509         18.4768 
        1.37445         99.8007         18.2836 
        1.38059         99.3108         18.0926 
        1.38675         98.5868         17.9039 
        1.39288         98.2071         17.7186 
        1.39901         97.8429          17.536 
        1.40515         97.1247         17.3556 
         1.4113         96.3863         17.1779 
        1.41742         96.2716         17.0033 
        1.42355          95.473         16.8308 
         1.4297         95.0145         16.6602 
        1.43585         94.2713         16.4921 
        1.44198         93.9833         16.3269 
        1.44809         93.3606         16.1643 
        1.45423         92.7827         16.0034 
        1.46036         92.5843         15.8449 
        1.46649         91.9223         15.6885 
        1.47263         91.3743         15.5342 
        1.47877         91.1566         15.3819 
        1.48491         90.2977         15.2315 
        1.49104         90.0412         15.0834 
        1.49718         89.3973         14.9372 
        1.50333          88.959         14.7928 
        1.50947         88.5072         14.6505 
         1.5156          88.025         14.5103 
        1.52172         87.4786         14.3719 
        1.52787         87.2374         14.2351 
          1.534         86.6061         14.1003 
        1.54013         86.0502         13.9673 
        1.54627         85.7545         13.8358 
        1.55241         85.1852          13.706 
        1.55855         84.9243         13.5781 
        1.56467         84.4066         13.4521 
         1.5708         83.8939         13.3274 
        1.57695         83.7424         13.2041 
        1.58308         82.8354         13.0826 
        1.58922         82.7784         12.9626 
        1.59535         82.3599         12.8442 
         1.6015         81.7361          12.727 
        1.60764         81.3725         12.6114 
        1.61376         81.0691         12.4976 
        1.61989         80.5248          12.385 
        1.62604         80.2748         12.2737 
        1.63218         79.8304         12.1637 
        1.63831         79.1517         12.0554 
        1.64444          78.909         11.9483 
        1.65059         78.3914         11.8423 
        1.65673         77.8935         11.7377 
        1.66285         77.6509         11.6347 
        1.66898         77.1696         11.5329 
        1.67512         76.7266         11.4321 
        1.68127         76.4032         11.3324 
         1.6874         76.0376         11.2341 
        1.69353         75.6272         11.1371 
        1.69967          75.103         11.0409 
        1.70581         74.9735          10.946 
        1.71193         74.6877         10.8525 
        1.71806         74.0133           10.76 
        1.72421         73.7116         10.6683 
        1.73035         73.3495         10.5778 
        1.73649         72.9839         10.4884 
        1.74262         72.6453         10.4001 
        1.74876         72.2958         10.3128 
        1.75489         71.7344         10.2266 
        1.76101         71.5657         10.1415 
        1.76715         71.0811         10.0572 
        1.77329         70.8364         9.97375 
        1.77943         70.2827         9.89123 
        1.78557         70.1547         9.80977 
        1.79171           69.66         9.72922 
        1.79785          69.377         9.64956 
        1.80399         69.0935         9.57081 
        1.81012         68.8097         9.49304 
        1.81625         68.2453         9.41618 
        1.82239          67.985         9.34006 
        1.82853         67.6993         9.26482 
        1.83466         67.3286         9.19048 
        1.84078         67.0358         9.11704 
        1.84692         66.5296         9.04428 
        1.85306         66.2631         8.97224 
         1.8592         65.8194         8.90109 
        1.86533         65.6033         8.83076 
        1.87147         65.1653         8.76111 
        1.87761         64.9193         8.69218 
        1.88375         64.5873         8.62408 
        1.88988         64.3684         8.55678 
        1.89601         63.9251         8.49017 
        1.90215         63.6369         8.42421 
        1.90829         63.4407         8.35899 
        1.91442         63.0353         8.29446 
        1.92056         62.5603         8.23066 
         1.9267         62.4276         8.16748 
        1.93284         62.0053         8.10492 
        1.93897          61.645         8.04314 
        1.94509         61.3563         7.98213 
        1.95123         61.1097         7.92161 
        1.95737         60.9065         7.86167 
        1.96349         60.4326         7.80251 
        1.96964         60.2873         7.74379 
        1.97578         59.9868         7.68565 
        1.98192         59.6455         7.62822 
        1.98805         59.5054         7.57138 
        1.99419         59.0087         7.51512 
        2.00033         58.7552          7.4594 
        2.00647         58.5394         7.40426 
         2.0126         58.0552         7.34978 
        2.01874         57.8614         7.29576 
        2.02488         57.6831         7.24224 
        2.03101         57.3733         7.18936 
        2.03714         57.0353         7.13706 
        2.04328         56.8442         7.08522 
        2.04941         56.4704         7.03394 
        2.05554         56.1714          6.9832 
        2.06167         55.9325          6.9329 
        2.06781         55.7106         6.88308 
        2.07396         55.3664         6.83369 
        2.08009         55.1779         6.78486 
        2.08622         54.8909         6.73657 
        2.09237         54.5373         6.68866 
        2.09851          54.408         6.64121 
        2.10464         54.0417          6.5943 
        2.11077         53.7414         6.54789 
        2.11691         53.5014         6.50184 
        2.12305         53.2918         6.45622 
        2.12918         53.0118         6.41115 
        2.13531         52.7133         6.36652 
        2.14145          52.457          6.3222 
         2.1476          52.278         6.27826 
        2.15372         51.9754         6.23495 
        2.15985         51.6857         6.19201 
        2.16599         51.4548         6.14936 
        2.17213         51.2612         6.10715 
        2.17827         50.9757         6.06535 
         2.1844         50.6856         6.02398 
        2.19054            50.4         5.98298 
        2.19666         50.1856         5.94243 
         2.2028         50.0656         5.90221 
        2.20893         49.8375         5.86234 
        2.21508         49.5503         5.82281 
        2.22122         49.3163         5.78362 
        2.22736         49.1246         5.74487 
        2.23349         48.9086         5.70649 
        2.23962         48.5173         5.66845 
        2.24577         48.2867         5.63071 
         2.2519         48.0162         5.59337 
        2.25802         47.9556         5.55644 
        2.26417         47.6348         5.51973 
        2.27031         47.4617         5.48332 
        2.27644         47.2011         5.44735 
        2.28257         46.9578          5.4117 
        2.28872         46.6602         5.37631 
        2.29486         46.5335         5.34124 
        2.30099          46.348         5.30655 
        2.30712          46.101         5.27216 
        2.31326         45.8115         5.23802 
         2.3194         45.5821          5.2042 
        2.32553         45.3609         5.17073 
        2.33166         45.1903         5.13758 
         2.3378         44.9024         5.10467 
        2.34394         44.6559         5.07204 
        2.35007         44.4215         5.03974 
        2.35619         44.2979         5.00776 
        2.36233         44.1988         4.97598 
        2.36848         43.8508         4.94442 
        2.37462         43.6638          4.9132 
        2.38075         43.4756         4.88227 
        2.38689         43.3233         4.85159 
        2.39303         43.0957         4.82118 
        2.39916         42.8796         4.79105 
        2.40529         42.6716         4.76119 
        2.41143         42.4974         4.73157 
        2.41757         42.2444         4.70218 
         2.4237         42.1475          4.6731 
        2.42983         41.9041         4.64426 
        2.43598         41.6431          4.6156 
        2.44211         41.4962         4.58722 
        2.44823         41.2754         4.55915 
        2.45437         41.1257         4.53123 
        2.46052          40.791         4.50353 
        2.46665         40.6674          4.4761 
        2.47279         40.5492         4.44892 
        2.47892         40.3327         4.42194 
        2.48507         40.1053         4.39516 
         2.4912          39.988         4.36866 
