# k  (h/Mpc)    Pcb(k)  (Mpc/h)^3    Pcb_linear(k)  (Mpc/h)^3
     0.00783031         3335.44         3371.85 
       0.013688          4228.2         4220.89 
       0.019231         4301.19         4297.06 
      0.0249154         3934.06         3970.95 
      0.0312784         3407.75         3417.05 
      0.0375637         2891.09         2882.42 
      0.0433917         2477.58         2488.45 
      0.0492413         2209.33         2208.39 
      0.0555754         1990.91         2010.21 
      0.0619321         1885.55         1874.74 
       0.067871         1749.39         1763.68 
      0.0738098         1625.15         1640.12 
      0.0800417          1466.7          1487.4 
      0.0862327          1311.7         1321.07 
      0.0921407         1166.49         1166.18 
      0.0982031         1025.08         1028.16 
       0.104506         930.179         917.688 
       0.110769         853.114         842.153 
       0.116806         799.206         795.023 
       0.122832         770.207         762.633 
       0.129052         731.463          732.96 
       0.135211         696.694         698.322 
       0.141259         659.884         655.398 
       0.147318         613.702         604.994 
       0.153489         557.768         551.195 
       0.159709         512.148         500.752 
       0.165845         477.808         459.372 
       0.171974         442.926          428.25 
       0.178125         421.952         406.435 
       0.184229          407.11         391.358 
        0.19034          386.55         379.199 
       0.196428         378.904         366.655 
       0.202534         367.181         351.458 
       0.208729         346.545          332.83 
       0.214876         324.358         312.174 
       0.220989         309.032         291.376 
       0.227147          287.63         272.124 
        0.23329         272.793         255.966 
       0.239377         262.982         243.394 
       0.245482         248.034         233.801 
       0.251667           244.1         226.155 
       0.257832         236.726         219.369 
       0.263955         228.835         212.374 
       0.270079         220.634         204.499 
        0.27624         215.043         195.612 
       0.282372         205.658         186.182 
        0.28843         196.223         176.925 
       0.294538         187.258         168.253 
       0.300721         182.854         160.598 
        0.30691         174.348         154.179 
       0.313033         169.431         148.915 
       0.319153         162.189         144.381 
       0.325316         159.561         140.147 
        0.33145         154.029         135.902 
       0.337538         150.937         131.473 
       0.343633         145.614         126.778 
       0.349808         140.978           121.9 
       0.355968         137.224         117.098 
       0.362074         132.717         112.616 
       0.368217         128.761         108.524 
       0.374374         124.867         104.882 
       0.380519         121.954         101.669 
       0.386598         118.732         98.7798 
       0.392688         116.586          96.053 
        0.39888         113.448         93.3307 
       0.405048         110.813          90.586 
       0.411186         108.239         87.8222 
       0.417313          105.06         85.0535 
       0.423458         102.503         82.3298 
       0.429607           99.81         79.7305 
       0.435692          96.535         77.3238 
       0.441815         95.4673         75.0814 
       0.447964         93.8314         73.0074 
       0.454126          89.808         71.0675 
       0.460267         88.6052         69.2228 
       0.466387         86.6279         67.4375 
        0.47254         85.1893         65.6709 
       0.478662         83.8937         63.9254 
       0.484765         81.4974         62.2055 
       0.490885         79.8517         60.5241 
       0.497035         78.7842         58.8959 
       0.503198         76.6399         57.3374 
       0.509342          74.803         55.8642 
       0.515458          73.559         54.4795 
       0.521598         72.4843         53.1594 
       0.527764         71.1882         51.8856 
       0.533884          69.985         50.6589 
           0.54         68.5684         49.4632 
       0.546137         67.7267         48.2907 
       0.552299         66.6942         47.1382 
       0.558452         64.8258         46.0147 
       0.564573         63.7114         44.9297 
       0.570708         62.9164         43.8812 
       0.576825          61.672         42.8794 
       0.582926         60.4562         41.9207 
       0.589034         59.0893         40.9962 
       0.595184         58.3902         40.0963 
       0.601379          57.547         39.2172 
       0.607522         56.2172         38.3702 
       0.613639         55.9809         37.5495 
       0.619772         54.5913         36.7479 
       0.625918         54.2315         35.9646 
       0.632068         53.4392         35.2016 
       0.638161          52.545          34.467 
         0.6443         51.6631         33.7495 
       0.650464         50.8572         33.0529 
       0.656582         50.4405         32.3843 
       0.662703         49.4326         31.7362 
       0.668861         48.7407         31.1033 
       0.675024         48.0289         30.4868 
       0.681124         47.2184         29.8919 
       0.687237         46.4246         29.3102 
       0.693381          46.081         28.7402 
       0.699536          45.106         28.1839 
       0.705665         45.2243          27.645 
       0.711789          44.053         27.1212 
       0.717957         43.5982         26.6085 
        0.72409          43.008         26.1127 
       0.730186         42.3524         25.6331 
       0.736317         42.0709         25.1633 
       0.742472         41.3539         24.7037 
       0.748622         41.0088         24.2557 
        0.75476         40.4211         23.8196 
       0.760888          39.809         23.3947 
       0.767043         39.3873         22.9783 
       0.773185         38.7985         22.5729 
       0.779291         38.6394         22.1797 
       0.785407         38.2393         21.7954 
       0.791564         37.5677         21.4181 
       0.797719         36.8501         21.0501 
       0.803834         36.8001         20.6934 
       0.809972         36.3345         20.3438 
       0.816124          35.645         20.0017 
       0.822261         35.4237         19.6684 
       0.828378         35.1444         19.3439 
       0.834502         34.7363         19.0264 
       0.840667         34.3735          18.714 
       0.846816         33.8266         18.4094 
       0.852925         33.5474         18.1137 
       0.859047         33.1424         17.8238 
       0.865192         32.8565         17.5393 
       0.871341         32.6957         17.2609 
       0.877463         32.0432         16.9899 
       0.883569         31.7628         16.7254 
       0.889708         31.4624         16.4653 
       0.895864         31.1875         16.2101 
       0.902008         30.9341         15.9609 
       0.908149         30.6232         15.7171 
       0.914301         30.5051         15.4781 
       0.920448         29.9344         15.2443 
       0.926574         29.7405         15.0163 
       0.932687         29.4285         14.7934 
       0.938823         29.0352         14.5743 
       0.944975         28.8621         14.3591 
       0.951105         28.6031         14.1491 
       0.957225         28.2654         13.9437 
       0.963368         28.1467         13.7418 
       0.969511         27.8954         13.5438 
       0.975621         27.6696         13.3508 
       0.981748         27.2808         13.1612 
       0.987916         27.1474          12.974 
        0.99406         26.8716         12.7913 
        1.00019         26.5453         12.6124 
        1.00632         26.4196         12.4371 
        1.01246         26.2336          12.265 
        1.01859         25.8527         12.0964 
        1.02471         25.8148         11.9312 
        1.03085         25.5701         11.7685 
        1.03698         25.1744         11.6092 
        1.04314         25.0214         11.4523 
        1.04929         24.7987         11.2986 
        1.05541         24.5451         11.1483 
        1.06154         24.4387         11.0005 
        1.06769         24.2747         10.8551 
        1.07382         24.0255         10.7129 
        1.07993         23.9246         10.5736 
        1.08607         23.6069         10.4361 
        1.09222         23.5079          10.301 
        1.09836         23.2295         10.1685 
        1.10449         23.1141         10.0384 
        1.11063         22.8284         9.91054 
        1.11677         22.7621         9.78493 
         1.1229         22.6553         9.66174 
        1.12903         22.3537         9.54058 
        1.13518         22.1556         9.42141 
        1.14131         22.1099         9.30435 
        1.14745         21.9188         9.18937 
        1.15359         21.8102         9.07632 
        1.15973         21.5791         8.96514 
        1.16584         21.3263         8.85633 
        1.17197         21.3481         8.74918 
        1.17811         21.0696         8.64349 
        1.18424         20.8991         8.53987 
        1.19038         20.8481         8.43765 
        1.19652         20.6907         8.33716 
        1.20267         20.5273         8.23832 
        1.20881         20.4009         8.14111 
        1.21495         20.2669         8.04563 
        1.22108         20.0974         7.95171 
         1.2272         19.9027         7.85951 
        1.23334         19.8145         7.76858 
        1.23949         19.6382         7.67887 
        1.24562          19.577         7.59084 
        1.25174         19.4622         7.50432 
        1.25789         19.3113          7.4189 
        1.26402         19.2338         7.33496 
        1.27014         19.0302         7.25254 
        1.27628         18.8597         7.17114 
        1.28244         18.8092         7.09084 
        1.28858         18.7373         7.01189 
        1.29471         18.5627         6.93432 
        1.30084         18.4202           6.858 
        1.30697          18.312         6.78273 
        1.31312         18.1435         6.70848 
        1.31925         18.0386         6.63558 
        1.32537         17.9945         6.56385 
        1.33151         17.8295         6.49292 
        1.33765         17.7586         6.42309 
        1.34378         17.6618         6.35443 
        1.34992         17.4499         6.28673 
        1.35606         17.4263         6.21988 
         1.3622         17.3194         6.15412 
        1.36833         17.1796         6.08948 
        1.37445          17.138          6.0258 
        1.38059         17.0135         5.96284 
        1.38675         16.8353         5.90064 
        1.39288         16.8032         5.83958 
        1.39901         16.6672         5.77941 
        1.40515         16.6015         5.71996 
         1.4113         16.4799         5.66138 
        1.41742         16.3579         5.60384 
        1.42355         16.3003           5.547 
         1.4297         16.2205         5.49078 
        1.43585          16.164         5.43536 
        1.44198          16.006         5.38093 
        1.44809         15.9404         5.32734 
        1.45423          15.848         5.27429 
        1.46036         15.7783         5.22206 
        1.46649         15.6973         5.17053 
        1.47263         15.5647         5.11965 
        1.47877         15.4917         5.06948 
        1.48491         15.4266         5.01991 
        1.49104         15.3663         4.97111 
        1.49718         15.2417         4.92292 
        1.50333         15.1845          4.8753 
        1.50947         15.1099         4.82841 
         1.5156         14.9835         4.78221 
        1.52172         14.9116         4.73662 
        1.52787         14.8526         4.69153 
          1.534         14.7509         4.64708 
        1.54013         14.6454         4.60326 
        1.54627         14.5826         4.55993 
        1.55241         14.5129         4.51715 
        1.55855         14.4397         4.47498 
        1.56467         14.3594         4.43346 
         1.5708         14.3388         4.39236 
        1.57695         14.2053         4.35172 
        1.58308         14.1676         4.31169 
        1.58922         14.0915         4.27214 
        1.59535         14.0165          4.2331 
         1.6015         13.9219          4.1945 
        1.60764         13.8631          4.1564 
        1.61376          13.822         4.11887 
        1.61989         13.6946         4.08179 
        1.62604         13.6903         4.04508 
        1.63218         13.5946         4.00884 
        1.63831         13.5536         3.97314 
        1.64444         13.4349         3.93785 
        1.65059         13.3768         3.90292 
        1.65673         13.3534         3.86845 
        1.66285         13.2258         3.83449 
        1.66898         13.2132         3.80093 
        1.67512         13.1463         3.76771 
        1.68127         13.0685         3.73485 
         1.6874         13.0014         3.70247 
        1.69353         12.9403         3.67048 
        1.69967         12.8758          3.6388 
        1.70581         12.8171         3.60751 
        1.71193          12.742         3.57671 
        1.71806         12.7099         3.54621 
        1.72421         12.6207           3.516 
        1.73035         12.5889         3.48618 
        1.73649         12.5264         3.45671 
        1.74262         12.4917         3.42761 
        1.74876         12.4266         3.39882 
        1.75489          12.368         3.37042 
        1.76101         12.2747         3.34236 
        1.76715         12.2815         3.31458 
        1.77329         12.1775         3.28709 
        1.77943         12.1213         3.25989 
        1.78557         12.0869         3.23305 
        1.79171         12.0503          3.2065 
        1.79785         11.9547         3.18024 
        1.80399          11.916         3.15429 
        1.81012         11.8764         3.12866 
        1.81625         11.8022         3.10333 
        1.82239         11.7626         3.07824 
        1.82853         11.6772         3.05344 
        1.83466         11.6415         3.02894 
        1.84078         11.5616         3.00474 
        1.84692         11.5552         2.98076 
        1.85306         11.4909         2.95702 
         1.8592         11.4395         2.93357 
        1.86533         11.4043         2.91039 
        1.87147         11.3503         2.88743 
        1.87761         11.3123         2.86472 
        1.88375         11.2207         2.84227 
        1.88988         11.2199         2.82009 
        1.89601         11.1616         2.79814 
        1.90215          11.099          2.7764 
        1.90829         11.0597         2.75491 
        1.91442         11.0113         2.73364 
        1.92056         10.9759         2.71261 
         1.9267         10.9246         2.69179 
        1.93284         10.8649         2.67117 
        1.93897         10.8065         2.65081 
        1.94509         10.7756          2.6307 
        1.95123         10.7387         2.61076 
        1.95737         10.6955           2.591 
        1.96349          10.647         2.57151 
        1.96964         10.5948         2.55215 
        1.97578         10.5576         2.53299 
        1.98192         10.4996         2.51407 
        1.98805         10.4762         2.49533 
        1.99419         10.4246         2.47679 
        2.00033         10.3932         2.45843 
        2.00647         10.3528         2.44025 
         2.0126         10.2828          2.4223 
        2.01874         10.2535          2.4045 
        2.02488         10.1925         2.38686 
        2.03101         10.1847         2.36943 
        2.03714         10.1346         2.35219 
        2.04328         10.0959         2.33511 
        2.04941         10.0383          2.3182 
        2.05554         10.0229         2.30148 
        2.06167         9.96459          2.2849 
        2.06781         9.94713         2.26849 
        2.07396         9.91168         2.25221 
        2.08009         9.86515         2.23612 
        2.08622         9.79933          2.2202 
        2.09237          9.7953         2.20441 
        2.09851         9.76017         2.18877 
        2.10464         9.70477         2.17331 
        2.11077         9.65833         2.15802 
        2.11691         9.61948         2.14284 
        2.12305         9.59461          2.1278 
        2.12918         9.56296         2.11295 
        2.13531         9.52426         2.09824 
        2.14145         9.48863         2.08364 
         2.1476         9.45088         2.06915 
        2.15372         9.41693         2.05488 
        2.15985         9.38832         2.04073 
        2.16599         9.34804         2.02667 
        2.17213         9.32283         2.01276 
        2.17827         9.28431         1.99898 
         2.1844         9.24489         1.98535 
        2.19054         9.18874         1.97184 
        2.19666         9.17778         1.95847 
         2.2028         9.13701         1.94522 
        2.20893         9.12083         1.93208 
        2.21508         9.06648         1.91905 
        2.22122         9.02487         1.90613 
        2.22736         9.00488         1.89336 
        2.23349          8.9554         1.88071 
        2.23962         8.94684         1.86817 
        2.24577         8.89785         1.85574 
         2.2519         8.87688         1.84343 
        2.25802         8.83795         1.83126 
        2.26417         8.80524         1.81916 
        2.27031         8.76996         1.80716 
        2.27644         8.73941         1.79531 
        2.28257         8.71775         1.78356 
        2.28872         8.67257         1.77189 
        2.29486         8.64911         1.76034 
        2.30099         8.64021          1.7489 
        2.30712         8.60097         1.73757 
        2.31326         8.55562         1.72632 
         2.3194          8.5175         1.71517 
        2.32553         8.50519         1.70414 
        2.33166         8.45996         1.69321 
         2.3378          8.4406         1.68237 
        2.34394         8.40836         1.67161 
        2.35007         8.36855         1.66097 
        2.35619         8.33811         1.65043 
        2.36233         8.30557         1.63996 
        2.36848         8.29684         1.62955 
        2.37462          8.2621         1.61926 
        2.38075         8.21761         1.60907 
        2.38689          8.1964         1.59896 
        2.39303         8.16603         1.58894 
        2.39916         8.14629         1.57901 
        2.40529         8.12311         1.56917 
        2.41143         8.08491          1.5594 
        2.41757         8.07691         1.54972 
         2.4237         8.03536         1.54013 
        2.42983         8.00949         1.53063 
        2.43598         7.99579         1.52118 
        2.44211         7.95205         1.51183 
        2.44823          7.9343         1.50258 
        2.45437         7.91148         1.49338 
        2.46052          7.8646         1.48425 
        2.46665         7.84615         1.47521 
        2.47279         7.81607         1.46625 
        2.47892          7.7834         1.45736 
        2.48507         7.76072         1.44854 
         2.4912          7.7377          1.4398 
