# k  (h/Mpc)    P(k)  (Mpc/h)^3    P_linear(k)  (Mpc/h)^3
     0.00783031         1335.29          1350.7 
       0.013688         1686.77         1689.68 
       0.019231         1719.22         1719.72 
      0.0249154         1578.63         1588.99 
      0.0312784         1365.47         1367.22 
      0.0375637         1156.48         1153.24 
      0.0433917         994.099         995.583 
      0.0492413          884.79         883.516 
      0.0555754         800.442         804.214 
      0.0619321         753.621          750.01 
       0.067871         702.753         705.571 
      0.0738098         652.921         656.134 
      0.0800417         590.394         595.034 
      0.0862327         526.723          528.49 
      0.0921407         466.777         466.526 
      0.0982031         410.555         411.312 
       0.104506         370.131         367.115 
       0.110769         339.421         336.897 
       0.116806         318.418         318.042 
       0.122832         306.644         305.084 
       0.129052         292.595         293.214 
       0.135211         278.534         279.357 
       0.141259         262.881         262.185 
       0.147318         243.895         242.021 
       0.153489         221.769         220.499 
       0.159709         202.386          200.32 
       0.165845         187.668         183.766 
       0.171974         173.764         171.316 
       0.178125         165.375         162.589 
       0.184229         159.545         156.558 
        0.19034         152.657         151.693 
       0.196428         148.793         146.675 
       0.202534         143.842         140.596 
       0.208729         135.677         133.144 
       0.214876         126.839         124.881 
       0.220989         120.036         116.561 
       0.227147         111.385         108.859 
        0.23329         105.182         102.395 
       0.239377         100.694         97.3659 
       0.245482         95.8166         93.5287 
       0.251667          93.703         90.4697 
       0.257832         90.7647         87.7557 
       0.263955         87.8481         84.9569 
       0.270079         84.6902         81.8068 
        0.27624         81.9134         78.2522 
       0.282372         78.1852         74.4793 
        0.28843         74.2074         70.7762 
       0.294538         70.7741         67.3069 
       0.300721         68.4085         64.2449 
        0.30691         65.2999         61.6768 
       0.313033          63.228         59.5712 
       0.319153         60.5514         57.7573 
       0.325316         59.7352         56.0639 
        0.33145         57.6929         54.3653 
       0.337538         56.1018         52.5937 
       0.343633          54.028         50.7155 
       0.349808         52.2762         48.7641 
       0.355968         50.4884         46.8431 
       0.362074         48.6506         45.0504 
       0.368217         47.0733         43.4134 
       0.374374          45.483         41.9563 
       0.380519         44.3426         40.6709 
       0.386598          43.177         39.5152 
       0.392688         42.2478         38.4245 
        0.39888         41.0118         37.3354 
       0.405048         40.0101         36.2375 
       0.411186         38.9742          35.132 
       0.417313         37.6297         34.0242 
       0.423458         36.6066         32.9347 
       0.429607         35.5184         31.8949 
       0.435692         34.4271         30.9322 
       0.441815         33.7136         30.0348 
       0.447964         33.0962         29.2055 
       0.454126          31.867         28.4294 
       0.460267         31.2594         27.6915 
       0.466387         30.3341         26.9772 
        0.47254         29.8283         26.2707 
       0.478662         29.2486         25.5722 
       0.484765         28.3688         24.8843 
       0.490885         27.6847         24.2117 
       0.497035         27.2865         23.5604 
       0.503198         26.5424         22.9369 
       0.509342         25.8693         22.3474 
       0.515458         25.2788         21.7937 
       0.521598         24.8159         21.2655 
       0.527764         24.2552         20.7561 
       0.533884         23.8346         20.2653 
           0.54         23.3079          19.787 
       0.546137         22.8899         19.3179 
       0.552299         22.4766         18.8569 
       0.558452         21.7826         18.4074 
       0.564573         21.4724         17.9734 
       0.570708         21.0727          17.554 
       0.576825         20.5302         17.1532 
       0.582926          20.164         16.7697 
       0.589034         19.6108         16.3999 
       0.595184          19.338         16.0399 
       0.601379         18.9418         15.6882 
       0.607522         18.6411         15.3494 
       0.613639         18.4129         15.0211 
       0.619772         17.9216         14.7004 
       0.625918         17.7864         14.3871 
       0.632068         17.4919         14.0818 
       0.638161         17.0798          13.788 
         0.6443         16.7324         13.5009 
       0.650464         16.4097         13.2223 
       0.656582         16.2886         12.9548 
       0.662703         15.9818         12.6956 
       0.668861         15.6806         12.4423 
       0.675024         15.3807         12.1957 
       0.681124         15.1166         11.9578 
       0.687237         14.8773         11.7251 
       0.693381         14.7006         11.4971 
       0.699536         14.3043         11.2745 
       0.705665         14.1822         11.0589 
       0.711789         13.9199         10.8494 
       0.717957         13.7014         10.6443 
        0.72409          13.479          10.446 
       0.730186            13.3         10.2541 
       0.736317         13.1487         10.0662 
       0.742472         12.9357         9.88229 
       0.748622         12.7459         9.70311 
        0.75476         12.4875         9.52864 
       0.760888         12.3306         9.35865 
       0.767043         12.1793         9.19209 
       0.773185         11.9365         9.02992 
       0.779291          11.852         8.87262 
       0.785407         11.6749          8.7189 
       0.791564         11.4801         8.56796 
       0.797719         11.2654         8.42076 
       0.803834         11.2057         8.27805 
       0.809972         11.0914          8.1382 
       0.816124         10.8463         8.00134 
       0.822261         10.7001         7.86804 
       0.828378         10.5752          7.7382 
       0.834502         10.4818         7.61119 
       0.840667         10.3012         7.48621 
       0.846816          10.121          7.3644 
       0.852925         10.0308         7.24607 
       0.859047         9.90703          7.1301 
       0.865192         9.81655         7.01631 
       0.871341         9.71304         6.90494 
       0.877463          9.5516         6.79652 
       0.883569         9.40578         6.69072 
       0.889708         9.25383         6.58666 
       0.895864         9.17877         6.48457 
       0.902008         9.08662         6.38488 
       0.908149         8.98637         6.28737 
       0.914301          8.8669         6.19175 
       0.920448         8.72913         6.09824 
       0.926574         8.62829         6.00701 
       0.932687         8.54574         5.91785 
       0.938823         8.42956         5.83019 
       0.944975         8.32215         5.74413 
       0.951105         8.24453         5.66013 
       0.957225         8.19734         5.57796 
       0.963368         8.08746         5.49716 
       0.969511         7.99688         5.41797 
       0.975621         7.89684         5.34078 
       0.981748         7.81125         5.26491 
       0.987916         7.74173         5.19004 
        0.99406         7.61899         5.11693 
        1.00019         7.50801         5.04538 
        1.00632         7.48673         4.97527 
        1.01246         7.39871          4.9064 
        1.01859         7.29306         4.83895 
        1.02471         7.23438         4.77286 
        1.03085         7.15694         4.70779 
        1.03698         7.05739         4.64408 
        1.04314         7.00793         4.58128 
        1.04929          6.9177         4.51981 
        1.05541          6.8392         4.45971 
        1.06154         6.78512         4.40057 
        1.06769         6.75013         4.34242 
        1.07382         6.64077         4.28552 
        1.07993         6.57466         4.22978 
        1.08607         6.53227          4.1748 
        1.09222          6.4633         4.12075 
        1.09836         6.39548         4.06773 
        1.10449         6.33315         4.01571 
        1.11063         6.26906         3.96455 
        1.11677         6.22588          3.9143 
         1.1229         6.17057         3.86502 
        1.12903         6.09713         3.81655 
        1.13518         6.03157         3.76888 
        1.14131         5.96659         3.72205 
        1.14745         5.90059         3.67606 
        1.15359         5.86866         3.63083 
        1.15973         5.80745         3.58635 
        1.16584         5.73782         3.54283 
        1.17197         5.69269         3.49997 
        1.17811         5.66077         3.45769 
        1.18424         5.60968         3.41623 
        1.19038         5.57469         3.37534 
        1.19652         5.51257         3.33514 
        1.20267         5.45245          3.2956 
        1.20881         5.42326         3.25672 
        1.21495         5.37491         3.21852 
        1.22108         5.31619         3.18095 
         1.2272         5.28566         3.14407 
        1.23334         5.21773         3.10769 
        1.23949         5.17272         3.07181 
        1.24562         5.14665         3.03659 
        1.25174         5.09062         3.00198 
        1.25789         5.05597         2.96781 
        1.26402         5.01664         2.93423 
        1.27014         4.97116         2.90126 
        1.27628         4.92884          2.8687 
        1.28244         4.87172         2.83658 
        1.28858         4.85945         2.80499 
        1.29471         4.80225         2.77396 
        1.30084         4.75762         2.74343 
        1.30697         4.75598         2.71332 
        1.31312         4.66711         2.68362 
        1.31925         4.64567         2.65446 
        1.32537         4.60712         2.62576 
        1.33151         4.58929         2.59739 
        1.33765         4.53034         2.56945 
        1.34378         4.50024         2.54199 
        1.34992         4.47959          2.5149 
        1.35606         4.42237         2.48816 
         1.3622         4.40453         2.46186 
        1.36833         4.36758           2.436 
        1.37445         4.33539         2.41052 
        1.38059         4.31882         2.38534 
        1.38675         4.28372         2.36046 
        1.39288         4.24777         2.33603 
        1.39901         4.20158         2.31196 
        1.40515         4.17639         2.28818 
         1.4113         4.14848         2.26474 
        1.41742         4.12036         2.24172 
        1.42355         4.08553         2.21899 
         1.4297         4.05329          2.1965 
        1.43585          4.0366         2.17433 
        1.44198         4.01515         2.15255 
        1.44809         3.97146         2.13112 
        1.45423         3.94101         2.10989 
        1.46036         3.90936           2.089 
        1.46649         3.88301         2.06838 
        1.47263         3.85336         2.04803 
        1.47877         3.82312         2.02796 
        1.48491         3.79958         2.00813 
        1.49104         3.77877         1.98861 
        1.49718         3.75209         1.96934 
        1.50333          3.7301         1.95029 
        1.50947         3.69952         1.93153 
         1.5156         3.67515         1.91305 
        1.52172         3.65296         1.89481 
        1.52787          3.6307         1.87677 
          1.534         3.59943         1.85899 
        1.54013         3.58263         1.84146 
        1.54627         3.54841         1.82412 
        1.55241         3.52491         1.80701 
        1.55855         3.51085         1.79014 
        1.56467         3.48678         1.77354 
         1.5708         3.46058         1.75709 
        1.57695         3.43361         1.74084 
        1.58308         3.40826         1.72482 
        1.58922         3.39866           1.709 
        1.59535         3.37543         1.69338 
         1.6015         3.34993         1.67794 
        1.60764          3.3292          1.6627 
        1.61376         3.31105         1.64769 
        1.61989         3.28856         1.63285 
        1.62604         3.26478         1.61817 
        1.63218         3.25657         1.60367 
        1.63831         3.22849         1.58939 
        1.64444         3.20835         1.57528 
        1.65059         3.18359          1.5613 
        1.65673         3.17302         1.54751 
        1.66285         3.14492         1.53393 
        1.66898         3.12992          1.5205 
        1.67512         3.10531         1.50721 
        1.68127         3.08908         1.49407 
         1.6874         3.07974         1.48111 
        1.69353         3.04476         1.46832 
        1.69967         3.03374         1.45565 
        1.70581         3.02171         1.44313 
        1.71193         3.00012         1.43081 
        1.71806         2.98611          1.4186 
        1.72421         2.96716         1.40652 
        1.73035         2.95194         1.39459 
        1.73649         2.93063          1.3828 
        1.74262         2.91241         1.37116 
        1.74876         2.90405         1.35964 
        1.75489         2.88243         1.34828 
        1.76101            2.86         1.33706 
        1.76715         2.85021         1.32595 
        1.77329         2.83745         1.31495 
        1.77943           2.809         1.30407 
        1.78557         2.80077         1.29333 
        1.79171         2.78777         1.28271 
        1.79785         2.76743         1.27221 
        1.80399         2.75285         1.26182 
        1.81012         2.74154         1.25157 
        1.81625         2.72375         1.24144 
        1.82239         2.70669          1.2314 
        1.82853         2.68831         1.22148 
        1.83466         2.68254         1.21168 
        1.84078         2.66682           1.202 
        1.84692         2.65513         1.19241 
        1.85306         2.63252         1.18291 
         1.8592         2.61782         1.17353 
        1.86533          2.6052         1.16425 
        1.87147         2.59649         1.15507 
        1.87761         2.57942         1.14598 
        1.88375         2.56367         1.13701 
        1.88988         2.55149         1.12813 
        1.89601         2.53758         1.11935 
        1.90215         2.52127         1.11066 
        1.90829          2.5059         1.10206 
        1.91442         2.49949         1.09355 
        1.92056         2.48162         1.08514 
         1.9267         2.47193         1.07681 
        1.93284         2.46244         1.06856 
        1.93897         2.44885         1.06041 
        1.94509         2.43137         1.05237 
        1.95123         2.41842         1.04439 
        1.95737         2.40453         1.03649 
        1.96349         2.39713         1.02869 
        1.96964         2.38921         1.02095 
        1.97578         2.36957         1.01328 
        1.98192         2.36117         1.00571 
        1.98805         2.34995        0.998218 
        1.99419         2.33896          0.9908 
        2.00033          2.3315        0.983454 
        2.00647         2.31448        0.976185 
         2.0126         2.30707        0.969002 
        2.01874         2.28806         0.96188 
        2.02488         2.28248        0.954824 
        2.03101         2.26423        0.947852 
        2.03714         2.25611        0.940957 
        2.04328         2.24701        0.934122 
        2.04941         2.22972        0.927361 
        2.05554         2.22528        0.920672 
        2.06167         2.21461         0.91404 
        2.06781         2.20574        0.907472 
        2.07396         2.19541         0.90096 
        2.08009         2.18381        0.894523 
        2.08622         2.17042        0.888157 
        2.09237         2.16305         0.88184 
        2.09851           2.152        0.875584 
        2.10464         2.14668        0.869398 
        2.11077         2.13272        0.863281 
        2.11691         2.12237        0.857209 
        2.12305         2.11518        0.851195 
        2.12918         2.10677        0.845253 
        2.13531          2.0958        0.839368 
        2.14145          2.0849        0.833525 
         2.1476         2.07267        0.827732 
        2.15372          2.0641        0.822022 
        2.15985         2.05522        0.816361 
        2.16599         2.04778        0.810738 
        2.17213         2.03321        0.805173 
        2.17827          2.0282        0.799662 
         2.1844          2.0195        0.794208 
        2.19054         2.01189        0.788803 
        2.19666         2.00036        0.783456 
         2.2028         1.99124        0.778153 
        2.20893         1.98351        0.772898 
        2.21508         1.97485        0.767685 
        2.22122         1.96285        0.762518 
        2.22736         1.95503         0.75741 
        2.23349         1.95014         0.75235 
        2.23962         1.93756        0.747334 
        2.24577         1.93212        0.742359 
         2.2519         1.92187        0.737437 
        2.25802         1.91675        0.732567 
        2.26417         1.90822        0.727727 
        2.27031         1.89896        0.722927 
        2.27644         1.89141        0.718185 
        2.28257         1.88124        0.713485 
        2.28872         1.87566        0.708818 
        2.29486         1.86568        0.704195 
        2.30099         1.85725        0.699622 
        2.30712         1.84799        0.695088 
        2.31326         1.84424        0.690586 
         2.3194         1.83551        0.686127 
        2.32553         1.82849        0.681715 
        2.33166         1.81961        0.677344 
         2.3378         1.81217        0.673005 
        2.34394         1.80368        0.668703 
        2.35007         1.79612        0.664445 
        2.35619         1.79247        0.660229 
        2.36233         1.78169         0.65604 
        2.36848         1.77493        0.651878 
        2.37462         1.76929        0.647762 
        2.38075         1.76025        0.643685 
        2.38689          1.7553        0.639639 
        2.39303         1.74635         0.63563 
        2.39916         1.73988        0.631658 
        2.40529         1.73288        0.627722 
        2.41143         1.72452        0.623816 
        2.41757         1.71833        0.619941 
         2.4237         1.71437        0.616107 
        2.42983         1.70197        0.612305 
        2.43598         1.70141        0.608526 
        2.44211         1.69136        0.604785 
        2.44823         1.68598        0.601083 
        2.45437         1.67859        0.597403 
        2.46052         1.67356        0.593751 
        2.46665         1.66684        0.590135 
        2.47279         1.65868        0.586551 
        2.47892         1.65319        0.582994 
        2.48507         1.64779        0.579464 
         2.4912         1.63771         0.57597 
