# k  (h/Mpc)    Pcb(k)  (Mpc/h)^3    Pcb_linear(k)  (Mpc/h)^3
     0.00783031         7825.84         7880.93 
       0.013688         8715.84         8879.79 
       0.019231         8244.56         8321.39 
      0.0249154         7165.62         7129.56 
      0.0312784          5699.1         5704.07 
      0.0375637         4534.87         4558.48 
      0.0433917         3832.48         3818.61 
      0.0492413         3340.14          3345.1 
      0.0555754         3049.38         3030.99 
      0.0619321         2759.02         2804.78 
       0.067871         2581.84         2591.57 
      0.0738098         2342.93         2340.21 
      0.0800417         2057.62         2042.44 
      0.0862327         1757.92         1748.02 
      0.0921407         1523.62         1504.27 
      0.0982031         1348.06         1313.32 
       0.104506         1195.96         1180.58 
       0.110769         1119.88          1100.9 
       0.116806         1081.14         1051.87 
       0.122832         1024.48         1008.67 
       0.129052         971.317         953.687 
       0.135211         913.232         882.808 
       0.141259         825.531         801.658 
       0.147318         739.786         719.061 
       0.153489         672.668         644.233 
       0.159709         624.846          585.13 
       0.165845         570.683         544.118 
       0.171974         557.214          517.05 
       0.178125         535.421         497.972 
       0.184229         505.966         480.819 
        0.19034         491.654          460.72 
       0.196428         469.244         435.837 
       0.202534         430.955         406.917 
       0.208729         413.397         376.379 
       0.214876         388.793         348.133 
       0.220989         359.079           324.4 
       0.227147         347.476         305.735 
        0.23329         332.924         291.773 
       0.239377         325.716          281.02 
       0.245482         309.937         271.475 
       0.251667         296.933         261.477 
       0.257832         291.864         250.331 
       0.263955         273.724         238.079 
       0.270079         260.631         225.278 
        0.27624         248.138         212.791 
       0.282372         239.462         201.533 
        0.28843         235.711         192.006 
       0.294538         223.683         183.993 
       0.300721         215.098         177.172 
        0.30691         211.213         171.099 
       0.313033         201.555         165.318 
       0.319153         197.692         159.411 
       0.325316         191.319         153.214 
        0.33145          184.87         146.894 
       0.337538         177.637         140.704 
       0.343633         171.762         134.827 
       0.349808         166.069         129.395 
       0.355968         161.886         124.547 
       0.362074           157.5          120.27 
       0.368217         154.289         116.349 
       0.374374         150.082         112.648 
       0.380519         143.717         109.053 
       0.386598         140.828         105.505 
       0.392688         136.276         101.966 
        0.39888         133.607         98.4168 
       0.405048         130.181         94.9969 
       0.411186         127.947         91.7791 
       0.417313         124.742         88.7805 
       0.423458         121.345         85.9885 
       0.429607         118.254         83.3897 
       0.435692         116.403         80.9619 
       0.441815          113.02         78.6144 
       0.447964         109.519         76.3263 
       0.454126         107.483         74.0841 
       0.460267         106.335         71.8959 
       0.466387         103.447         69.7785 
        0.47254         102.184         67.7321 
       0.478662         98.6247         65.7878 
       0.484765         97.0229         63.9439 
       0.490885          94.765           62.19 
       0.497035         93.8318          60.513 
       0.503198         91.9424         58.9018 
       0.509342         89.4885         57.3501 
       0.515458          87.997         55.8523 
       0.521598         85.7029         54.3933 
       0.527764         84.8135          52.971 
       0.533884          84.064         51.6031 
           0.54         81.6883         50.2833 
       0.546137         79.7174         49.0099 
       0.552299         78.2637         47.7831 
       0.558452          76.856         46.6066 
       0.564573         76.4306         45.4785 
       0.570708         74.1887         44.3858 
       0.576825         73.3715         43.3314 
       0.582926         72.4463         42.3126 
       0.589034         71.0703         41.3236 
       0.595184         70.0959         40.3574 
       0.601379         68.5448         39.4141 
       0.607522         67.0644         38.5078 
       0.613639         66.5391         37.6345 
       0.619772         65.1998          36.788 
       0.625918          64.679         35.9679 
       0.632068         63.3256         35.1738 
       0.638161         62.3724         34.4112 
         0.6443         61.9125         33.6655 
       0.650464         60.4164         32.9383 
       0.656582         60.1768          32.237 
       0.662703         59.2711         31.5553 
       0.668861         57.9291         30.8894 
       0.675024         57.7501         30.2424 
       0.681124         56.8201         29.6209 
       0.687237         55.8271         29.0161 
       0.693381         55.1271         28.4258 
       0.699536         54.5069          27.851 
       0.705665         53.7748         27.2947 
       0.711789         52.9363          26.754 
       0.717957         52.1876         26.2242 
        0.72409         51.6085         25.7115 
       0.730186         51.2678         25.2156 
       0.736317         50.3878         24.7301 
       0.742472          49.617         24.2556 
       0.748622         48.9251         23.7941 
        0.75476         48.5251         23.3457 
       0.760888         48.2438         22.9097 
       0.767043         47.1842         22.4832 
       0.773185          46.521         22.0685 
       0.779291           46.03         21.6666 
       0.785407           45.56         21.2742 
       0.791564         45.3785          20.889 
       0.797719         44.5006         20.5136 
       0.803834         44.2392         20.1497 
       0.809972         43.7312         19.7934 
       0.816124         43.1622         19.4449 
       0.822261         42.5443         19.1058 
       0.828378         42.4105         18.7758 
       0.834502         41.8606         18.4533 
       0.840667         41.4769         18.1363 
       0.846816         40.9915         17.8277 
       0.852925         40.4913         17.5282 
       0.859047         40.3687          17.235 
       0.865192         39.7182         16.9475 
       0.871341         39.2762         16.6665 
       0.877463         38.8497         16.3931 
       0.883569         38.7683         16.1265 
       0.889708         38.2768         15.8645 
       0.895864         37.9428         15.6077 
       0.902008         37.5453         15.3571 
       0.908149         37.0399         15.1121 
       0.914301          36.771         14.8721 
       0.920448         36.6517         14.6375 
       0.926574         36.0071         14.4089 
       0.932687         35.7182         14.1856 
       0.938823         35.3343         13.9662 
       0.944975         34.9468          13.751 
       0.951105         34.7049         13.5411 
       0.957225         34.4321          13.336 
       0.963368         34.1382         13.1344 
       0.969511         33.8195         12.9369 
       0.975621         33.5437         12.7446 
       0.981748         33.2152         12.5557 
       0.987916         32.9022         12.3695 
        0.99406         32.6555         12.1878 
        1.00019         32.3188           12.01 
        1.00632         32.0933          11.836 
        1.01246         31.8146         11.6651 
        1.01859         31.5806          11.498 
        1.02471         31.2733         11.3342 
        1.03085         31.0465         11.1732 
        1.03698         30.8825         11.0155 
        1.04314         30.5773         10.8603 
        1.04929         30.2118         10.7084 
        1.05541          30.161           10.56 
        1.06154         29.8586         10.4141 
        1.06769         29.5075         10.2707 
        1.07382         29.3069         10.1305 
        1.07993         29.1521         9.99323 
        1.08607         28.8656         9.85792 
        1.09222         28.7027         9.72498 
        1.09836         28.4631         9.59465 
        1.10449         28.3047         9.46685 
        1.11063          28.025         9.34123 
        1.11677         27.9595         9.21794 
         1.1229         27.6514         9.09708 
        1.12903         27.4442         8.97829 
        1.13518         27.3614         8.86152 
        1.14131         27.0957         8.74688 
        1.14745          26.864         8.63434 
        1.15359         26.5622         8.52376 
        1.15973         26.5369         8.41507 
        1.16584          26.294         8.30877 
        1.17197         26.0112         8.20414 
        1.17811         25.8785           8.101 
        1.18424         25.5439         7.99993 
        1.19038         25.4506         7.90029 
        1.19652         25.2999         7.80239 
        1.20267         25.1501         7.70614 
        1.20881         24.9597         7.61154 
        1.21495         24.8915         7.51868 
        1.22108         24.7676         7.42738 
         1.2272         24.4778          7.3378 
        1.23334         24.3729          7.2495 
        1.23949         24.1936         7.16245 
        1.24562          24.021         7.07706 
        1.25174         23.8757         6.99319 
        1.25789          23.726         6.91042 
        1.26402         23.5905         6.82913 
        1.27014         23.4731         6.74935 
        1.27628         23.2388          6.6706 
        1.28244         23.2602         6.59296 
        1.28858         22.9818         6.51665 
        1.29471         22.8033         6.44172 
        1.30084         22.6685         6.36804 
        1.30697         22.5929         6.29539 
        1.31312         22.4177         6.22377 
        1.31925         22.2356         6.15349 
        1.32537         22.0775         6.08436 
        1.33151         21.9226         6.01605 
        1.33765         21.9141         5.94882 
        1.34378         21.7868         5.88275 
        1.34992         21.5793         5.81763 
        1.35606         21.3935         5.75336 
         1.3622          21.346         5.69017 
        1.36833         21.2609         5.62808 
        1.37445         21.0596         5.56694 
        1.38059         20.9397         5.50653 
        1.38675         20.8535         5.44686 
        1.39288         20.7024         5.38832 
        1.39901         20.5571         5.33066 
        1.40515         20.4704         5.27371 
         1.4113         20.4034         5.21761 
        1.41742         20.2686         5.16255 
        1.42355         20.0809         5.10817 
         1.4297         20.0316         5.05441 
        1.43585         19.9129         5.00145 
        1.44198         19.8046         4.94945 
        1.44809         19.6674         4.89828 
        1.45423         19.5906         4.84764 
        1.46036         19.5124         4.79781 
        1.46649         19.3617         4.74866 
        1.47263         19.2514         4.70016 
        1.47877         19.1284         4.65236 
        1.48491         19.0449         4.60515 
        1.49104         18.9215         4.55869 
        1.49718         18.9131         4.51283 
        1.50333         18.7839         4.46753 
        1.50947         18.6127         4.42295 
         1.5156         18.5882         4.37904 
        1.52172         18.4584         4.33572 
        1.52787         18.4141          4.2929 
          1.534         18.2565         4.25071 
        1.54013         18.2523         4.20913 
        1.54627         18.0857         4.16802 
        1.55241          18.001         4.12746 
        1.55855         17.8975         4.08749 
        1.56467         17.7893         4.04816 
         1.5708         17.7443         4.00924 
        1.57695         17.6607         3.97076 
        1.58308         17.5043         3.93288 
        1.58922         17.4444         3.89546 
        1.59535         17.3665         3.85855 
         1.6015         17.3145         3.82206 
        1.60764         17.1901         3.78605 
        1.61376         17.1148         3.75061 
        1.61989         16.9686         3.71559 
        1.62604         16.9141         3.68094 
        1.63218         16.8215         3.64675 
        1.63831         16.7522         3.61307 
        1.64444         16.6922         3.57981 
        1.65059         16.5941         3.54688 
        1.65673         16.5232         3.51441 
        1.66285         16.4563         3.48242 
        1.66898         16.3636         3.45083 
        1.67512         16.3276         3.41957 
        1.68127         16.2228         3.38866 
         1.6874         16.1582          3.3582 
        1.69353         16.0544         3.32813 
        1.69967         15.9652         3.29837 
        1.70581         15.9178         3.26897 
        1.71193         15.8386         3.24005 
        1.71806         15.7669         3.21141 
        1.72421         15.7051         3.18306 
        1.73035           15.62         3.15508 
        1.73649         15.5113         3.12745 
        1.74262         15.4735         3.10017 
        1.74876         15.4256         3.07319 
        1.75489          15.319         3.04659 
        1.76101          15.249         3.02031 
        1.76715         15.1771         2.99431 
        1.77329         15.0942         2.96858 
        1.77943         15.0491         2.94313 
        1.78557         15.0114         2.91803 
        1.79171         14.9231         2.89321 
        1.79785         14.8354         2.86867 
        1.80399         14.7426         2.84442 
        1.81012         14.7289         2.82049 
        1.81625         14.6336         2.79683 
        1.82239         14.5616         2.77342 
        1.82853         14.5077         2.75028 
        1.83466         14.4358         2.72742 
        1.84078         14.3607         2.70485 
        1.84692         14.3264          2.6825 
        1.85306         14.2695         2.66037 
         1.8592         14.2327         2.63852 
        1.86533         14.1538         2.61694 
        1.87147         14.0655         2.59556 
        1.87761         14.0139         2.57442 
        1.88375         13.9517         2.55353 
        1.88988         13.8989          2.5329 
        1.89601          13.842         2.51249 
        1.90215         13.7598         2.49228 
        1.90829         13.7272          2.4723 
        1.91442         13.6349         2.45254 
        1.92056         13.5978         2.43302 
         1.9267         13.5459         2.41368 
        1.93284         13.5232         2.39455 
        1.93897          13.431         2.37565 
        1.94509         13.3865           2.357 
        1.95123         13.3052          2.3385 
        1.95737          13.231         2.32019 
        1.96349         13.2121         2.30212 
        1.96964         13.1772         2.28419 
        1.97578         13.1133         2.26644 
        1.98192         13.0451         2.24891 
        1.98805         12.9747         2.23157 
        1.99419         12.9475         2.21441 
        2.00033         12.8696         2.19742 
        2.00647         12.8221         2.18061 
         2.0126         12.7525         2.16401 
        2.01874         12.7215         2.14755 
        2.02488         12.6486         2.13125 
        2.03101         12.6046         2.11515 
        2.03714         12.5565         2.09923 
        2.04328         12.5131         2.08346 
        2.04941         12.4454         2.06785 
        2.05554          12.421         2.05242 
        2.06167         12.3859         2.03713 
        2.06781         12.3379         2.02199 
        2.07396         12.2784         2.00698 
        2.08009         12.2093         1.99215 
        2.08622         12.1783         1.97748 
        2.09237         12.1421         1.96293 
        2.09851         12.0783         1.94853 
        2.10464         12.0151         1.93429 
        2.11077         11.9753         1.92021 
        2.11691         11.9224         1.90624 
        2.12305         11.8834         1.89241 
        2.12918         11.8365         1.87875 
        2.13531         11.7981         1.86522 
        2.14145         11.7353         1.85179 
         2.1476         11.6712         1.83848 
        2.15372         11.6842         1.82536 
        2.15985         11.6046         1.81236 
        2.16599         11.5593         1.79945 
        2.17213         11.5187         1.78668 
        2.17827         11.4672         1.77404 
         2.1844         11.4248         1.76152 
        2.19054         11.4131         1.74913 
        2.19666         11.3444         1.73687 
         2.2028         11.3154         1.72471 
        2.20893         11.2452         1.71267 
        2.21508         11.2085         1.70073 
        2.22122         11.1598         1.68889 
        2.22736         11.1411          1.6772 
        2.23349         11.0777         1.66561 
        2.23962         11.0521         1.65413 
        2.24577         11.0223         1.64275 
         2.2519         10.9568         1.63149 
        2.25802         10.9044         1.62035 
        2.26417         10.9085         1.60928 
        2.27031         10.8406         1.59831 
        2.27644         10.8178         1.58747 
        2.28257         10.7574         1.57674 
        2.28872         10.7445         1.56608 
        2.29486         10.7125         1.55552 
        2.30099         10.6395         1.54508 
        2.30712         10.6155         1.53473 
        2.31326         10.5631         1.52445 
         2.3194          10.529         1.51428 
        2.32553         10.4832         1.50422 
        2.33166         10.4297         1.49425 
         2.3378         10.4198         1.48436 
        2.34394         10.3677         1.47455 
        2.35007         10.3473         1.46485 
        2.35619         10.3083         1.45524 
        2.36233         10.2521          1.4457 
        2.36848         10.2097         1.43623 
        2.37462         10.1749         1.42685 
        2.38075          10.132         1.41757 
        2.38689         10.1211         1.40837 
        2.39303         10.0621         1.39925 
        2.39916          10.036         1.39022 
        2.40529         9.99925         1.38126 
        2.41143         9.95238         1.37238 
        2.41757         9.91315         1.36358 
         2.4237         9.88271         1.35486 
        2.42983         9.86096         1.34623 
        2.43598         9.82563         1.33764 
        2.44211         9.78792         1.32915 
        2.44823         9.73771         1.32074 
        2.45437         9.73171         1.31239 
        2.46052         9.67558          1.3041 
        2.46665         9.66095          1.2959 
        2.47279         9.62082         1.28777 
        2.47892          9.5787          1.2797 
        2.48507         9.54635          1.2717 
         2.4912         9.49424         1.26377 
