# k  (h/Mpc)    P(k)  (Mpc/h)^3    P_linear(k)  (Mpc/h)^3
     0.00783031         180.911         182.588 
       0.013688         207.728         209.291 
       0.019231         196.295         196.659 
      0.0249154         168.222         167.973 
      0.0312784         134.709         134.277 
      0.0375637         108.719         108.425 
      0.0433917         93.0901           92.71 
      0.0492413         83.3426         83.1743 
      0.0555754          76.862         76.6635 
      0.0619321         70.7609         70.9098 
       0.067871         64.5132         64.4906 
      0.0738098         56.9371         56.8742 
      0.0800417         48.7249         48.5658 
      0.0862327         41.4172         41.2867 
      0.0921407         36.1348          36.029 
      0.0982031         32.6246         32.4758 
       0.104506         30.3461         30.3254 
       0.110769         29.0032          28.997 
       0.116806         27.8115         27.7629 
       0.122832         26.1069         26.1167 
       0.129052         23.9357         23.8929 
       0.135211         21.4921         21.4141 
       0.141259         19.1463         19.0922 
       0.147318         17.2097         17.1814 
       0.153489         15.8427         15.7904 
       0.159709         14.9492         14.8968 
       0.165845         14.3207         14.3302 
       0.171974         13.8971         13.8521 
       0.178125         13.3055         13.2777 
       0.184229         12.5435         12.5341 
        0.19034          11.698         11.6488 
       0.196428         10.7742         10.7313 
       0.202534         9.89999         9.89168 
       0.208729         9.24433         9.20174 
       0.214876         8.75389          8.6967 
       0.220989         8.35604         8.33662 
       0.227147         8.09851         8.05127 
        0.23329         7.81979         7.77509 
       0.239377         7.50848         7.46272 
       0.245482         7.14442          7.0979 
       0.251667         6.72498         6.69534 
       0.257832         6.34965         6.29697 
       0.263955         5.97829          5.9391 
       0.270079         5.67631         5.63915 
        0.27624         5.42198         5.39656 
       0.282372         5.22526         5.20029 
        0.28843         5.06917         5.02854 
       0.294538         4.89373          4.8576 
       0.300721         4.69568          4.6737 
        0.30691          4.5145         4.47687 
       0.313033          4.3126         4.27677 
       0.319153         4.13702         4.08277 
       0.325316          3.9319         3.90345 
        0.33145         3.77453         3.74668 
       0.337538         3.64282         3.61149 
       0.343633         3.52997         3.49199 
       0.349808         3.41048         3.37942 
       0.355968         3.29732         3.26966 
       0.362074         3.19448         3.15939 
       0.368217         3.08004         3.04678 
       0.374374         2.97715         2.93471 
       0.380519         2.85977         2.82673 
       0.386598         2.75538         2.72696 
       0.392688         2.66014          2.6354 
        0.39888         2.58012         2.55026 
       0.405048          2.5033         2.47215 
       0.411186         2.42716         2.39853 
       0.417313         2.35592         2.32697 
       0.423458         2.27919         2.25636 
       0.429607          2.2175         2.18661 
       0.435692         2.15102         2.11894 
       0.441815          2.0822         2.05334 
       0.447964         2.01329         1.99094 
       0.454126         1.96085         1.93201 
       0.460267           1.909         1.87674 
       0.466387          1.8549         1.82476 
        0.47254         1.80677          1.7748 
       0.478662         1.75567         1.72663 
       0.484765          1.7106         1.67974 
       0.490885         1.66045         1.63397 
       0.497035         1.61185         1.58932 
       0.503198         1.57374         1.54611 
       0.509342         1.52775         1.50469 
       0.515458         1.49139         1.46528 
       0.521598         1.45434         1.42757 
       0.527764         1.42162         1.39132 
       0.533884          1.3795         1.35666 
           0.54          1.3482         1.32309 
       0.546137         1.31284         1.29038 
       0.552299         1.28236         1.25852 
       0.558452         1.25136         1.22772 
       0.564573         1.22181         1.19808 
       0.570708         1.19321         1.16936 
       0.576825         1.16597         1.14171 
       0.582926         1.13646         1.11509 
       0.589034         1.11414         1.08938 
       0.595184         1.09026         1.06437 
       0.601379         1.06359         1.04002 
       0.607522         1.03857         1.01661 
       0.613639         1.01394        0.993979 
       0.619772        0.994657        0.971932 
       0.625918        0.972915        0.950478 
       0.632068        0.951815         0.92965 
       0.638161        0.931179        0.909642 
         0.6443        0.911003        0.890112 
       0.650464        0.892943        0.871122 
       0.656582         0.87564        0.852847 
       0.662703        0.856859        0.835108 
       0.668861        0.836603        0.817778 
       0.675024        0.820822        0.800922 
       0.681124        0.808919        0.784699 
       0.687237        0.790134        0.768884 
       0.693381        0.771942        0.753425 
       0.699536        0.760148        0.738362 
       0.705665        0.745357        0.723776 
       0.711789        0.728192        0.709603 
       0.717957        0.715316         0.69572 
        0.72409        0.701535        0.682293 
       0.730186        0.690628        0.669306 
       0.736317        0.675217        0.656591 
       0.742472        0.664477        0.644163 
       0.748622        0.652581        0.632071 
        0.75476         0.63903        0.620315 
       0.760888        0.629186        0.608876 
       0.767043        0.613168        0.597681 
       0.773185        0.604635        0.586792 
       0.779291        0.596238        0.576236 
       0.785407        0.584676        0.565926 
       0.791564        0.573628        0.555804 
       0.797719         0.56378        0.545936 
       0.803834        0.553771        0.536372 
       0.809972        0.544719        0.527004 
       0.816124        0.535083        0.517841 
       0.822261        0.526617        0.508922 
       0.828378        0.517257        0.500242 
       0.834502        0.508563        0.491757 
       0.840667        0.500945        0.483416 
       0.846816        0.492305        0.475293 
       0.852925        0.483498         0.46741 
       0.859047        0.475776        0.459689 
       0.865192        0.468477        0.452118 
       0.871341        0.461651        0.444714 
       0.877463        0.452888        0.437511 
       0.883569        0.446113        0.430485 
       0.889708         0.43969        0.423579 
       0.895864        0.432861        0.416808 
       0.902008        0.425327        0.410199 
       0.908149        0.419504        0.403738 
       0.914301        0.413838        0.397406 
       0.920448        0.407499        0.391217 
       0.926574        0.401974        0.385181 
       0.932687        0.395679        0.379286 
       0.938823        0.388493        0.373493 
       0.944975        0.383343        0.367809 
       0.951105        0.376686        0.362263 
       0.957225        0.371215        0.356842 
       0.963368        0.366753        0.351514 
       0.969511         0.36185        0.346294 
       0.975621        0.355639        0.341209 
       0.981748        0.349571        0.336213 
       0.987916        0.345193        0.331286 
        0.99406        0.341104        0.326476 
        1.00019        0.335802        0.321772 
        1.00632        0.332062        0.317165 
        1.01246        0.327292        0.312642 
        1.01859        0.322677        0.308214 
        1.02471        0.317467        0.303878 
        1.03085        0.312728        0.299611 
        1.03698        0.309292        0.295435 
        1.04314        0.304901        0.291322 
        1.04929        0.301697        0.287296 
        1.05541        0.296391        0.283363 
        1.06154        0.293061        0.279495 
        1.06769         0.28938        0.275693 
        1.07382        0.285507        0.271974 
        1.07993        0.281924        0.268333 
        1.08607         0.27798        0.264744 
        1.09222        0.274296        0.261217 
        1.09836        0.270977        0.257759 
        1.10449        0.267066        0.254367 
        1.11063        0.263618        0.251033 
        1.11677         0.26095         0.24776 
         1.1229        0.256865        0.244551 
        1.12903        0.254148        0.241397 
        1.13518        0.250727        0.238295 
        1.14131        0.247793         0.23525 
        1.14745        0.245677        0.232259 
        1.15359        0.241811        0.229321 
        1.15973        0.239261        0.226432 
        1.16584        0.236015        0.223605 
        1.17197        0.232757        0.220824 
        1.17811        0.229952        0.218081 
        1.18424        0.227312        0.215392 
        1.19038        0.224222        0.212741 
        1.19652        0.222403        0.210136 
        1.20267        0.219744        0.207575 
        1.20881        0.216237        0.205057 
        1.21495        0.214106        0.202584 
        1.22108        0.211856        0.200153 
         1.2272        0.208966        0.197768 
        1.23334        0.206686        0.195416 
        1.23949        0.204778        0.193096 
        1.24562        0.202202        0.190821 
        1.25174         0.20011        0.188586 
        1.25789        0.197057         0.18638 
        1.26402        0.195567        0.184213 
        1.27014        0.192726        0.182087 
        1.27628        0.190998        0.179987 
        1.28244        0.188887        0.177916 
        1.28858        0.186482        0.175881 
        1.29471        0.184612        0.173883 
        1.30084        0.182441        0.171917 
        1.30697        0.180961        0.169979 
        1.31312        0.178903        0.168068 
        1.31925        0.176834        0.166192 
        1.32537        0.174943        0.164347 
        1.33151        0.173046        0.162524 
        1.33765         0.17102        0.160729 
        1.34378        0.169075        0.158965 
        1.34992        0.167867        0.157226 
        1.35606        0.165723         0.15551 
         1.3622        0.164107        0.153822 
        1.36833          0.1627        0.152163 
        1.37445        0.161017         0.15053 
        1.38059        0.159259        0.148915 
        1.38675         0.15728        0.147321 
        1.39288        0.155415        0.145756 
        1.39901        0.154411        0.144215 
        1.40515        0.152657        0.142692 
         1.4113        0.151346        0.141192 
        1.41742        0.149871        0.139719 
        1.42355        0.147657        0.138265 
         1.4297        0.146826        0.136826 
        1.43585        0.145093        0.135409 
        1.44198         0.14381        0.134018 
        1.44809        0.142308        0.132648 
        1.45423        0.140833        0.131293 
        1.46036        0.139488        0.129959 
        1.46649        0.138122        0.128643 
        1.47263        0.136355        0.127344 
        1.47877         0.13584        0.126064 
        1.48491        0.133843        0.124799 
        1.49104        0.133317        0.123555 
        1.49718        0.131622        0.122326 
        1.50333        0.130485        0.121112 
        1.50947        0.129317        0.119917 
         1.5156         0.12802        0.118741 
        1.52172        0.126876        0.117579 
        1.52787        0.125365        0.116432 
          1.534        0.124474          0.1153 
        1.54013        0.123163        0.114185 
        1.54627        0.122246        0.113083 
        1.55241        0.121072        0.111995 
        1.55855        0.119935        0.110923 
        1.56467        0.118903        0.109868 
         1.5708         0.11778        0.108824 
        1.57695        0.116726        0.107792 
        1.58308        0.115316        0.106775 
        1.58922        0.114613        0.105771 
        1.59535         0.11343        0.104781 
         1.6015        0.112621        0.103801 
        1.60764        0.111395        0.102835 
        1.61376        0.110486        0.101883 
        1.61989        0.109445        0.100943 
        1.62604        0.108527        0.100012 
        1.63218        0.107666       0.0990941 
        1.63831        0.106631       0.0981895 
        1.64444         0.10576       0.0972958 
        1.65059        0.104615       0.0964112 
        1.65673         0.10386       0.0955385 
        1.66285        0.103163        0.094679 
        1.66898        0.102034       0.0938298 
        1.67512        0.101173       0.0929894 
        1.68127        0.100287       0.0921585 
         1.6874       0.0995529       0.0913396 
        1.69353       0.0986503       0.0905312 
        1.69967       0.0975818       0.0897306 
        1.70581       0.0971656       0.0889401 
        1.71193       0.0963649        0.088162 
        1.71806       0.0953834       0.0873917 
        1.72421       0.0945116        0.086629 
        1.73035       0.0938074       0.0858762 
        1.73649       0.0930571       0.0851326 
        1.74262       0.0922476       0.0843983 
        1.74876       0.0917053       0.0836722 
        1.75489       0.0908074       0.0829562 
        1.76101       0.0901178       0.0822487 
        1.76715       0.0893979       0.0815485 
        1.77329       0.0885403       0.0808556 
        1.77943       0.0877903       0.0801705 
        1.78557       0.0873387       0.0794943 
        1.79171       0.0865855       0.0788258 
        1.79785        0.085755       0.0781649 
        1.80399       0.0849816       0.0775116 
        1.81012       0.0845061       0.0768667 
        1.81625       0.0838536       0.0762294 
        1.82239       0.0833148       0.0755984 
        1.82853       0.0824883       0.0749749 
        1.83466       0.0818505        0.074359 
        1.84078       0.0812302       0.0737506 
        1.84692       0.0806331        0.073148 
        1.85306       0.0800019       0.0725515 
         1.8592       0.0794484       0.0719625 
        1.86533       0.0788535       0.0713804 
        1.87147       0.0781671        0.070804 
        1.87761        0.077516       0.0702338 
        1.88375       0.0768464       0.0696704 
        1.88988       0.0763854       0.0691139 
        1.89601       0.0756715       0.0685631 
        1.90215       0.0751545       0.0680179 
        1.90829       0.0745039       0.0674789 
        1.91442       0.0741352       0.0669457 
        1.92056       0.0735771       0.0664187 
         1.9267       0.0730041       0.0658968 
        1.93284       0.0723247       0.0653802 
        1.93897       0.0718054       0.0648702 
        1.94509       0.0713515       0.0643666 
        1.95123       0.0708244       0.0638672 
        1.95737       0.0704089       0.0633726 
        1.96349       0.0698835       0.0628846 
        1.96964        0.069243       0.0624003 
        1.97578       0.0688148       0.0619209 
        1.98192       0.0683549       0.0614475 
        1.98805       0.0678917        0.060979 
        1.99419       0.0674259       0.0605153 
        2.00033        0.066818       0.0600562 
        2.00647       0.0663966        0.059602 
         2.0126       0.0660285       0.0591533 
        2.01874       0.0654596       0.0587084 
        2.02488       0.0650033       0.0582678 
        2.03101       0.0645148       0.0578325 
        2.03714        0.064325        0.057402 
        2.04328       0.0635453       0.0569754 
        2.04941       0.0632735       0.0565536 
        2.05554       0.0628561       0.0561362 
        2.06167       0.0623406       0.0557226 
        2.06781       0.0618804        0.055313 
        2.07396       0.0614498        0.054907 
        2.08009       0.0610461       0.0545057 
        2.08622       0.0607141       0.0541089 
        2.09237       0.0602293       0.0537152 
        2.09851       0.0598249       0.0533255 
        2.10464       0.0594488       0.0529402 
        2.11077       0.0589914       0.0525592 
        2.11691       0.0587165       0.0521811 
        2.12305       0.0581163       0.0518066 
        2.12918       0.0577822       0.0514368 
        2.13531        0.057425       0.0510705 
        2.14145       0.0570663        0.050707 
         2.1476       0.0567327       0.0503465 
        2.15372       0.0563456       0.0499914 
        2.15985       0.0559459       0.0496393 
        2.16599       0.0554782       0.0492896 
        2.17213       0.0552614       0.0489437 
        2.17827       0.0548706       0.0486011 
         2.1844       0.0544645       0.0482621 
        2.19054        0.054168       0.0479263 
        2.19666       0.0538412       0.0475941 
         2.2028        0.053317       0.0472647 
        2.20893       0.0531361       0.0469383 
        2.21508       0.0527139       0.0466147 
        2.22122       0.0523545       0.0462939 
        2.22736       0.0520553       0.0459769 
        2.23349       0.0517428       0.0456628 
        2.23962       0.0514533       0.0453516 
        2.24577       0.0511212        0.045043 
         2.2519       0.0507349       0.0447376 
        2.25802       0.0504675       0.0444356 
        2.26417       0.0501667       0.0441356 
        2.27031       0.0498072        0.043838 
        2.27644       0.0496378        0.043544 
        2.28257       0.0491942       0.0432527 
        2.28872       0.0489092       0.0429636 
        2.29486       0.0486741       0.0426771 
        2.30099       0.0483009       0.0423939 
        2.30712       0.0480839        0.042113 
        2.31326       0.0476785       0.0418343 
         2.3194       0.0474288       0.0415582 
        2.32553       0.0471761       0.0412851 
        2.33166       0.0468146       0.0410145 
         2.3378       0.0465396        0.040746 
        2.34394        0.046304       0.0404798 
        2.35007       0.0460369       0.0402163 
        2.35619       0.0458639       0.0399555 
        2.36233       0.0454697       0.0396964 
        2.36848       0.0451756       0.0394391 
        2.37462       0.0449848       0.0391846 
        2.38075       0.0447069       0.0389326 
        2.38689       0.0444717       0.0386825 
        2.39303        0.044232       0.0384347 
        2.39916       0.0438774       0.0381894 
        2.40529       0.0436183       0.0379462 
        2.41143       0.0433171       0.0377049 
        2.41757       0.0431341       0.0374656 
         2.4237       0.0428783       0.0372289 
        2.42983       0.0426325       0.0369942 
        2.43598       0.0423698       0.0367609 
        2.44211       0.0420771         0.03653 
        2.44823       0.0419088       0.0363016 
        2.45437       0.0416466       0.0360745 
        2.46052       0.0414177       0.0358491 
        2.46665       0.0411713       0.0356261 
        2.47279       0.0409789       0.0354051 
        2.47892       0.0408088       0.0351857 
        2.48507       0.0404824       0.0349681 
         2.4912       0.0402998       0.0347526 
