# k  (h/Mpc)    P(k)  (Mpc/h)^3    P_linear(k)  (Mpc/h)^3
     0.00783031         8454.09         8588.59 
       0.013688            9897         9863.55 
       0.019231         9244.81         9227.49 
      0.0249154         7689.03         7785.51 
      0.0312784         6065.35          6077.3 
      0.0375637         4795.57         4760.17 
      0.0433917         3954.43         3966.11 
      0.0492413         3517.17         3506.97 
      0.0555754         3196.24         3238.97 
      0.0619321         3072.22         3045.88 
       0.067871         2796.35         2826.29 
      0.0738098         2508.56         2531.53 
      0.0800417         2143.59          2169.2 
      0.0862327         1822.46         1818.74 
      0.0921407          1573.9         1545.26 
      0.0982031         1369.01         1350.25 
       0.104506         1278.26         1233.74 
       0.110769         1211.52         1178.18 
       0.116806         1166.82         1147.68 
       0.122832         1130.08         1109.57 
       0.129052         1047.57         1043.43 
       0.135211         961.435         950.319 
       0.141259         876.622         845.864 
       0.147318         788.265         746.607 
       0.153489         703.723         665.492 
       0.159709         654.472         610.021 
       0.165845          627.55         578.474 
       0.171974         600.927         561.737 
       0.178125         584.272         549.389 
       0.184229         564.912         532.599 
        0.19034         526.828          506.56 
       0.196428         504.867         472.009 
       0.202534         476.152         433.288 
       0.208729         439.615         395.829 
       0.214876         409.204         365.107 
       0.220989         390.856         342.846 
       0.227147          372.41         328.049 
        0.23329         359.499         318.298 
       0.239377         352.607         310.238 
       0.245482         330.961         300.884 
       0.251667         325.698         288.539 
       0.257832         311.937          273.41 
       0.263955         297.112         256.982 
       0.270079          282.06         241.031 
        0.27624         274.524         227.015 
       0.282372         263.609           215.9 
        0.28843         253.752         207.552 
       0.294538         242.683          201.04 
       0.300721         240.031         195.293 
        0.30691           229.3         189.379 
       0.313033         223.428         182.762 
       0.319153         213.781         175.316 
       0.325316         208.175         167.344 
        0.33145          199.74         159.525 
       0.337538          195.64         152.395 
       0.343633         188.306          146.23 
       0.349808         181.979         140.974 
       0.355968         178.815          136.55 
       0.362074         174.138         132.599 
       0.368217         169.083         128.732 
       0.374374         163.134         124.732 
       0.380519         160.305         120.516 
       0.386598         155.773         116.234 
       0.392688         152.894         111.975 
        0.39888         148.709          107.86 
       0.405048         144.581         104.128 
       0.411186         141.323         100.791 
       0.417313             138         97.8002 
       0.423458         134.824         95.0491 
       0.429607          131.72         92.4135 
       0.435692         127.334         89.8282 
       0.441815         126.126         87.2243 
       0.447964         123.654         84.5978 
       0.454126         118.212         81.9922 
       0.460267         116.791         79.4893 
       0.466387         114.965         77.1397 
        0.47254         112.224         74.9298 
       0.478662         111.289          72.878 
       0.484765         107.647          70.964 
       0.490885          105.81         69.1362 
       0.497035         104.398         67.3504 
       0.503198         101.396         65.5862 
       0.509342         99.5721         63.8575 
       0.515458          97.977         62.1756 
       0.521598         96.2467         60.5347 
       0.527764         94.8767         58.9458 
       0.533884         93.4244         57.4376 
           0.54         91.4362         56.0075 
       0.546137         90.5067         54.6437 
       0.552299         88.9188         53.3309 
       0.558452         87.0557         52.0621 
       0.564573         85.5297         50.8303 
       0.570708         84.0437         49.6257 
       0.576825         82.9856         48.4573 
       0.582926          81.148         47.3262 
       0.589034         79.8494         46.2294 
       0.595184         78.7366         45.1614 
       0.601379         77.5451         44.1224 
       0.607522         75.8582         43.1284 
       0.613639          75.476         42.1739 
       0.619772          73.856         41.2499 
       0.625918         72.8545         40.3535 
       0.632068         72.0316         39.4829 
       0.638161         71.1413         38.6437 
         0.6443         70.1616         37.8194 
       0.650464         69.3207         37.0138 
       0.656582         68.1653         36.2363 
       0.662703         66.9778         35.4811 
       0.668861         66.0568         34.7444 
       0.675024         65.3211         34.0304 
       0.681124         64.5154         33.3455 
       0.687237         63.2588         32.6793 
       0.693381          62.526          32.029 
       0.699536         61.7988         31.3952 
       0.705665         61.8135         30.7809 
       0.711789          60.257         30.1827 
       0.717957         59.7567         29.5958 
        0.72409         58.8372         29.0273 
       0.730186         57.9059         28.4771 
       0.736317         57.7107         27.9382 
       0.742472         57.0021         27.4115 
       0.748622         56.2589         26.8993 
        0.75476         55.6732         26.4017 
       0.760888         54.8549         25.9177 
       0.767043         54.3119         25.4442 
       0.773185         53.6421         24.9838 
       0.779291         53.1514         24.5375 
       0.785407         52.6844         24.1016 
       0.791564         52.1474         23.6735 
       0.797719         51.1508          23.256 
       0.803834         50.9409         22.8513 
       0.809972         50.0321         22.4549 
       0.816124          49.662          22.067 
       0.822261         49.2634         21.6894 
       0.828378         48.9283         21.3218 
       0.834502          48.322         20.9624 
       0.840667         47.7997         20.6091 
       0.846816         47.1117          20.265 
       0.852925         46.7654          19.931 
       0.859047         46.1364         19.6039 
       0.865192         45.8198         19.2832 
       0.871341         45.5655         18.9694 
       0.877463         44.7297         18.6641 
       0.883569         44.4428         18.3664 
       0.889708         44.1232         18.0737 
       0.895864         43.7286         17.7866 
       0.902008         43.2967         17.5065 
       0.908149         42.9411         17.2326 
       0.914301         42.5776         16.9641 
       0.920448         42.2081         16.7017 
       0.926574         41.7012         16.4457 
       0.932687         41.5153         16.1957 
       0.938823         40.8791         15.9501 
       0.944975         40.6293          15.709 
       0.951105         40.2406         15.4738 
       0.957225         39.7599         15.2438 
       0.963368         39.7346         15.0178 
       0.969511         39.3477         14.7963 
       0.975621          39.087         14.5806 
       0.981748         38.5862         14.3686 
       0.987916         38.2741         14.1595 
        0.99406         38.0522         13.9554 
        1.00019         37.6516         13.7557 
        1.00632         37.4196         13.5602 
        1.01246         37.1937         13.3682 
        1.01859         36.6462         13.1802 
        1.02471         36.5819         12.9961 
        1.03085         36.2572         12.8149 
        1.03698         35.8685         12.6375 
        1.04314         35.6197         12.4628 
        1.04929         35.3369         12.2918 
        1.05541         34.9658         12.1247 
        1.06154         34.9447         11.9604 
        1.06769         34.5749         11.7988 
        1.07382         34.3841         11.6408 
        1.07993         34.1599         11.4861 
        1.08607         33.8472         11.3335 
        1.09222         33.6448         11.1836 
        1.09836         33.3623         11.0366 
        1.10449         33.1309         10.8924 
        1.11063         32.7547         10.7507 
        1.11677         32.5834         10.6115 
         1.1229         32.3715         10.4751 
        1.12903         31.9638         10.3409 
        1.13518         32.0701         10.2091 
        1.14131         31.8096         10.0796 
        1.14745         31.3787         9.95238 
        1.15359         31.3576         9.82739 
        1.15973         30.9693         9.70451 
        1.16584         30.8111         9.58428 
        1.17197         30.6494         9.46593 
        1.17811         30.4578         9.34922 
        1.18424         30.1708         9.23483 
        1.19038         30.0164         9.12203 
        1.19652         29.9539         9.01116 
        1.20267         29.6867         8.90214 
        1.20881         29.4732         8.79495 
        1.21495         29.2397         8.68971 
        1.22108         29.0964         8.58621 
         1.2272         28.7849         8.48465 
        1.23334         28.6862          8.3845 
        1.23949          28.645         8.28574 
        1.24562         28.2929         8.18885 
        1.25174          28.226         8.09367 
        1.25789         28.0401         7.99971 
        1.26402         27.7995         7.90742 
        1.27014         27.5618         7.81681 
        1.27628         27.4349         7.72736 
        1.28244         27.3112         7.63914 
        1.28858         27.1762         7.55243 
        1.29471         27.0411         7.46726 
        1.30084         26.8862         7.38348 
        1.30697         26.6978         7.30087 
        1.31312         26.4828         7.21942 
        1.31925         26.3563         7.13946 
        1.32537         26.2154         7.06081 
        1.33151         26.0246         6.98306 
        1.33765         25.9569         6.90654 
        1.34378          25.765         6.83131 
        1.34992         25.5757         6.75716 
        1.35606         25.4488         6.68396 
         1.3622          25.334         6.61197 
        1.36833         25.1216         6.54123 
        1.37445         25.0921         6.47155 
        1.38059         24.8939         6.40268 
        1.38675          24.645         6.33466 
        1.39288          24.658         6.26789 
        1.39901         24.4494         6.20213 
        1.40515         24.3287         6.13716 
         1.4113         24.2062         6.07315 
        1.41742         24.0274          6.0103 
        1.42355         23.9511         5.94823 
         1.4297         23.8245         5.88685 
        1.43585         23.7547         5.82636 
        1.44198          23.511         5.76695 
        1.44809         23.4375         5.70849 
        1.45423          23.308         5.65063 
        1.46036         23.2563         5.59367 
        1.46649         23.0801         5.53748 
        1.47263         22.9395         5.48202 
        1.47877         22.8799         5.42734 
        1.48491         22.8347         5.37333 
        1.49104         22.6263         5.32016 
        1.49718         22.4399         5.26768 
        1.50333         22.4216         5.21582 
        1.50947         22.3139         5.16477 
         1.5156         22.1907         5.11449 
        1.52172         22.0666         5.06487 
        1.52787         21.9915         5.01582 
          1.534         21.8571         4.96747 
        1.54013         21.6974         4.91982 
        1.54627          21.642          4.8727 
        1.55241          21.453          4.8262 
        1.55855         21.4022         4.78037 
        1.56467         21.2378         4.73527 
         1.5708         21.2583         4.69062 
        1.57695          21.048         4.64648 
        1.58308         20.9895         4.60302 
        1.58922         20.9096         4.56008 
        1.59535         20.7854          4.5177 
         1.6015         20.6641         4.47581 
        1.60764         20.5948         4.43447 
        1.61376         20.4213         4.39377 
        1.61989         20.3488         4.35355 
        1.62604         20.3191         4.31374 
        1.63218         20.2161         4.27446 
        1.63831          20.102         4.23576 
        1.64444         20.0127         4.19752 
        1.65059         19.9013         4.15967 
        1.65673         19.7728         4.12233 
        1.66285         19.7639         4.08555 
        1.66898         19.6497         4.04921 
        1.67512         19.5678         4.01324 
        1.68127         19.4466         3.97767 
         1.6874         19.3585         3.94262 
        1.69353         19.2888         3.90801 
        1.69967         19.1797         3.87373 
        1.70581         19.0827         3.83988 
        1.71193         19.0408         3.80657 
        1.71806         18.9077         3.77357 
        1.72421         18.8297         3.74091 
        1.73035         18.7135         3.70867 
        1.73649          18.705         3.67682 
        1.74262          18.597         3.64537 
        1.74876         18.5621         3.61426 
        1.75489         18.4406         3.58359 
        1.76101         18.3424         3.55328 
        1.76715          18.273         3.52328 
        1.77329         18.2352         3.49359 
        1.77943         18.1251         3.46423 
        1.78557         18.0315         3.43525 
        1.79171         17.9539          3.4066 
        1.79785         17.8608         3.37827 
        1.80399         17.8184         3.35027 
        1.81012         17.7543         3.32262 
        1.81625         17.6843          3.2953 
        1.82239         17.6137         3.26825 
        1.82853         17.4952         3.24151 
        1.83466         17.4383          3.2151 
        1.84078         17.3227         3.18902 
        1.84692         17.2892         3.16318 
        1.85306         17.2119         3.13759 
         1.8592         17.1227         3.11233 
        1.86533         17.0585         3.08737 
        1.87147         16.9908         3.06265 
        1.87761         16.9529         3.03818 
        1.88375         16.8941         3.01402 
        1.88988          16.795         2.99014 
        1.89601         16.7078         2.96652 
        1.90215         16.6671         2.94312 
        1.90829         16.6128            2.92 
        1.91442         16.5243         2.89712 
        1.92056         16.4569          2.8745 
         1.9267         16.3768         2.85211 
        1.93284         16.2939         2.82994 
        1.93897         16.2661         2.80804 
        1.94509         16.1841         2.78643 
        1.95123         16.1413         2.76499 
        1.95737         16.0585         2.74376 
        1.96349         15.9909         2.72281 
        1.96964         15.9303         2.70202 
        1.97578         15.8577         2.68143 
        1.98192         15.7916          2.6611 
        1.98805         15.7471         2.64098 
        1.99419         15.6854         2.62107 
        2.00033         15.5623         2.60136 
        2.00647         15.5287         2.58185 
         2.0126         15.4834         2.56257 
        2.01874         15.4084         2.54347 
        2.02488         15.3821         2.52454 
        2.03101         15.3051         2.50584 
        2.03714         15.2549         2.48735 
        2.04328         15.1706         2.46902 
        2.04941         15.1125         2.45089 
        2.05554         15.0778         2.43296 
        2.06167         15.0228         2.41518 
        2.06781         14.9594         2.39758 
        2.07396         14.9156         2.38013 
        2.08009         14.8759         2.36289 
        2.08622         14.7421         2.34583 
        2.09237         14.7314         2.32891 
        2.09851         14.6808         2.31215 
        2.10464         14.6055         2.29559 
        2.11077         14.5508         2.27921 
        2.11691          14.501         2.26295 
        2.12305         14.4749         2.24685 
        2.12918         14.3959         2.23095 
        2.13531         14.3295          2.2152 
        2.14145         14.2997         2.19956 
         2.1476         14.2474         2.18406 
        2.15372          14.173         2.16879 
        2.15985         14.0962         2.15364 
        2.16599         14.0826          2.1386 
        2.17213          14.022         2.12372 
        2.17827         13.9523         2.10898 
         2.1844         13.8822          2.0944 
        2.19054         13.8721         2.07995 
        2.19666          13.836         2.06566 
         2.2028         13.7695         2.05148 
        2.20893         13.7175         2.03744 
        2.21508          13.639         2.02351 
        2.22122         13.5661         2.00971 
        2.22736         13.5668         1.99606 
        2.23349         13.5001         1.98255 
        2.23962         13.4506         1.96915 
        2.24577         13.3918         1.95586 
         2.2519         13.3606         1.94272 
        2.25802         13.3098         1.92972 
        2.26417         13.2864          1.9168 
        2.27031         13.1968         1.90398 
        2.27644         13.1782         1.89133 
        2.28257         13.1096         1.87878 
        2.28872         13.0586         1.86633 
        2.29486         13.0188         1.85399 
        2.30099         12.9698          1.8418 
        2.30712         12.9412          1.8297 
        2.31326         12.8791         1.81769 
         2.3194         12.8588          1.8058 
        2.32553         12.7964         1.79404 
        2.33166          12.736         1.78238 
         2.3378         12.6936         1.77081 
        2.34394         12.6638         1.75934 
        2.35007         12.6023         1.74799 
        2.35619         12.5353         1.73676 
        2.36233         12.5211         1.72559 
        2.36848         12.4868          1.7145 
        2.37462         12.4332         1.70354 
        2.38075         12.3763         1.69267 
        2.38689          12.364          1.6819 
        2.39303          12.297         1.67122 
        2.39916         12.2664         1.66064 
        2.40529         12.2183         1.65016 
        2.41143         12.1769         1.63976 
        2.41757         12.1375         1.62944 
         2.4237         12.0989         1.61924 
        2.42983         12.0484         1.60912 
        2.43598         12.0208         1.59906 
        2.44211         11.9683          1.5891 
        2.44823         11.9194         1.57925 
        2.45437         11.8928         1.56946 
        2.46052         11.8387         1.55974 
        2.46665         11.8137         1.55012 
        2.47279         11.7462         1.54059 
        2.47892         11.7227         1.53113 
        2.48507         11.6822         1.52174 
         2.4912         11.6579         1.51244 
