# k  (h/Mpc)    Pcb(k)  (Mpc/h)^3    Pcb_linear(k)  (Mpc/h)^3
     0.00783031          2862.1         2894.91 
       0.013688         3333.98         3333.05 
       0.019231         3125.06         3120.97 
      0.0249154         2617.73         2634.54 
      0.0312784         2059.32         2057.14 
      0.0375637         1621.67          1611.6 
      0.0433917         1343.41         1342.93 
      0.0492413         1191.27         1187.56 
      0.0555754         1089.86         1096.89 
      0.0619321         1037.83         1031.55 
       0.067871          952.24         957.215 
      0.0738098         853.354         857.411 
      0.0800417         729.951          734.71 
      0.0862327         616.889         616.023 
      0.0921407         527.732         523.402 
      0.0982031         459.474         457.356 
       0.104506          425.08         417.897 
       0.110769         404.211         399.079 
       0.116806         390.392         388.753 
       0.122832          378.75         375.848 
       0.129052         353.262         353.444 
       0.135211         322.632         321.907 
       0.141259         290.644         286.526 
       0.147318         259.023         252.905 
       0.153489         230.696         225.429 
       0.159709         212.644         206.639 
       0.165845         203.293         195.953 
       0.171974         195.016         190.285 
       0.178125         190.757         186.103 
       0.184229         184.969         180.415 
        0.19034         173.657         171.595 
       0.196428         164.232         159.892 
       0.202534         153.272         146.775 
       0.208729          140.16         134.086 
       0.214876         129.329         123.679 
       0.220989         122.878         116.138 
       0.227147         116.672         111.126 
        0.23329         112.976         107.823 
       0.239377         110.556         105.093 
       0.245482         105.445         101.925 
       0.251667         102.673         97.7425 
       0.257832         97.7479         92.6175 
       0.263955         92.4137         87.0531 
       0.270079         87.2247         81.6498 
        0.27624         83.5823         76.9026 
       0.282372         79.9503         73.1365 
        0.28843         76.4986         70.3081 
       0.294538         73.7968         68.1027 
       0.300721         72.4158         66.1561 
        0.30691         69.5265         64.1526 
       0.313033         67.2912          61.911 
       0.319153         63.9495          59.389 
       0.325316         62.4049         56.6886 
        0.33145         59.4899         54.0397 
       0.337538         57.5125         51.6247 
       0.343633         55.1388         49.5362 
       0.349808         53.4663         47.7558 
       0.355968         52.0185         46.2568 
       0.362074         50.4305         44.9185 
       0.368217          48.936         43.6085 
       0.374374         47.4256         42.2535 
       0.380519         46.1788         40.8253 
       0.386598         44.7699         39.3745 
       0.392688         43.6222         37.9321 
        0.39888         42.1247         36.5381 
       0.405048         40.9295          35.274 
       0.411186         39.8552         34.1437 
       0.417313         38.5932         33.1302 
       0.423458         37.5872         32.1984 
       0.429607         36.6104         31.3055 
       0.435692         35.4277         30.4298 
       0.441815         34.7655         29.5475 
       0.447964         34.0885         28.6581 
       0.454126         32.6567         27.7753 
       0.460267         32.0686         26.9276 
       0.466387         31.0868         26.1315 
        0.47254         30.5078         25.3829 
       0.478662          29.978         24.6878 
       0.484765         29.0093         24.0395 
       0.490885         28.3573         23.4204 
       0.497035         27.9916         22.8152 
       0.503198         27.1864         22.2178 
       0.509342         26.4754         21.6321 
       0.515458         25.8872         21.0623 
       0.521598         25.4031         20.5065 
       0.527764         24.8183         19.9682 
       0.533884          24.406         19.4573 
           0.54          23.802          18.973 
       0.546137         23.4231         18.5109 
       0.552299         23.0109         18.0662 
       0.558452         22.2964         17.6363 
       0.564573         21.9364         17.2191 
       0.570708         21.5452         16.8111 
       0.576825         21.0285         16.4152 
       0.582926         20.5788         16.0321 
       0.589034         20.0575         15.6605 
       0.595184         19.7872         15.2987 
       0.601379         19.3622         14.9468 
       0.607522         19.0077           14.61 
       0.613639         18.7907         14.2867 
       0.619772         18.2906         13.9737 
       0.625918         18.1665           13.67 
       0.632068         17.8727         13.3751 
       0.638161         17.4584         13.0908 
         0.6443         17.1066         12.8116 
       0.650464         16.7779         12.5387 
       0.656582         16.6609         12.2753 
       0.662703         16.3332         12.0195 
       0.668861         16.0095         11.7699 
       0.675024         15.7154          11.528 
       0.681124         15.4417          11.296 
       0.687237         15.1785         11.0704 
       0.693381         15.0186           10.85 
       0.699536         14.6152         10.6353 
       0.705665          14.539         10.4272 
       0.711789         14.2179         10.2246 
       0.717957         13.9962         10.0258 
        0.72409         13.7848         9.83322 
       0.730186         13.5881         9.64682 
       0.736317         13.4304         9.46427 
       0.742472         13.1959         9.28585 
       0.748622         13.0379         9.11233 
        0.75476         12.7931         8.94376 
       0.760888         12.5919         8.77981 
       0.767043         12.4265         8.61942 
       0.773185         12.2039         8.46344 
       0.779291         12.1219         8.31226 
       0.785407         11.9692         8.16458 
       0.791564         11.7588         8.01956 
       0.797719         11.4831         7.87815 
       0.803834         11.4615         7.74106 
       0.809972         11.3425         7.60675 
       0.816124         11.0915         7.47535 
       0.822261         10.9423         7.34743 
       0.828378         10.8247          7.2229 
       0.834502         10.7284         7.10118 
       0.840667         10.5491          6.9815 
       0.846816         10.3538         6.86494 
       0.852925         10.2536         6.75179 
       0.859047         10.1315         6.64098 
       0.865192         10.0376         6.53231 
       0.871341         9.93537         6.42603 
       0.877463         9.76699         6.32261 
       0.883569         9.62897         6.22175 
       0.889708         9.46804         6.12259 
       0.895864         9.37102         6.02535 
       0.902008         9.30197         5.93045 
       0.908149         9.19845         5.83766 
       0.914301         9.11319         5.74672 
       0.920448         8.95373         5.65781 
       0.926574         8.85329         5.57112 
       0.932687         8.74644         5.48643 
       0.938823         8.63557         5.40322 
       0.944975         8.53127         5.32155 
       0.951105         8.44001         5.24187 
       0.957225         8.37809         5.16396 
       0.963368         8.29172         5.08739 
       0.969511         8.19649         5.01237 
       0.975621         8.10781         4.93928 
       0.981748         7.99737         4.86747 
       0.987916         7.94547         4.79664 
        0.99406          7.8189          4.7275 
        1.00019          7.7058         4.65986 
        1.00632         7.67972         4.59361 
        1.01246          7.5951         4.52857 
        1.01859         7.46846         4.46489 
        1.02471          7.4308         4.40252 
        1.03085         7.34523         4.34114 
        1.03698         7.23513         4.28106 
        1.04314         7.18862         4.22187 
        1.04929         7.10005         4.16395 
        1.05541         7.01443         4.10735 
        1.06154         6.96456         4.05167 
        1.06769         6.93163         3.99694 
        1.07382         6.82273         3.94342 
        1.07993         6.75517           3.891 
        1.08607         6.70306         3.83932 
        1.09222         6.64155         3.78854 
        1.09836         6.55803         3.73874 
        1.10449         6.50706          3.6899 
        1.11063         6.42745         3.64188 
        1.11677         6.39423         3.59474 
         1.1229         6.34846         3.54852 
        1.12903         6.26018         3.50308 
        1.13518         6.18398          3.4584 
        1.14131         6.14537         3.41453 
        1.14745         6.07978         3.37145 
        1.15359         6.03908         3.32911 
        1.15973         5.97146         3.28748 
        1.16584         5.89332         3.24675 
        1.17197         5.85203         3.20666 
        1.17811         5.82469         3.16712 
        1.18424         5.76276         3.12837 
        1.19038         5.73613         3.09016 
        1.19652          5.6655          3.0526 
        1.20267         5.61058         3.01567 
        1.20881         5.58942         2.97936 
        1.21495         5.53528         2.94371 
        1.22108         5.46752         2.90865 
         1.2272         5.42824         2.87424 
        1.23334         5.37181         2.84032 
        1.23949         5.32066         2.80686 
        1.24562         5.29395         2.77404 
        1.25174         5.24867          2.7418 
        1.25789         5.20537         2.70997 
        1.26402         5.17685          2.6787 
        1.27014         5.12752         2.64801 
        1.27628         5.06998         2.61771 
        1.28244         5.01849         2.58782 
        1.28858         5.01484         2.55845 
        1.29471         4.95084         2.52959 
        1.30084          4.9008         2.50121 
        1.30697         4.89505         2.47323 
        1.31312         4.81722         2.44564 
        1.31925         4.77919         2.41855 
        1.32537         4.74918         2.39191 
        1.33151         4.73128         2.36557 
        1.33765          4.6759         2.33965 
        1.34378         4.64638         2.31416 
        1.34992         4.61052         2.28904 
        1.35606         4.56829         2.26425 
         1.3622         4.54573         2.23986 
        1.36833         4.49723         2.21589 
        1.37445         4.46887         2.19229 
        1.38059         4.45424         2.16896 
        1.38675          4.4137         2.14592 
        1.39288         4.39123          2.1233 
        1.39901         4.33395         2.10102 
        1.40515         4.31312         2.07901 
         1.4113         4.28131         2.05733 
        1.41742         4.24756         2.03604 
        1.42355         4.20941         2.01501 
         1.4297         4.19172         1.99422 
        1.43585         4.16611         1.97373 
        1.44198         4.14403          1.9536 
        1.44809         4.10507          1.9338 
        1.45423         4.07266          1.9142 
        1.46036         4.03757          1.8949 
        1.46649          4.0195         1.87587 
        1.47263         3.98075         1.85708 
        1.47877         3.95429         1.83856 
        1.48491          3.9315         1.82026 
        1.49104         3.90542         1.80225 
        1.49718         3.87998         1.78447 
        1.50333         3.85754          1.7669 
        1.50947         3.82007         1.74961 
         1.5156         3.80117         1.73257 
        1.52172         3.78006         1.71577 
        1.52787         3.75317         1.69915 
          1.534         3.72081         1.68277 
        1.54013         3.70282         1.66663 
        1.54627         3.67251         1.65067 
        1.55241         3.64628         1.63492 
        1.55855         3.63135         1.61939 
        1.56467         3.60497         1.60411 
         1.5708         3.58604         1.58899 
        1.57695         3.55682         1.57404 
        1.58308         3.52406         1.55931 
        1.58922          3.5184         1.54476 
        1.59535         3.49903         1.53041 
         1.6015         3.46401         1.51622 
        1.60764         3.44094         1.50222 
        1.61376         3.42712         1.48843 
        1.61989         3.40328          1.4748 
        1.62604         3.38207         1.46132 
        1.63218         3.37367         1.44801 
        1.63831         3.33972          1.4349 
        1.64444         3.32679         1.42195 
        1.65059          3.2896         1.40912 
        1.65673         3.29101         1.39647 
        1.66285         3.25698         1.38401 
        1.66898         3.23926          1.3717 
        1.67512         3.22185         1.35952 
        1.68127         3.20101         1.34747 
         1.6874         3.18702          1.3356 
        1.69353         3.15631         1.32387 
        1.69967         3.15031         1.31226 
        1.70581         3.13211         1.30079 
        1.71193         3.10696         1.28951 
        1.71806         3.09355         1.27833 
        1.72421          3.0743         1.26727 
        1.73035         3.05982         1.25634 
        1.73649         3.04087         1.24555 
        1.74262         3.01982          1.2349 
        1.74876         3.00968         1.22436 
        1.75489         2.98963         1.21397 
        1.76101         2.96778          1.2037 
        1.76715         2.95829         1.19354 
        1.77329         2.94032         1.18348 
        1.77943         2.91482         1.17354 
        1.78557         2.90343         1.16372 
        1.79171         2.89021         1.15401 
        1.79785         2.87287         1.14442 
        1.80399         2.85743         1.13493 
        1.81012         2.83846         1.12557 
        1.81625         2.82833         1.11631 
        1.82239         2.81317         1.10715 
        1.82853         2.79103         1.09809 
        1.83466         2.77936         1.08915 
        1.84078         2.77053         1.08031 
        1.84692         2.75807         1.07155 
        1.85306         2.73602         1.06289 
         1.8592           2.718         1.05433 
        1.86533          2.7052         1.04587 
        1.87147         2.69332          1.0375 
        1.87761         2.67815         1.02921 
        1.88375         2.66215         1.02103 
        1.88988         2.65244         1.01294 
        1.89601         2.63448         1.00493 
        1.90215         2.61939         0.99701 
        1.90829         2.60512        0.989175 
        1.91442         2.59489        0.981424 
        1.92056          2.5822        0.973763 
         1.9267           2.565        0.966177 
        1.93284         2.55567        0.958667 
        1.93897         2.54155         0.95125 
        1.94509         2.53268        0.943929 
        1.95123         2.51748        0.936666 
        1.95737         2.49803        0.929474 
        1.96349         2.49361        0.922377 
        1.96964          2.4831        0.915333 
        1.97578         2.46207         0.90836 
        1.98192         2.45594        0.901473 
        1.98805         2.44234        0.894657 
        1.99419         2.42918        0.887912 
        2.00033         2.42178        0.881233 
        2.00647         2.40722        0.874624 
         2.0126         2.40093        0.868095 
        2.01874         2.38087        0.861623 
        2.02488         2.37248         0.85521 
        2.03101         2.35824        0.848876 
        2.03714         2.34605        0.842611 
        2.04328         2.33504        0.836403 
        2.04941         2.32118        0.830262 
        2.05554         2.31327        0.824188 
        2.06167         2.30245        0.818166 
        2.06781         2.29427        0.812203 
        2.07396         2.28545        0.806292 
        2.08009         2.27363         0.80045 
        2.08622         2.26123        0.794672 
        2.09237         2.24508         0.78894 
        2.09851         2.24357        0.783264 
        2.10464         2.23379        0.777653 
        2.11077         2.21684        0.772103 
        2.11691         2.20708        0.766596 
        2.12305         2.20087        0.761142 
        2.12918          2.1932        0.755755 
        2.13531         2.18122        0.750419 
        2.14145         2.17136        0.745123 
         2.1476         2.15815        0.739871 
        2.15372         2.14678        0.734697 
        2.15985         2.14621        0.729567 
        2.16599         2.12816        0.724471 
        2.17213         2.11806         0.71943 
        2.17827         2.11404        0.714438 
         2.1844         2.10387        0.709497 
        2.19054         2.09257        0.704602 
        2.19666         2.08249         0.69976 
         2.2028         2.07306         0.69496 
        2.20893          2.0647        0.690202 
        2.21508         2.05579        0.685483 
        2.22122         2.04482        0.680807 
        2.22736         2.03764        0.676185 
        2.23349         2.03012        0.671606 
        2.23962         2.01867        0.667068 
        2.24577         2.01406        0.662567 
         2.2519         2.00794        0.658114 
        2.25802         1.99722         0.65371 
        2.26417         1.99038        0.649333 
        2.27031         1.97919        0.644993 
        2.27644         1.96874        0.640705 
        2.28257         1.95561        0.636456 
        2.28872          1.9568        0.632238 
        2.29486         1.94432        0.628059 
        2.30099         1.93444        0.623926 
        2.30712         1.92711        0.619828 
        2.31326         1.91787        0.615761 
         2.3194         1.91211        0.611733 
        2.32553          1.9076        0.607747 
        2.33166         1.89842        0.603798 
         2.3378         1.88875         0.59988 
        2.34394         1.88053        0.595995 
        2.35007          1.8731         0.59215 
        2.35619         1.86663        0.588343 
        2.36233         1.85818        0.584561 
        2.36848         1.84942        0.580805 
        2.37462         1.84603        0.577089 
        2.38075         1.83526         0.57341 
        2.38689         1.83245         0.56976 
        2.39303          1.8208        0.566142 
        2.39916         1.81488        0.562559 
        2.40529         1.80743        0.559008 
        2.41143          1.7993        0.555485 
        2.41757         1.79441         0.55199 
         2.4237         1.78798        0.548532 
        2.42983         1.77716        0.545104 
        2.43598         1.77061        0.541697 
        2.44211          1.7628        0.538324 
        2.44823          1.7578        0.534987 
        2.45437         1.75017        0.531669 
        2.46052          1.7462        0.528377 
        2.46665         1.73846        0.525119 
        2.47279         1.72944        0.521889 
        2.47892         1.72366        0.518685 
        2.48507         1.71912        0.515504 
         2.4912         1.70688        0.512356 
