# k  (h/Mpc)    P(k)  (Mpc/h)^3    P_linear(k)  (Mpc/h)^3
     0.00783031         618.037         624.574 
       0.013688         785.782         787.982 
       0.019231         818.394         819.039 
      0.0249154         776.661         780.634 
      0.0312784         698.005         698.918 
      0.0375637         611.784         610.799 
      0.0433917         538.212         538.908 
      0.0492413          482.49         481.933 
      0.0555754         435.265         436.583 
      0.0619321           404.9         403.258 
       0.067871          376.76         377.651 
      0.0738098         351.922         352.985 
      0.0800417          323.69          325.46 
      0.0862327         295.422         296.134 
      0.0921407         267.566         267.736 
      0.0982031         239.759         240.342 
       0.104506         216.718         215.754 
       0.110769          197.17         196.309 
       0.116806         182.136         182.185 
       0.122832         172.283         171.686 
       0.129052         162.978         163.193 
       0.135211         155.312         155.641 
       0.141259         148.142         147.945 
       0.147318         140.079         139.422 
       0.153489         130.234          129.97 
       0.159709         120.647         120.192 
       0.165845         112.319         111.007 
       0.171974         103.504         102.894 
       0.178125         96.9984         96.1465 
       0.184229         91.9339         90.8416 
        0.19034         87.0315         86.6702 
       0.196428         84.0884          83.247 
       0.202534         81.4376         80.1166 
       0.208729         77.8271         76.8918 
       0.214876         74.0353         73.4473 
       0.220989         70.9923         69.7675 
       0.227147         66.5907           65.94 
        0.23329         62.9539         62.2081 
       0.239377          59.778         58.7913 
       0.245482         56.4597         55.7749 
       0.251667         54.3712          53.181 
       0.257832         52.1078         51.0089 
       0.263955         50.2742         49.1516 
       0.270079         48.5778         47.4623 
        0.27624         47.2241         45.8121 
       0.282372         45.5026         44.1406 
        0.28843         43.5929         42.4344 
       0.294538         41.8566         40.6781 
       0.300721         40.3807         38.9181 
        0.30691          38.452         37.2336 
       0.313033         36.9896         35.6948 
       0.319153         35.2518         34.3073 
       0.325316         34.4949          33.063 
        0.33145         33.2796         31.9509 
       0.337538         32.2842         30.9373 
       0.343633          31.212         29.9733 
       0.349808         30.3447         29.0189 
       0.355968         29.3976         28.0703 
       0.362074         28.4183         27.1321 
       0.368217         27.5273         26.1995 
       0.374374         26.5208         25.2911 
       0.380519         25.7703          24.428 
       0.386598         25.0196         23.6267 
       0.392688          24.356         22.8813 
        0.39888         23.6011         22.1786 
       0.405048         22.9926         21.5245 
       0.411186         22.4052         20.9084 
       0.417313         21.6823         20.3167 
       0.423458         21.1458         19.7381 
       0.429607         20.5199         19.1713 
       0.435692         19.9346         18.6212 
       0.441815         19.4509         18.0816 
       0.447964         19.0502         17.5585 
       0.454126           18.38         17.0564 
       0.460267         17.9511           16.58 
       0.466387         17.4094         16.1301 
        0.47254         17.0736         15.7006 
       0.478662         16.7098         15.2926 
       0.484765         16.2356         14.9021 
       0.490885         15.8431         14.5239 
       0.497035         15.6121         14.1546 
       0.503198         15.1871         13.7941 
       0.509342          14.822         13.4448 
       0.515458         14.4591         13.1075 
       0.521598           14.16         12.7798 
       0.527764         13.8054         12.4626 
       0.533884          13.558           12.16 
           0.54         13.2468         11.8697 
       0.546137         12.9874         11.5894 
       0.552299         12.7294         11.3179 
       0.558452         12.3583          11.056 
       0.564573         12.1756         10.8036 
       0.570708         11.9276          10.558 
       0.576825          11.623         10.3199 
       0.582926         11.4258          10.089 
       0.589034         11.1032         9.86463 
       0.595184         10.9244         9.64562 
       0.601379         10.6902         9.43212 
       0.607522         10.5301          9.2272 
       0.613639         10.3814          9.0296 
       0.619772         10.1015         8.83768 
       0.625918         9.98275         8.65129 
       0.632068         9.81896         8.47035 
       0.638161         9.58553         8.29623 
         0.6443         9.38986         8.12563 
       0.650464         9.19536         7.95897 
       0.656582         9.09892           7.798 
       0.662703         8.92986         7.64137 
       0.668861         8.77729         7.48817 
       0.675024         8.59321         7.33918 
       0.681124         8.43588         7.19591 
       0.687237         8.31424         7.05631 
       0.693381         8.18672         6.91984 
       0.699536         7.96637         6.78681 
       0.705665         7.86658         6.65787 
       0.711789         7.74143         6.53241 
       0.717957         7.60467         6.40933 
        0.72409           7.477         6.29012 
       0.730186         7.36425         6.17468 
       0.736317         7.28864         6.06151 
       0.742472         7.16829         5.95079 
       0.748622         7.03702         5.84294 
        0.75476         6.89076         5.73802 
       0.760888          6.8034         5.63587 
       0.767043         6.72273         5.53582 
       0.773185         6.58307         5.43844 
       0.779291           6.516         5.34399 
       0.785407         6.40808         5.25168 
       0.791564         6.31052           5.161 
       0.797719         6.21519         5.07252 
       0.803834          6.1478          4.9867 
       0.809972         6.06943         4.90258 
       0.816124         5.94963         4.82022 
       0.822261         5.85169         4.73999 
       0.828378         5.78175         4.66184 
       0.834502         5.72647          4.5854 
       0.840667         5.60972          4.5102 
       0.846816         5.52388          4.4369 
       0.852925         5.47555         4.36571 
       0.859047         5.39922         4.29594 
       0.865192         5.33724         4.22748 
       0.871341         5.27114         4.16047 
       0.877463         5.19897         4.09524 
       0.883569         5.10748         4.03157 
       0.889708         5.02903         3.96894 
       0.895864         4.97928          3.9075 
       0.902008         4.90602         3.84748 
       0.908149         4.85298         3.78878 
       0.914301         4.76727         3.73121 
       0.920448          4.7088         3.67489 
       0.926574         4.64422         3.61994 
       0.932687         4.59862         3.56624 
       0.938823         4.54545         3.51344 
       0.944975         4.48343          3.4616 
       0.951105         4.43602           3.411 
       0.957225         4.40691         3.36149 
       0.963368         4.34157         3.31281 
       0.969511         4.28206          3.2651 
       0.975621         4.21913         3.21859 
       0.981748         4.18049         3.17287 
       0.987916         4.13062         3.12776 
        0.99406          4.0631          3.0837 
        1.00019         4.02113         3.04058 
        1.00632         3.98214         2.99833 
        1.01246         3.93766         2.95683 
        1.01859           3.891         2.91618 
        1.02471         3.84283         2.87635 
        1.03085         3.80301         2.83714 
        1.03698         3.75166         2.79874 
        1.04314         3.71909          2.7609 
        1.04929         3.66946         2.72385 
        1.05541         3.63029         2.68763 
        1.06154         3.59336         2.65199 
        1.06769         3.56319         2.61695 
        1.07382         3.51345         2.58265 
        1.07993         3.46609         2.54905 
        1.08607         3.44862         2.51592 
        1.09222         3.40464         2.48334 
        1.09836         3.37889         2.45138 
        1.10449         3.33867         2.42003 
        1.11063         3.29836         2.38919 
        1.11677          3.2656          2.3589 
         1.1229         3.23109         2.32919 
        1.12903          3.1933         2.29997 
        1.13518         3.16843         2.27123 
        1.14131         3.12356           2.243 
        1.14745         3.07828         2.21526 
        1.15359         3.06505         2.18799 
        1.15973         3.02205         2.16118 
        1.16584         3.00638         2.13493 
        1.17197         2.97279         2.10908 
        1.17811         2.94481         2.08358 
        1.18424         2.92464         2.05858 
        1.19038         2.89105         2.03392 
        1.19652         2.86162         2.00967 
        1.20267         2.83722         1.98582 
        1.20881         2.80306         1.96236 
        1.21495          2.7827         1.93932 
        1.22108         2.75609         1.91666 
         1.2272         2.73923         1.89441 
        1.23334         2.70276         1.87247 
        1.23949         2.67418         1.85082 
        1.24562         2.65936         1.82958 
        1.25174         2.62665         1.80871 
        1.25789          2.6065         1.78809 
        1.26402         2.57503         1.76784 
        1.27014          2.5516         1.74795 
        1.27628         2.54135         1.72831 
        1.28244         2.50615         1.70894 
        1.28858         2.48957         1.68989 
        1.29471         2.46455         1.67117 
        1.30084         2.44011         1.65276 
        1.30697         2.42772          1.6346 
        1.31312         2.38853         1.61668 
        1.31925         2.37957          1.5991 
        1.32537         2.35868         1.58179 
        1.33151         2.34123         1.56467 
        1.33765         2.31301         1.54783 
        1.34378         2.29149         1.53126 
        1.34992         2.28454         1.51492 
        1.35606         2.25234         1.49879 
         1.3622         2.24151         1.48293 
        1.36833         2.22074         1.46733 
        1.37445         2.19885         1.45196 
        1.38059          2.1837         1.43677 
        1.38675         2.17518         1.42176 
        1.39288          2.1467         1.40702 
        1.39901         2.12814          1.3925 
        1.40515         2.11304         1.37816 
         1.4113         2.09595         1.36402 
        1.41742         2.07971         1.35013 
        1.42355         2.07092         1.33642 
         1.4297         2.04333         1.32285 
        1.43585          2.0329         1.30947 
        1.44198         2.02164         1.29634 
        1.44809         1.99462         1.28341 
        1.45423          1.9811          1.2706 
        1.46036         1.96632           1.258 
        1.46649         1.94955         1.24556 
        1.47263         1.93355         1.23328 
        1.47877         1.91542         1.22117 
        1.48491         1.90187         1.20921 
        1.49104         1.89066         1.19743 
        1.49718         1.87892          1.1858 
        1.50333          1.8612         1.17431 
        1.50947          1.8506         1.16299 
         1.5156         1.83478         1.15184 
        1.52172         1.82046         1.14083 
        1.52787         1.80534         1.12995 
          1.534         1.79623         1.11923 
        1.54013         1.77789         1.10865 
        1.54627         1.76279         1.09819 
        1.55241         1.74993         1.08787 
        1.55855         1.74006         1.07769 
        1.56467         1.72877         1.06768 
         1.5708         1.70932         1.05776 
        1.57695         1.70331         1.04795 
        1.58308         1.69077         1.03829 
        1.58922         1.67882         1.02875 
        1.59535         1.66677         1.01933 
         1.6015         1.65506         1.01001 
        1.60764         1.64526         1.00082 
        1.61376         1.63194        0.991764 
        1.61989         1.62026        0.982815 
        1.62604         1.60719        0.973957 
        1.63218         1.60216        0.965214 
        1.63831         1.58392        0.956598 
        1.64444         1.57336        0.948085 
        1.65059          1.5663        0.939655 
        1.65673         1.55343        0.931337 
        1.66285         1.54153        0.923143 
        1.66898         1.53513        0.915045 
        1.67512         1.52002        0.907029 
        1.68127         1.51055        0.899101 
         1.6874         1.50412        0.891286 
        1.69353         1.48825        0.883568 
        1.69967         1.47901        0.875924 
        1.70581         1.47473        0.868374 
        1.71193         1.46147        0.860941 
        1.71806         1.45511        0.853579 
        1.72421         1.44365        0.846289 
        1.73035         1.43282        0.839093 
        1.73649         1.42527        0.831982 
        1.74262         1.41595        0.824959 
        1.74876         1.40692        0.818013 
        1.75489         1.39445        0.811161 
        1.76101         1.38645         0.80439 
        1.76715         1.37865        0.797687 
        1.77329         1.37039        0.791052 
        1.77943         1.35955         0.78449 
        1.78557         1.35068        0.778013 
        1.79171         1.34606        0.771607 
        1.79785         1.33527        0.765273 
        1.80399          1.3277        0.759011 
        1.81012         1.32171        0.752828 
        1.81625         1.30994        0.746716 
        1.82239         1.30292        0.740663 
        1.82853         1.28976        0.734681 
        1.83466         1.28591         0.72877 
        1.84078         1.27677        0.722931 
        1.84692         1.27185        0.717147 
        1.85306         1.26218        0.711419 
         1.8592         1.25646        0.705762 
        1.86533         1.24717         0.70017 
        1.87147         1.24086        0.694633 
        1.87761         1.23323        0.689153 
        1.88375         1.22181        0.683739 
        1.88988         1.21915        0.678389 
        1.89601         1.20951        0.673093 
        1.90215         1.20225         0.66785 
        1.90829         1.19433        0.662665 
        1.91442         1.18734        0.657535 
        1.92056         1.18187        0.652464 
         1.9267         1.17456        0.647441 
        1.93284         1.16991        0.642468 
        1.93897         1.16206        0.637556 
        1.94509         1.15415        0.632707 
        1.95123         1.14637        0.627895 
        1.95737         1.14085        0.623131 
        1.96349         1.13305        0.618428 
        1.96964           1.128         0.61376 
        1.97578         1.12117        0.609138 
        1.98192         1.11726        0.604573 
        1.98805         1.10745        0.600054 
        1.99419         1.10356        0.595582 
        2.00033         1.09981        0.591153 
        2.00647         1.08984         0.58677 
         2.0126         1.08575        0.582439 
        2.01874         1.07886        0.578145 
        2.02488         1.07372        0.573891 
        2.03101         1.06511        0.569687 
        2.03714         1.05794         0.56553 
        2.04328         1.05611        0.561409 
        2.04941         1.04846        0.557333 
        2.05554         1.04326        0.553301 
        2.06167         1.03659        0.549302 
        2.06781         1.03122        0.545343 
        2.07396         1.02434        0.541418 
        2.08009         1.02018        0.537537 
        2.08622         1.01328        0.533699 
        2.09237           1.012        0.529891 
        2.09851         1.00581         0.52612 
        2.10464         1.00087        0.522392 
        2.11077        0.993797        0.518704 
        2.11691        0.987549        0.515044 
        2.12305        0.983785        0.511419 
        2.12918        0.977953        0.507838 
        2.13531        0.973548         0.50429 
        2.14145        0.967483        0.500769 
         2.1476         0.96202        0.497277 
        2.15372        0.958601        0.493835 
        2.15985        0.951998        0.490424 
        2.16599        0.946644        0.487034 
        2.17213        0.942448         0.48368 
        2.17827        0.939844        0.480359 
         2.1844         0.93459        0.477072 
        2.19054         0.93098        0.473814 
        2.19666        0.924343        0.470592 
         2.2028        0.919878        0.467396 
        2.20893        0.914242        0.464229 
        2.21508        0.911954        0.461088 
        2.22122         0.90406        0.457975 
        2.22736        0.899646        0.454896 
        2.23349        0.899411        0.451847 
        2.23962        0.892266        0.448825 
        2.24577        0.886832        0.445827 
         2.2519        0.882743         0.44286 
        2.25802         0.87966        0.439926 
        2.26417        0.872834         0.43701 
        2.27031        0.870233        0.434118 
        2.27644        0.866034         0.43126 
        2.28257        0.862358        0.428428 
        2.28872        0.857234        0.425616 
        2.29486        0.853816         0.42283 
        2.30099        0.848686        0.420075 
        2.30712        0.845514        0.417343 
        2.31326        0.841842        0.414631 
         2.3194        0.838798        0.411944 
        2.32553        0.834594        0.409286 
        2.33166        0.829735        0.406653 
         2.3378        0.825196        0.404039 
        2.34394        0.819827        0.401447 
        2.35007        0.816956        0.398881 
        2.35619         0.81446        0.396341 
        2.36233        0.808476        0.393818 
        2.36848        0.806116        0.391311 
        2.37462        0.801545        0.388831 
        2.38075        0.799863        0.386375 
        2.38689        0.794901        0.383938 
        2.39303        0.792392        0.381523 
        2.39916        0.786216         0.37913 
        2.40529        0.785053        0.376759 
        2.41143        0.781097        0.374406 
        2.41757        0.776879        0.372072 
         2.4237        0.773911        0.369763 
        2.42983        0.770377        0.367473 
        2.43598        0.766891        0.365197 
        2.44211        0.763783        0.362943 
        2.44823        0.760118        0.360714 
        2.45437        0.756867        0.358497 
        2.46052        0.755181        0.356297 
        2.46665        0.750531         0.35412 
        2.47279         0.74681        0.351961 
        2.47892        0.742577        0.349819 
        2.48507        0.740008        0.347693 
         2.4912        0.736612        0.345588 
