# k  (h/Mpc)    P(k)  (Mpc/h)^3    P_linear(k)  (Mpc/h)^3
     0.00783031         11199.4         11316.6 
       0.013688         12479.9         12780.4 
       0.019231         11784.3         11935.1 
      0.0249154         10174.2         10124.9 
      0.0312784         7924.54         7941.97 
      0.0375637         6137.96         6178.33 
      0.0433917         5064.86         5043.02 
      0.0492413         4332.02         4334.18 
      0.0555754          3935.3         3903.22 
      0.0619321         3579.79         3645.88 
       0.067871          3411.3         3428.18 
      0.0738098         3154.72         3154.01 
      0.0800417         2806.43         2789.33 
      0.0862327         2399.63         2388.49 
      0.0921407         2059.33         2027.39 
      0.0982031            1787         1724.96 
       0.104506          1542.7         1504.62 
       0.110769         1419.67         1373.96 
       0.116806         1366.63         1307.79 
       0.122832         1307.74          1270.1 
       0.129052         1260.88         1230.58 
       0.135211         1216.37         1169.75 
       0.141259         1115.59         1083.18 
       0.147318         1007.69         977.947 
       0.153489         910.856         867.811 
       0.159709         836.463         769.903 
       0.165845         749.168         695.865 
       0.171974         721.784         646.225 
       0.178125         689.708         616.554 
       0.184229          650.55         599.174 
        0.19034         640.953         584.914 
       0.196428         621.861         566.514 
       0.202534         577.534         540.027 
       0.208729         560.933         505.305 
       0.214876         527.666         466.719 
       0.220989         485.402         429.153 
       0.227147         465.623         396.311 
        0.23329         441.955         370.764 
       0.239377         432.173         352.608 
       0.245482         409.649          339.95 
       0.251667         394.358         330.235 
       0.257832          389.88         320.958 
       0.263955         368.467          310.19 
       0.270079         352.851         297.075 
        0.27624         337.172         281.859 
       0.282372         326.463         265.924 
        0.28843         320.868         250.781 
       0.294538          302.77         237.263 
       0.300721         291.543         225.948 
        0.30691         285.775         216.941 
       0.313033         271.972         209.788 
       0.319153         267.457          203.57 
       0.325316         261.019         197.476 
        0.33145         253.463         191.024 
       0.337538         243.581         184.042 
       0.343633         235.861         176.602 
       0.349808         228.442         168.958 
       0.355968         223.174         161.654 
       0.362074         215.585         155.038 
       0.368217         212.398         149.202 
       0.374374         206.809          144.12 
       0.380519         198.062         139.664 
       0.386598         194.912          135.62 
       0.392688         188.845         131.689 
        0.39888         184.892         127.669 
       0.405048         180.249         123.565 
       0.411186         178.337         119.415 
       0.417313         174.394         115.319 
       0.423458         169.666         111.362 
       0.429607         164.723         107.647 
       0.435692         162.084         104.278 
       0.441815         158.202         101.169 
       0.447964         153.642         98.2837 
       0.454126          151.12         95.5674 
       0.460267         149.197         92.9594 
       0.466387         145.167         90.3964 
        0.47254         143.559         87.8437 
       0.478662         139.097         85.3374 
       0.484765         136.889         82.8865 
       0.490885         134.296         80.5085 
       0.497035          132.51         78.2313 
       0.503198         130.718         76.0806 
       0.509342         127.315         74.0552 
       0.515458         125.095          72.143 
       0.521598         121.919         70.3118 
       0.527764         120.877         68.5411 
       0.533884         119.798         66.8314 
           0.54         116.821         65.1562 
       0.546137         114.083         63.5119 
       0.552299         112.338         61.9063 
       0.558452         110.473          60.356 
       0.564573         109.925         58.8696 
       0.570708         106.783         57.4367 
       0.576825         105.492         56.0657 
       0.582926         104.311         54.7551 
       0.589034         102.425         53.4931 
       0.595184         101.182          52.265 
       0.601379         99.3122         51.0639 
       0.607522         96.9342         49.9025 
       0.613639         96.2957          48.776 
       0.619772           94.74         47.6781 
       0.625918         94.0819         46.6112 
       0.632068         91.7074         45.5781 
       0.638161         90.9761         44.5877 
         0.6443          90.137         43.6215 
       0.650464          88.187          42.682 
       0.656582         87.6231         41.7782 
       0.662703         86.6431         40.9013 
       0.668861         84.7529         40.0451 
       0.675024          84.657         39.2129 
       0.681124         83.1411         38.4123 
       0.687237         82.0894         37.6316 
       0.693381         80.7806         36.8681 
       0.699536         80.1077         36.1237 
       0.705665         79.1585         35.4028 
       0.711789         77.9714         34.7023 
       0.717957         76.9684         34.0164 
        0.72409         76.0903         33.3536 
       0.730186         75.7864         32.7131 
       0.736317         74.7254         32.0866 
       0.742472         73.3692         31.4745 
       0.748622         72.3225         30.8791 
        0.75476         72.3682         30.3004 
       0.760888         71.5359         29.7372 
       0.767043         70.1013          29.186 
       0.773185         69.1597         28.6497 
       0.779291         68.5434         28.1298 
       0.785407         68.0022         27.6221 
       0.791564         67.4147         27.1237 
       0.797719         66.2926          26.638 
       0.803834         66.0922         26.1673 
       0.809972         65.4439         25.7065 
       0.816124         64.3501         25.2559 
       0.822261         63.6797         24.8174 
       0.828378         63.4668         24.3908 
       0.834502         62.7902         23.9739 
       0.840667         62.2261          23.564 
       0.846816         61.5251          23.165 
       0.852925         60.8049         22.7777 
       0.859047         60.4071         22.3986 
       0.865192         59.7428         22.0268 
       0.871341         59.1882         21.6632 
       0.877463          58.562         21.3095 
       0.883569         58.5089         20.9646 
       0.889708         57.8162         20.6257 
       0.895864         57.3533         20.2933 
       0.902008         56.6364          19.969 
       0.908149         55.9445          19.652 
       0.914301         55.7212         19.3413 
       0.920448           55.65         19.0377 
       0.926574         54.4331         18.7417 
       0.932687         54.2512         18.4526 
       0.938823         53.8676         18.1686 
       0.944975         53.2283         17.8899 
       0.951105         52.7353         17.6181 
       0.957225         52.4931         17.3524 
       0.963368         51.9831         17.0914 
       0.969511         51.6501         16.8357 
       0.975621         51.0059         16.5866 
       0.981748         50.7195          16.342 
       0.987916          50.182         16.1007 
        0.99406         50.0471         15.8653 
        1.00019         49.4002         15.6351 
        1.00632          48.984         15.4096 
        1.01246         48.7291         15.1883 
        1.01859         48.4404         14.9717 
        1.02471         48.0559         14.7596 
        1.03085         47.5683         14.5509 
        1.03698         47.2831         14.3466 
        1.04314         46.8989         14.1455 
        1.04929         46.5588         13.9487 
        1.05541         46.1999         13.7564 
        1.06154         45.8345         13.5673 
        1.06769         45.5072         13.3815 
        1.07382          45.049         13.1997 
        1.07993         44.9162         13.0218 
        1.08607         44.4997         12.8464 
        1.09222         44.2906         12.6741 
        1.09836         43.9596         12.5051 
        1.10449         43.6562         12.3394 
        1.11063         43.3191         12.1766 
        1.11677         43.1886         12.0167 
         1.1229         42.6914           11.86 
        1.12903         42.4983         11.7059 
        1.13518         42.2003         11.5545 
        1.14131         41.8787         11.4058 
        1.14745         41.6971         11.2598 
        1.15359         41.1539         11.1164 
        1.15973         41.1515         10.9754 
        1.16584         40.8265         10.8375 
        1.17197         40.4798         10.7017 
        1.17811           40.23         10.5679 
        1.18424         39.7532         10.4367 
        1.19038         39.6061         10.3074 
        1.19652         39.4586         10.1804 
        1.20267         39.0957         10.0555 
        1.20881         38.8594         9.93267 
        1.21495         38.6801         9.81213 
        1.22108         38.6125         9.69361 
         1.2272         38.1623         9.57733 
        1.23334          38.038          9.4627 
        1.23949         37.7063         9.34967 
        1.24562         37.4811         9.23881 
        1.25174         37.3275         9.12991 
        1.25789          37.091         9.02244 
        1.26402          36.821         8.91689 
        1.27014         36.6916         8.81329 
        1.27628         36.3848         8.71103 
        1.28244         36.3811          8.6102 
        1.28858         35.9967          8.5111 
        1.29471         35.6781         8.41378 
        1.30084         35.4355         8.31808 
        1.30697         35.4293         8.22372 
        1.31312         35.2038          8.1307 
        1.31925         34.8914          8.0394 
        1.32537         34.6812          7.9496 
        1.33151          34.503         7.86085 
        1.33765         34.3862         7.77351 
        1.34378         34.1617         7.68766 
        1.34992         33.9404         7.60306 
        1.35606         33.6286         7.51954 
         1.3622         33.5778         7.43742 
        1.36833         33.4502         7.35673 
        1.37445         33.0923         7.27727 
        1.38059         32.9361         7.19874 
        1.38675         32.7927         7.12118 
        1.39288         32.6684         7.04507 
        1.39901         32.3934         6.97011 
        1.40515         32.2523         6.89607 
         1.4113         32.1741         6.82313 
        1.41742         31.9364         6.75153 
        1.42355         31.7428         6.68082 
         1.4297         31.6531         6.61091 
        1.43585         31.4913         6.54203 
        1.44198         31.2174         6.47439 
        1.44809         31.0169         6.40784 
        1.45423         30.9694         6.34198 
        1.46036         30.8411         6.27716 
        1.46649         30.5568         6.21323 
        1.47263         30.4177         6.15014 
        1.47877          30.261         6.08795 
        1.48491         30.0521         6.02652 
        1.49104         29.9677         5.96607 
        1.49718         29.8361         5.90641 
        1.50333         29.7092         5.84746 
        1.50947         29.4594         5.78944 
         1.5156         29.3977          5.7323 
        1.52172         29.1703         5.67593 
        1.52787         29.1429          5.6202 
          1.534         28.8596         5.56529 
        1.54013         28.9005         5.51117 
        1.54627         28.6132         5.45767 
        1.55241         28.5393         5.40487 
        1.55855         28.3575         5.35284 
        1.56467         28.1162         5.30164 
         1.5708         28.1468         5.25097 
        1.57695         27.9684         5.20088 
        1.58308         27.7715         5.15155 
        1.58922         27.6588         5.10283 
        1.59535         27.6083         5.05476 
         1.6015         27.5164         5.00724 
        1.60764         27.2697         4.96036 
        1.61376         27.1317          4.9142 
        1.61989         26.9716         4.86859 
        1.62604         26.8564         4.82346 
        1.63218         26.6121         4.77893 
        1.63831         26.6177         4.73506 
        1.64444          26.502         4.69173 
        1.65059         26.3337         4.64883 
        1.65673         26.2457         4.60652 
        1.66285         26.1428         4.56485 
        1.66898         26.0162         4.52369 
        1.67512         25.8225         4.48295 
        1.68127          25.779         4.44267 
         1.6874         25.6867         4.40298 
        1.69353         25.4986          4.3638 
        1.69967         25.4167           4.325 
        1.70581         25.2855         4.28669 
        1.71193          25.156         4.24899 
        1.71806         25.0812         4.21166 
        1.72421         24.9177         4.17471 
        1.73035         24.8584         4.13824 
        1.73649         24.6969         4.10221 
        1.74262         24.5523         4.06664 
        1.74876         24.6071         4.03147 
        1.75489         24.3613         3.99679 
        1.76101         24.3318         3.96252 
        1.76715          24.102         3.92861 
        1.77329         23.9957         3.89506 
        1.77943          23.994         3.86188 
        1.78557         23.8948         3.82913 
        1.79171         23.7476         3.79676 
        1.79785          23.665         3.76476 
        1.80399         23.5131         3.73313 
        1.81012         23.4312         3.70191 
        1.81625         23.2821         3.67106 
        1.82239         23.1921         3.64051 
        1.82853         23.1273         3.61032 
        1.83466         22.9774         3.58051 
        1.84078         22.8853         3.55106 
        1.84692         22.7636         3.52189 
        1.85306         22.6729         3.49302 
         1.8592          22.581         3.46451 
        1.86533         22.5157         3.43634 
        1.87147         22.3885         3.40845 
        1.87761         22.3231         3.38086 
        1.88375         22.1982          3.3536 
        1.88988         22.0645         3.32667 
        1.89601         22.0069         3.30003 
        1.90215         21.9296         3.27365 
        1.90829         21.8118         3.24758 
        1.91442         21.7165         3.22178 
        1.92056         21.6521         3.19629 
         1.9267         21.5844         3.17105 
        1.93284         21.4981         3.14607 
        1.93897         21.3905          3.1214 
        1.94509         21.3135         3.09705 
        1.95123         21.1877         3.07289 
        1.95737         21.1263         3.04898 
        1.96349         21.0645         3.02538 
        1.96964         20.9342         3.00196 
        1.97578         20.8394         2.97879 
        1.98192         20.7492          2.9559 
        1.98805         20.6584         2.93325 
        1.99419         20.5574         2.91083 
        2.00033         20.4857         2.88864 
        2.00647         20.4219         2.86668 
         2.0126         20.3039         2.84499 
        2.01874         20.2482          2.8235 
        2.02488         20.1195          2.8022 
        2.03101         20.0723         2.78116 
        2.03714         19.9858         2.76036 
        2.04328         19.8905         2.73975 
        2.04941         19.7792         2.71936 
        2.05554         19.7409          2.6992 
        2.06167         19.6651         2.67921 
        2.06781         19.5596         2.65942 
        2.07396         19.5047         2.63981 
        2.08009         19.3806         2.62042 
        2.08622         19.3359         2.60125 
        2.09237          19.239         2.58224 
        2.09851         19.2082         2.56341 
        2.10464         19.1094          2.5448 
        2.11077         19.0374         2.52639 
        2.11691         18.9199         2.50813 
        2.12305         18.8783         2.49004 
        2.12918         18.8078         2.47218 
        2.13531         18.6872         2.45449 
        2.14145         18.6606         2.43694 
         2.1476         18.5702         2.41953 
        2.15372         18.5207         2.40238 
        2.15985          18.413         2.38538 
        2.16599         18.3192         2.36849 
        2.17213         18.2986         2.35179 
        2.17827         18.1967         2.33525 
         2.1844         18.1007         2.31889 
        2.19054         18.0714         2.30267 
        2.19666           17.97         2.28664 
         2.2028         17.9441         2.27074 
        2.20893         17.8703         2.25498 
        2.21508         17.7865         2.23936 
        2.22122         17.7171         2.22388 
        2.22736          17.656         2.20857 
        2.23349         17.6089         2.19342 
        2.23962         17.5338          2.1784 
        2.24577         17.4436          2.1635 
         2.2519         17.3503         2.14877 
        2.25802         17.2693         2.13419 
        2.26417         17.1969         2.11971 
        2.27031         17.1297         2.10536 
        2.27644         17.0934         2.09117 
        2.28257         17.0569         2.07712 
        2.28872         16.9628         2.06317 
        2.29486         16.9098         2.04935 
        2.30099         16.8391         2.03568 
        2.30712         16.7837         2.02213 
        2.31326         16.6979         2.00869 
         2.3194         16.6481         1.99537 
        2.32553           16.58         1.98219 
        2.33166          16.517         1.96914 
         2.3378         16.4461         1.95619 
        2.34394         16.3926         1.94335 
        2.35007         16.3245         1.93065 
        2.35619         16.2772         1.91807 
        2.36233         16.1912         1.90558 
        2.36848         16.1553         1.89317 
        2.37462         16.1067          1.8809 
        2.38075         16.0162         1.86874 
        2.38689         15.9601         1.85669 
        2.39303         15.8974         1.84474 
        2.39916         15.8345         1.83291 
        2.40529         15.7658         1.82119 
        2.41143         15.7256         1.80956 
        2.41757         15.6213         1.79802 
         2.4237         15.5747         1.78661 
        2.42983         15.5169         1.77529 
        2.43598         15.4714         1.76405 
        2.44211         15.4051         1.75292 
        2.44823         15.3329         1.74191 
        2.45437         15.3028         1.73096 
        2.46052         15.2396          1.7201 
        2.46665          15.205         1.70935 
        2.47279         15.1073          1.6987 
        2.47892          15.087         1.68813 
        2.48507         15.0115         1.67764 
         2.4912         14.9603         1.66726 
