# k  (h/Mpc)    P(k)  (Mpc/h)^3    P_linear(k)  (Mpc/h)^3
     0.00783031         20887.2         21101.3 
       0.013688         23101.8         23823.9 
       0.019231         21852.2         22243.9 
      0.0249154         18971.2         18867.7 
      0.0312784         14712.5         14798.4 
      0.0375637         11385.5         11511.4 
      0.0433917         9424.65         9395.69 
      0.0492413         8060.06         8074.77 
      0.0555754         7326.57         7271.66 
      0.0619321         6619.96          6792.1 
       0.067871         6317.63         6386.41 
      0.0738098         5867.12         5875.58 
      0.0800417         5222.79         5196.16 
      0.0862327         4475.92          4449.4 
      0.0921407         3876.36          3776.7 
      0.0982031         3392.87         3213.31 
       0.104506         2935.47         2802.83 
       0.110769         2712.12         2559.42 
       0.116806         2608.55         2436.14 
       0.122832          2494.1         2365.93 
       0.129052            2379         2292.31 
       0.135211         2314.35         2178.98 
       0.141259         2115.96         2017.71 
       0.147318         1927.62         1821.68 
       0.153489         1757.28         1616.52 
       0.159709         1641.86         1434.14 
       0.165845          1482.3         1296.22 
       0.171974         1431.42         1203.76 
       0.178125         1376.97         1148.48 
       0.184229         1280.09         1116.11 
        0.19034         1266.15         1089.54 
       0.196428         1229.29         1055.27 
       0.202534         1145.38         1005.93 
       0.208729         1119.06         941.249 
       0.214876         1053.98         869.374 
       0.220989         986.519         799.398 
       0.227147         950.449          738.22 
        0.23329         905.905         690.633 
       0.239377         897.605         656.813 
       0.245482         849.713         633.234 
       0.251667         820.359         615.138 
       0.257832         805.509         597.857 
       0.263955         765.184         577.797 
       0.270079          738.09         553.368 
        0.27624         706.457         525.025 
       0.282372         692.584         495.343 
        0.28843          679.07         467.134 
       0.294538         644.004         441.955 
       0.300721         628.244         420.877 
        0.30691         612.481           404.1 
       0.313033         585.028         390.775 
       0.319153         577.841         379.193 
       0.325316         567.624         367.842 
        0.33145          553.05         355.822 
       0.337538         532.203         342.817 
       0.343633         519.034         328.958 
       0.349808         505.794          314.72 
       0.355968          496.14         301.115 
       0.362074         476.469         288.792 
       0.368217         473.816          277.92 
       0.374374         466.044         268.455 
       0.380519         446.963         260.154 
       0.386598         442.461         252.622 
       0.392688         429.938         245.298 
        0.39888         420.379          237.81 
       0.405048         409.826         230.166 
       0.411186         409.593         222.435 
       0.417313         403.067         214.805 
       0.423458          392.69         207.435 
       0.429607         380.309         200.516 
       0.435692         375.162         194.239 
       0.441815         367.881         188.449 
       0.447964          360.84         183.074 
       0.454126         356.521         178.014 
       0.460267         350.558         173.156 
       0.466387         342.195         168.382 
        0.47254         338.825         163.627 
       0.478662         331.353         158.959 
       0.484765          326.26         154.393 
       0.490885         323.478         149.964 
       0.497035         315.358         145.722 
       0.503198         314.825         141.716 
       0.509342         308.361         137.943 
       0.515458         302.032         134.381 
       0.521598         298.742          130.97 
       0.527764         293.515         127.672 
       0.533884         290.061         124.487 
           0.54         286.888         121.367 
       0.546137         280.934         118.304 
       0.552299         279.249         115.313 
       0.558452         274.257         112.426 
       0.564573         273.362         109.657 
       0.570708         267.643         106.988 
       0.576825         263.342         104.434 
       0.582926         262.207         101.993 
       0.589034         256.716         99.6418 
       0.595184         255.261         97.3543 
       0.601379         250.934         95.1169 
       0.607522         245.414         92.9536 
       0.613639         244.714         90.8552 
       0.619772          243.46         88.8102 
       0.625918         238.639          86.823 
       0.632068         236.637         84.8986 
       0.638161         234.853         83.0536 
         0.6443         230.869         81.2539 
       0.650464         228.811          79.504 
       0.656582         225.944         77.8205 
       0.662703         225.495         76.1871 
       0.668861         220.329         74.5922 
       0.675024         219.732          73.042 
       0.681124         215.912         71.5507 
       0.687237         215.046         70.0966 
       0.693381         211.203         68.6743 
       0.699536         210.902         67.2877 
       0.705665         208.058         65.9449 
       0.711789         205.447         64.6401 
       0.717957         204.264         63.3624 
        0.72409         201.319         62.1278 
       0.730186         201.926         60.9348 
       0.736317         198.547         59.7678 
       0.742472         196.922         58.6276 
       0.748622         195.201         57.5186 
        0.75476         193.968         56.4407 
       0.760888         191.895         55.3917 
       0.767043         189.004         54.3648 
       0.773185         187.016         53.3658 
       0.779291         186.157         52.3975 
       0.785407         184.738         51.4517 
       0.791564         183.315         50.5234 
       0.797719         180.368         49.6186 
       0.803834         180.646         48.7419 
       0.809972         178.145         47.8836 
       0.816124         175.849         47.0443 
       0.822261         174.521         46.2275 
       0.828378         173.776         45.4328 
       0.834502         171.701         44.6562 
       0.840667         171.552         43.8928 
       0.846816         168.734         43.1495 
       0.852925         168.549         42.4282 
       0.859047         166.324         41.7218 
       0.865192         165.838         41.0293 
       0.871341          164.37         40.3521 
       0.877463         162.818         39.6933 
       0.883569          162.32         39.0509 
       0.889708         161.051         38.4194 
       0.895864         158.718         37.8004 
       0.902008         157.673         37.1963 
       0.908149         156.128         36.6057 
       0.914301         155.245         36.0271 
       0.920448         154.343         35.4615 
       0.926574         152.884         34.9101 
       0.932687         152.705         34.3716 
       0.938823         151.235         33.8426 
       0.944975         150.862         33.3236 
       0.951105         148.976         32.8173 
       0.957225         147.899         32.3224 
       0.963368         147.649         31.8361 
       0.969511         145.855         31.3598 
       0.975621         143.815         30.8959 
       0.981748         143.832         30.4402 
       0.987916         142.877         29.9909 
        0.99406          141.77         29.5523 
        1.00019         141.092         29.1234 
        1.00632         140.029         28.7035 
        1.01246         138.851         28.2912 
        1.01859         137.603         27.8878 
        1.02471         136.674         27.4927 
        1.03085         136.157         27.1039 
        1.03698         135.404         26.7235 
        1.04314         134.559         26.3488 
        1.04929         133.755         25.9822 
        1.05541         133.438         25.6241 
        1.06154         132.048         25.2718 
        1.06769         131.193         24.9257 
        1.07382         129.815         24.5871 
        1.07993         129.577         24.2557 
        1.08607         129.223          23.929 
        1.09222         127.642          23.608 
        1.09836         127.018         23.2933 
        1.10449         126.453         22.9847 
        1.11063         125.256         22.6813 
        1.11677         124.666         22.3835 
         1.1229          123.88         22.0916 
        1.12903         122.559         21.8046 
        1.13518         122.108         21.5225 
        1.14131           121.8         21.2456 
        1.14745         120.726         20.9737 
        1.15359         119.981         20.7065 
        1.15973         119.296         20.4439 
        1.16584         118.541          20.187 
        1.17197         118.075         19.9341 
        1.17811          117.04         19.6848 
        1.18424         116.472         19.4405 
        1.19038         115.816         19.1997 
        1.19652         114.732          18.963 
        1.20267         114.164         18.7303 
        1.20881         113.423         18.5016 
        1.21495         113.219         18.2771 
        1.22108         112.191         18.0563 
         1.2272         112.098         17.8397 
        1.23334         110.942         17.6262 
        1.23949         110.437         17.4156 
        1.24562         109.639         17.2091 
        1.25174         109.576         17.0063 
        1.25789          108.63         16.8061 
        1.26402         107.892         16.6095 
        1.27014         107.348         16.4165 
        1.27628         106.948          16.226 
        1.28244         106.125         16.0382 
        1.28858         105.585         15.8536 
        1.29471         104.761         15.6724 
        1.30084          104.35         15.4941 
        1.30697         103.574         15.3183 
        1.31312         103.275          15.145 
        1.31925         102.268          14.975 
        1.32537         101.982         14.8077 
        1.33151         101.247         14.6424 
        1.33765         100.959         14.4797 
        1.34378          100.47         14.3198 
        1.34992         99.7449         14.1622 
        1.35606         99.4365         14.0066 
         1.3622         98.8115         13.8537 
        1.36833         98.2344         13.7034 
        1.37445         97.5967         13.5554 
        1.38059         97.0778         13.4091 
        1.38675         96.6645         13.2646 
        1.39288         96.0292         13.1228 
        1.39901         95.3766         12.9832 
        1.40515         95.0682         12.8453 
         1.4113          94.493         12.7094 
        1.41742         94.2697         12.5761 
        1.42355         93.5634         12.4444 
         1.4297         92.9639         12.3141 
        1.43585         92.7665         12.1858 
        1.44198         92.1744         12.0598 
        1.44809         91.5351         11.9359 
        1.45423         91.2585         11.8132 
        1.46036         90.4286         11.6925 
        1.46649         89.9265         11.5734 
        1.47263         89.6616         11.4559 
        1.47877         89.2464           11.34 
        1.48491         88.6628         11.2256 
        1.49104         88.2262          11.113 
        1.49718         87.7377         11.0019 
        1.50333         87.1171         10.8921 
        1.50947         87.0314          10.784 
         1.5156         86.3274         10.6776 
        1.52172         85.7184         10.5725 
        1.52787         85.4812         10.4687 
          1.534          85.095         10.3665 
        1.54013         84.6457         10.2656 
        1.54627          84.161          10.166 
        1.55241         83.7809         10.0676 
        1.55855         83.1675         9.97073 
        1.56467         82.7642         9.87536 
         1.5708         82.3456         9.78097 
        1.57695         82.0308         9.68767 
        1.58308         81.4012         9.59579 
        1.58922         81.0336         9.50504 
        1.59535         80.9707          9.4155 
         1.6015         80.2392         9.32699 
        1.60764         79.8736         9.23965 
        1.61376         79.7568         9.15367 
        1.61989         79.1679         9.06872 
        1.62604         78.9284         8.98465 
        1.63218         78.2697          8.9017 
        1.63831         78.0978         8.81999 
        1.64444         77.4154         8.73927 
        1.65059         77.0439         8.65937 
        1.65673         76.8796         8.58056 
        1.66285         76.5777         8.50295 
        1.66898         75.8804         8.42627 
        1.67512         75.4047         8.35038 
        1.68127         75.2358         8.27536 
         1.6874         75.0465         8.20143 
        1.69353         74.3477         8.12845 
        1.69967         74.0783         8.05618 
        1.70581         73.6967         7.98482 
        1.71193         73.4133         7.91459 
        1.71806         72.8339         7.84505 
        1.72421          72.544         7.77622 
        1.73035         72.1951         7.70829 
        1.73649          71.863         7.64118 
        1.74262         71.3838         7.57493 
        1.74876         71.0425         7.50941 
        1.75489         70.9745         7.44481 
        1.76101         70.5556         7.38098 
        1.76715         70.1477         7.31782 
        1.77329         69.7823         7.25531 
        1.77943         69.3639         7.19351 
        1.78557          69.155         7.13252 
        1.79171         68.7145         7.07222 
        1.79785         68.4559         7.01261 
        1.80399         68.0166          6.9537 
        1.81012         67.6404         6.89554 
        1.81625         67.3186         6.83807 
        1.82239          67.038         6.78117 
        1.82853         66.6609         6.72494 
        1.83466         66.3795          6.6694 
        1.84078         66.0304         6.61455 
        1.84692         65.7409         6.56022 
        1.85306         65.5718         6.50644 
         1.8592         65.2867         6.45334 
        1.86533         64.7775         6.40087 
        1.87147         64.4576         6.34892 
        1.87761         64.0956         6.29752 
        1.88375         63.8476         6.24675 
        1.88988         63.5099         6.19659 
        1.89601         63.2143         6.14696 
        1.90215         63.0981         6.09783 
        1.90829         62.5555         6.04926 
        1.91442         62.2289         6.00121 
        1.92056         62.0464         5.95373 
         1.9267         61.6402         5.90671 
        1.93284         61.4953         5.86017 
        1.93897         61.0951         5.81422 
        1.94509         60.8214         5.76886 
        1.95123          60.505         5.72387 
        1.95737         60.2102         5.67933 
        1.96349            60.1         5.63537 
        1.96964          59.931         5.59175 
        1.97578         59.2875         5.54858 
        1.98192         59.0601         5.50594 
        1.98805         58.9071         5.46375 
        1.99419         58.6043           5.422 
        2.00033         58.2589         5.38066 
        2.00647         57.9653         5.33977 
         2.0126         57.7833         5.29936 
        2.01874         57.4749         5.25932 
        2.02488         57.2495         5.21965 
        2.03101         56.8444         5.18046 
        2.03714         56.6499         5.14172 
        2.04328         56.4559         5.10332 
        2.04941         56.1272         5.06535 
        2.05554         55.8383         5.02779 
        2.06167         55.5991         4.99056 
        2.06781         55.3141          4.9537 
        2.07396         54.9579         4.91716 
        2.08009         54.7947         4.88105 
        2.08622         54.4281         4.84534 
        2.09237         54.2872         4.80992 
        2.09851         53.9144         4.77485 
        2.10464         53.7125         4.74018 
        2.11077          53.526          4.7059 
        2.11691         53.2214         4.67188 
        2.12305         52.9474          4.6382 
        2.12918         52.6525         4.60493 
        2.13531         52.4876         4.57198 
        2.14145         52.1723         4.53927 
         2.1476         52.0085         4.50685 
        2.15372         51.6799         4.47491 
        2.15985          51.512         4.44324 
        2.16599         51.2533         4.41179 
        2.17213         51.0552         4.38067 
        2.17827         50.6506         4.34987 
         2.1844         50.5231         4.31938 
        2.19054         50.3059         4.28918 
        2.19666         50.0014         4.25931 
         2.2028         49.7867          4.2297 
        2.20893         49.4972         4.20035 
        2.21508         49.4239         4.17125 
        2.22122         49.0762         4.14241 
        2.22736         48.8467          4.1139 
        2.23349         48.6157         4.08567 
        2.23962         48.5011         4.05769 
        2.24577         48.2153         4.02995 
         2.2519         47.9052          4.0025 
        2.25802         47.7341         3.97536 
        2.26417         47.5703         3.94838 
        2.27031         47.2863         3.92164 
        2.27644         47.0665         3.89522 
        2.28257         46.8476         3.86904 
        2.28872         46.6579         3.84305 
        2.29486         46.3934         3.81731 
        2.30099         46.2134         3.79185 
        2.30712         46.0481         3.76662 
        2.31326         45.7504         3.74157 
         2.3194         45.4773         3.71676 
        2.32553         45.3466         3.69222 
        2.33166         45.1495         3.66792 
         2.3378         44.8626         3.64379 
        2.34394         44.7988         3.61988 
        2.35007         44.4706         3.59621 
        2.35619         44.3377         3.57279 
        2.36233         44.0936         3.54951 
        2.36848         43.9102          3.5264 
        2.37462         43.7134         3.50354 
        2.38075         43.3959          3.4809 
        2.38689         43.2982         3.45845 
        2.39303         43.0889         3.43619 
        2.39916         42.9271         3.41416 
        2.40529         42.7044         3.39232 
        2.41143         42.5354         3.37065 
        2.41757         42.2904         3.34917 
         2.4237         42.1624          3.3279 
        2.42983         41.9599         3.30683 
        2.43598         41.8226         3.28588 
        2.44211         41.5001         3.26515 
        2.44823         41.3828         3.24464 
        2.45437         41.1557         3.22425 
        2.46052         41.0072         3.20402 
        2.46665         40.8201           3.184 
        2.47279         40.5553         3.16415 
        2.47892         40.3937         3.14447 
        2.48507         40.2493         3.12493 
         2.4912         40.0525         3.10559 
