# k  (h/Mpc)    Pcb(k)  (Mpc/h)^3    Pcb_linear(k)  (Mpc/h)^3
     0.00783031         8349.71         8411.75 
       0.013688         9105.55         9278.93 
       0.019231         8376.33         8453.44 
      0.0249154          7017.4         6973.83 
      0.0312784         5318.98         5312.64 
      0.0375637         4045.44         4056.59 
      0.0433917         3322.68         3302.01 
      0.0492413         2867.99         2864.84 
      0.0555754         2638.48         2615.74 
      0.0619321         2420.18         2455.97 
       0.067871         2284.44         2289.31 
      0.0738098         2067.36          2062.9 
      0.0800417         1789.31         1772.74 
      0.0862327         1492.02         1478.83 
      0.0921407          1261.1         1238.75 
      0.0982031         1094.73         1059.01 
       0.104506         963.868         945.345 
       0.110769         909.664          889.28 
       0.116806         890.313         864.045 
       0.122832         856.007         842.065 
       0.129052         817.621         803.287 
       0.135211         766.857          741.84 
       0.141259          685.47          665.18 
       0.147318         604.835         585.332 
       0.153489         540.436         514.142 
       0.159709         496.073          460.84 
       0.165845         452.376         427.643 
       0.171974         444.182         409.696 
       0.178125           430.5         400.007 
       0.184229         411.314         391.201 
        0.19034         401.243         377.536 
       0.196428         382.589         356.868 
       0.202534         348.859         330.453 
       0.208729         331.478         301.658 
       0.214876         308.778         275.294 
       0.220989         283.328         254.143 
       0.227147         273.267          238.91 
        0.23329         262.066         228.972 
       0.239377         257.492         222.379 
       0.245482         246.267         216.731 
       0.251667         236.535         209.995 
       0.257832         232.462         201.235 
       0.263955         217.423         190.628 
       0.270079         205.783         179.036 
        0.27624         195.186         167.687 
       0.282372         187.471         157.763 
        0.28843         183.906          149.84 
       0.294538         174.603         143.731 
       0.300721         168.033         138.957 
        0.30691         165.172         134.895 
       0.313033         157.869         130.872 
       0.319153         154.909         126.422 
       0.325316         149.572         121.355 
        0.33145         144.078         115.943 
       0.337538         138.061         110.536 
       0.343633         133.374         105.464 
       0.349808         128.674         100.929 
       0.355968         125.275         97.0856 
       0.362074         121.962         93.8723 
       0.368217         119.262          91.025 
       0.374374          115.98         88.3488 
       0.380519         111.105         85.6547 
       0.386598         108.723         82.8764 
       0.392688         104.969         79.9963 
        0.39888         103.011         77.0318 
       0.405048         100.179         74.1704 
       0.411186         98.1552         71.5166 
       0.417313         95.5541         69.1011 
       0.423458         92.9115         66.9267 
       0.429607         90.5506         64.9559 
       0.435692         89.1891          63.129 
       0.441815         86.3683         61.3545 
       0.447964          83.663         59.5942 
       0.454126         82.0609         57.8229 
       0.460267         81.1731         56.0609 
       0.466387         78.7773         54.3451 
        0.47254         77.8122         52.6882 
       0.478662         75.0487         51.1264 
       0.484765         73.6885         49.6689 
       0.490885         71.8297         48.3088 
       0.497035         71.1107         47.0202 
       0.503198         69.6158         45.7829 
       0.509342         67.7525         44.5849 
       0.515458         66.5144         43.4204 
       0.521598         64.7371          42.274 
       0.527764         64.0359         41.1452 
       0.533884         63.3715         40.0546 
           0.54         61.5504         39.0056 
       0.546137         60.0024         38.0021 
       0.552299         58.7863          37.043 
       0.558452         57.7318         36.1278 
       0.564573         57.3575         35.2523 
       0.570708         55.6678         34.4049 
       0.576825         55.0439         33.5864 
       0.582926         54.3048         32.7936 
       0.589034         53.2202         32.0205 
       0.595184         52.4294         31.2618 
       0.601379         51.2559         30.5194 
       0.607522         50.0627         29.8066 
       0.613639         49.6662          29.122 
       0.619772         48.5809         28.4617 
       0.625918         48.1854         27.8244 
       0.632068         47.1949         27.2083 
       0.638161         46.4412         26.6166 
         0.6443         46.0482         26.0367 
       0.650464         44.8603           25.47 
       0.656582         44.6842         24.9225 
       0.662703         43.9449         24.3901 
       0.668861         42.9571         23.8703 
       0.675024         42.7344         23.3658 
       0.681124         42.0888          22.882 
       0.687237         41.3639         22.4117 
       0.693381         40.6954         21.9529 
       0.699536         40.2933         21.5065 
       0.705665         39.7254         21.0742 
       0.711789           39.09          20.654 
       0.717957         38.4748          20.242 
        0.72409         38.0134         19.8432 
       0.730186         37.7262         19.4575 
       0.736317         37.0672           19.08 
       0.742472         36.5266         18.7111 
       0.748622         36.0112         18.3526 
        0.75476         35.5912         18.0044 
       0.760888         35.4082         17.6659 
       0.767043         34.6177          17.335 
       0.773185         34.0907         17.0133 
       0.779291         33.7479         16.7016 
       0.785407         33.4059         16.3973 
       0.791564         33.2409         16.0986 
       0.797719         32.5067         15.8074 
       0.803834         32.3467         15.5252 
       0.809972         31.9212         15.2489 
       0.816124         31.5138         14.9787 
       0.822261         31.0467         14.7157 
       0.828378         30.9105         14.4599 
       0.834502         30.5337         14.2099 
       0.840667         30.2139         13.9642 
       0.846816         29.8363         13.7251 
       0.852925         29.4931         13.4931 
       0.859047         29.3442         13.2661 
       0.865192         28.8831         13.0435 
       0.871341         28.5702         12.8259 
       0.877463         28.2113         12.6143 
       0.883569         28.1173          12.408 
       0.889708         27.7379         12.2052 
       0.895864         27.4575         12.0065 
       0.902008         27.2047         11.8126 
       0.908149         26.7969         11.6232 
       0.914301         26.5813         11.4375 
       0.920448         26.4625         11.2562 
       0.926574         26.0751         11.0794 
       0.932687         25.7882         10.9067 
       0.938823         25.4739         10.7372 
       0.944975         25.2176         10.5708 
       0.951105         25.0578         10.4086 
       0.957225          24.816         10.2501 
       0.963368         24.5983         10.0943 
       0.969511          24.345         9.94176 
       0.975621         24.1517         9.79321 
       0.981748         23.9025         9.64731 
       0.987916         23.6658         9.50347 
        0.99406          23.449         9.36311 
        1.00019         23.2371         9.22586 
        1.00632         23.0782         9.09148 
        1.01246         22.8342         8.95958 
        1.01859         22.6426         8.83052 
        1.02471          22.446         8.70415 
        1.03085         22.2672         8.57982 
        1.03698         22.1549         8.45817 
        1.04314         21.9046         8.33838 
        1.04929         21.6178         8.22118 
        1.05541          21.587          8.1067 
        1.06154         21.3517         7.99413 
        1.06769         21.1005         7.88352 
        1.07382         20.9581         7.77537 
        1.07993         20.8334         7.66949 
        1.08607         20.6127         7.56515 
        1.09222          20.468         7.46264 
        1.09836         20.2875         7.36215 
        1.10449           20.18         7.26363 
        1.11063         19.9827         7.16681 
        1.11677         19.9263         7.07178 
         1.1229         19.6987         6.97864 
        1.12903         19.5237          6.8871 
        1.13518         19.4646         6.79712 
        1.14131         19.2838          6.7088 
        1.14745         19.1086          6.6221 
        1.15359         18.8745         6.53692 
        1.15973         18.8494          6.4532 
        1.16584         18.6591         6.37132 
        1.17197           18.48         6.29075 
        1.17811         18.3536         6.21132 
        1.18424         18.1582          6.1335 
        1.19038          18.062         6.05678 
        1.19652         17.9223          5.9814 
        1.20267         17.8344         5.90731 
        1.20881         17.6788         5.83449 
        1.21495         17.6311           5.763 
        1.22108         17.5134         5.69273 
         1.2272         17.3133         5.62379 
        1.23334         17.2489         5.55584 
        1.23949         17.1105         5.48884 
        1.24562         16.9827         5.42314 
        1.25174          16.886          5.3586 
        1.25789         16.7538         5.29492 
        1.26402           16.66         5.23239 
        1.27014         16.5521         5.17101 
        1.27628         16.4127         5.11043 
        1.28244         16.4171         5.05071 
        1.28858           16.21         4.99201 
        1.29471          16.086         4.93438 
        1.30084         15.9817         4.87771 
        1.30697         15.8925         4.82185 
        1.31312          15.798         4.76678 
        1.31925         15.6781         4.71274 
        1.32537         15.5436         4.65959 
        1.33151         15.4344         4.60707 
        1.33765         15.4231         4.55538 
        1.34378          15.323          4.5046 
        1.34992         15.1766         4.45455 
        1.35606          15.041         4.40515 
         1.3622         14.9995         4.35659 
        1.36833         14.9323         4.30887 
        1.37445         14.8119          4.2619 
        1.38059         14.6961         4.21548 
        1.38675          14.667         4.16963 
        1.39288         14.5286         4.12466 
        1.39901         14.4242         4.08036 
        1.40515         14.3616         4.03662 
         1.4113          14.296         3.99353 
        1.41742         14.2025         3.95123 
        1.42355         14.0796         3.90947 
         1.4297         14.0342         3.86819 
        1.43585         13.9503         3.82751 
        1.44198         13.8995         3.78758 
        1.44809         13.7921         3.74828 
        1.45423         13.7218          3.7094 
        1.46036          13.651         3.67114 
        1.46649          13.559         3.63341 
        1.47263         13.4883         3.59617 
        1.47877         13.3687         3.55947 
        1.48491          13.328         3.52322 
        1.49104         13.2439         3.48756 
        1.49718         13.2265         3.45236 
        1.50333         13.1325         3.41758 
        1.50947         13.0058         3.38336 
         1.5156          12.995         3.34966 
        1.52172         12.9169         3.31641 
        1.52787         12.8684         3.28355 
          1.534         12.7668         3.25117 
        1.54013         12.7377         3.21926 
        1.54627         12.6361         3.18772 
        1.55241           12.56          3.1566 
        1.55855         12.4926         3.12593 
        1.56467         12.4086         3.09576 
         1.5708         12.3967         3.06589 
        1.57695          12.309         3.03638 
        1.58308         12.2244         3.00732 
        1.58922          12.174         2.97862 
        1.59535          12.117          2.9503 
         1.6015         12.0628         2.92232 
        1.60764         11.9913          2.8947 
        1.61376         11.9323         2.86752 
        1.61989         11.8351         2.84067 
        1.62604         11.7966          2.8141 
        1.63218         11.7142         2.78788 
        1.63831         11.6689         2.76206 
        1.64444         11.6311         2.73655 
        1.65059          11.562         2.71131 
        1.65673         11.5015         2.68641 
        1.66285         11.4428         2.66189 
        1.66898         11.3888         2.63767 
        1.67512         11.3613          2.6137 
        1.68127         11.2968         2.59001 
         1.6874         11.2549         2.56666 
        1.69353         11.1632         2.54362 
        1.69967         11.0971          2.5208 
        1.70581         11.0794         2.49827 
        1.71193         11.0118          2.4761 
        1.71806         10.9521         2.45415 
        1.72421         10.9183         2.43242 
        1.73035         10.8579         2.41098 
        1.73649         10.7798         2.38981 
        1.74262         10.7729          2.3689 
        1.74876         10.7187         2.34823 
        1.75489         10.6459         2.32784 
        1.76101          10.595         2.30771 
        1.76715         10.5412         2.28778 
        1.77329         10.5019         2.26807 
        1.77943           10.46         2.24858 
        1.78557          10.434         2.22934 
        1.79171         10.3593         2.21033 
        1.79785         10.2983         2.19153 
        1.80399         10.2464         2.17296 
        1.81012         10.2171         2.15462 
        1.81625         10.1643          2.1365 
        1.82239         10.1134         2.11857 
        1.82853         10.0758         2.10085 
        1.83466         10.0244         2.08334 
        1.84078         9.97279         2.06606 
        1.84692         9.94658         2.04894 
        1.85306         9.91802         2.03199 
         1.8592         9.86979         2.01526 
        1.86533         9.82997         1.99873 
        1.87147         9.76994         1.98237 
        1.87761         9.73962         1.96618 
        1.88375         9.68699         1.95019 
        1.88988         9.64571         1.93439 
        1.89601          9.6062         1.91876 
        1.90215         9.55066         1.90329 
        1.90829         9.52085           1.888 
        1.91442         9.47128         1.87287 
        1.92056         9.42987         1.85792 
         1.9267         9.40146         1.84312 
        1.93284         9.38594         1.82847 
        1.93897         9.31239         1.81401 
        1.94509          9.2868         1.79973 
        1.95123         9.22746         1.78557 
        1.95737         9.17411         1.77156 
        1.96349         9.16479         1.75772 
        1.96964         9.14392           1.744 
        1.97578         9.09709         1.73042 
        1.98192         9.05066           1.717 
        1.98805         9.00478         1.70373 
        1.99419          8.9877          1.6906 
        2.00033         8.92791          1.6776 
        2.00647         8.89359         1.66473 
         2.0126         8.84908         1.65203 
        2.01874         8.82429         1.63944 
        2.02488         8.78039         1.62696 
        2.03101          8.7562         1.61464 
        2.03714         8.71203         1.60246 
        2.04328         8.68454         1.59039 
        2.04941         8.63808         1.57845 
        2.05554         8.62133         1.56665 
        2.06167         8.58833         1.55494 
        2.06781          8.5722         1.54336 
        2.07396         8.52181         1.53188 
        2.08009         8.47558         1.52053 
        2.08622         8.44281         1.50931 
        2.09237         8.42461         1.49818 
        2.09851         8.37215         1.48716 
        2.10464         8.35262         1.47627 
        2.11077          8.3144          1.4655 
        2.11691          8.2785         1.45482 
        2.12305         8.23696         1.44424 
        2.12918         8.20388         1.43379 
        2.13531         8.19389         1.42344 
        2.14145          8.1461         1.41317 
         2.1476         8.10644         1.40299 
        2.15372         8.11019         1.39296 
        2.15985         8.05021         1.38302 
        2.16599         8.03164         1.37315 
        2.17213         8.00486         1.36338 
        2.17827         7.97251         1.35371 
         2.1844         7.93933         1.34414 
        2.19054         7.92112         1.33467 
        2.19666         7.88611         1.32529 
         2.2028         7.85301           1.316 
        2.20893          7.8179         1.30679 
        2.21508         7.78709         1.29766 
        2.22122         7.76175         1.28861 
        2.22736         7.72978         1.27967 
        2.23349         7.70057         1.27081 
        2.23962          7.6747         1.26204 
        2.24577         7.66798         1.25333 
         2.2519         7.61844         1.24473 
        2.25802         7.59124         1.23621 
        2.26417         7.58336         1.22775 
        2.27031         7.53466         1.21936 
        2.27644         7.52405         1.21108 
        2.28257         7.48262         1.20287 
        2.28872         7.46562         1.19472 
        2.29486         7.44595         1.18665 
        2.30099         7.40483         1.17867 
        2.30712           7.375         1.17076 
        2.31326         7.35242         1.16291 
         2.3194         7.32367         1.15513 
        2.32553         7.28818         1.14744 
        2.33166          7.2526         1.13982 
         2.3378         7.25526         1.13226 
        2.34394         7.21611         1.12477 
        2.35007         7.19354         1.11735 
        2.35619         7.16824         1.11001 
        2.36233         7.14003         1.10272 
        2.36848         7.10298         1.09548 
        2.37462         7.08314         1.08832 
        2.38075         7.04503         1.08123 
        2.38689         7.04796         1.07419 
        2.39303         7.01076         1.06722 
        2.39916         6.99045         1.06032 
        2.40529         6.96819         1.05348 
        2.41143         6.94058          1.0467 
        2.41757         6.90657         1.03997 
         2.4237         6.88894         1.03331 
        2.42983         6.87049         1.02671 
        2.43598         6.84541         1.02015 
        2.44211         6.81956         1.01366 
        2.44823         6.78993         1.00724 
        2.45437         6.78277         1.00086 
        2.46052         6.74632        0.994525 
        2.46665         6.73581        0.988258 
        2.47279         6.71449        0.982047 
        2.47892         6.68176        0.975885 
        2.48507          6.6577         0.96977 
         2.4912         6.62383        0.963718 
