#  k  (h/Mpc)          P(k)  (Mpc/h)^3     P_linear(k) (Mpc/h)^3
     0.00783031         5966.98         6035.62 
       0.013688          7676.7         7642.68 
       0.019231         7961.86          7953.4 
      0.0249154            7465         7565.75 
      0.0312784         6692.47         6735.44 
      0.0375637         5841.58         5839.04 
      0.0433917         5057.04          5111.2 
      0.0492413         4525.84         4541.35 
      0.0555754         4026.07         4098.85 
      0.0619321         3802.44         3786.94 
       0.067871         3501.63         3557.02 
      0.0738098         3281.62         3338.18 
      0.0800417         3010.45         3088.85 
      0.0862327         2765.33         2814.19 
      0.0921407         2519.87          2540.2 
      0.0982031         2242.28         2270.04 
       0.104506         2047.18         2024.26 
       0.110769         1854.45         1829.53 
       0.116806         1705.46         1690.22 
       0.122832         1616.37         1590.68 
       0.129052         1515.66         1515.25 
       0.135211         1452.69         1451.92 
       0.141259         1401.25         1387.66 
       0.147318         1333.47         1313.69 
       0.153489         1235.92         1227.43 
       0.159709         1158.82         1134.13 
       0.165845         1091.41         1043.49 
       0.171974         1007.43         961.774 
       0.178125         946.455         893.449 
       0.184229         899.385         840.572 
        0.19034         840.267         800.778 
       0.196428         825.606         770.311 
       0.202534         804.013         744.183 
       0.208729         769.505         717.716 
       0.214876         732.802         688.513 
       0.220989         711.144          655.64 
       0.227147         670.158         619.663 
        0.23329         638.939         583.149 
       0.239377         618.189         548.847 
       0.245482         574.801         518.285 
       0.251667         564.957         492.288 
       0.257832         544.288         471.275 
       0.263955         525.996         454.271 
       0.270079         508.537         439.656 
        0.27624         502.353         425.814 
       0.282372         482.943          411.66 
        0.28843         468.601         396.692 
       0.294538         447.725         380.575 
       0.300721         442.493         363.753 
        0.30691         421.186         347.165 
       0.313033         410.798          331.79 
       0.319153          394.94         317.967 
       0.325316         384.287         305.826 
        0.33145         372.424         295.361 
       0.337538         367.381         286.212 
       0.343633          355.68         277.777 
       0.349808         344.992         269.516 
       0.355968         340.037          261.19 
       0.362074         331.631         252.733 
       0.368217         322.711         244.043 
       0.374374          311.67          235.35 
       0.380519          306.42         226.941 
       0.386598         298.732         219.088 
       0.392688         295.122         211.849 
        0.39888         287.142         205.147 
       0.405048         281.025         199.072 
       0.411186         274.926         193.491 
       0.417313          269.61         188.205 
       0.423458         264.432         183.052 
       0.429607         258.314         177.951 
       0.435692         251.094         172.907 
       0.441815         249.295         167.866 
       0.447964          244.76         162.901 
       0.454126         234.862         158.085 
       0.460267         232.196         153.517 
       0.466387         229.271         149.236 
        0.47254         224.575         145.197 
       0.478662         222.787         141.417 
       0.484765         216.474         137.851 
       0.490885         213.355         134.419 
       0.497035         210.394         131.062 
       0.503198          205.06         127.768 
       0.509342          202.42         124.547 
       0.515458         199.669           121.4 
       0.521598         196.854         118.315 
       0.527764         193.809         115.318 
       0.533884         190.843         112.462 
           0.54         187.976         109.734 
       0.546137         186.681         107.116 
       0.552299         183.399           104.6 
       0.558452         180.289         102.191 
       0.564573         177.174         99.8766 
       0.570708         174.556         97.6225 
       0.576825         172.319         95.4273 
       0.582926         169.611         93.2893 
       0.589034         167.111         91.2028 
       0.595184         165.406         89.1595 
       0.601379         163.746         87.1626 
       0.607522         159.959         85.2448 
       0.613639         159.547         83.3991 
       0.619772         156.011         81.6137 
       0.625918          154.55          79.888 
       0.632068         152.795         78.2178 
       0.638161          151.51         76.6117 
         0.6443         149.381         75.0366 
       0.650464         147.741         73.4949 
       0.656582         146.047         72.0031 
       0.662703         143.712         70.5498 
       0.668861         142.014         69.1272 
       0.675024         140.436         67.7428 
       0.681124         139.332         66.4111 
       0.687237         136.851         65.1138 
       0.693381         135.229         63.8465 
       0.699536         134.005         62.6125 
       0.705665         134.455         61.4183 
       0.711789          130.95         60.2579 
       0.717957         130.484         59.1204 
        0.72409         128.649         58.0187 
       0.730186         126.524         56.9512 
       0.736317         126.179         55.9037 
       0.742472          125.04         54.8776 
       0.748622         124.011         53.8774 
        0.75476          122.79          52.904 
       0.760888         121.064         51.9564 
       0.767043         120.106         51.0287 
       0.773185         118.835         50.1265 
       0.779291         117.603         49.2522 
       0.785407           116.8         48.3982 
       0.791564         115.491         47.5596 
       0.797719         113.963         46.7416 
       0.803834          113.47         45.9481 
       0.809972         111.778           45.17 
       0.816124         111.414         44.4081 
       0.822261         110.336         43.6655 
       0.828378         109.324         42.9421 
       0.834502         108.591         42.2344 
       0.840667         107.393         41.5381 
       0.846816         106.316         40.8595 
       0.852925         105.351         40.2006 
       0.859047         104.112         39.5549 
       0.865192         103.758         38.9216 
       0.871341         102.822         38.3018 
       0.877463         101.555         37.6985 
       0.883569         100.861         37.1099 
       0.889708         100.288         36.5309 
       0.895864         99.4044         35.9629 
       0.902008         98.6275         35.4082 
       0.908149         98.0373         34.8655 
       0.914301          96.969         34.3334 
       0.920448         96.3823         33.8129 
       0.926574         95.6533          33.305 
       0.932687          95.184         32.8087 
       0.938823         93.7348         32.3208 
       0.944975         93.2927         31.8417 
       0.951105         92.5376         31.3741 
       0.957225         91.4157         30.9167 
       0.963368          91.147         30.4669 
       0.969511         90.6816         30.0262 
       0.975621         90.1705         29.5965 
       0.981748         89.2889         29.1742 
       0.987916         88.5934         28.7575 
        0.99406         88.0961         28.3506 
        1.00019         87.1163         27.9524 
        1.00632         86.7933         27.5623 
        1.01246         85.9646          27.179 
        1.01859         84.9024         26.8037 
        1.02471         85.2489          26.436 
        1.03085         84.2742          26.074 
        1.03698         83.6197         25.7195 
        1.04314         82.8001         25.3701 
        1.04929         82.4262         25.0281 
        1.05541          81.744         24.6938 
        1.06154         81.4732         24.3648 
        1.06769         80.8779         24.0413 
        1.07382         80.5376         23.7248 
        1.07993         80.0775         23.4148 
        1.08607         79.3312          23.109 
        1.09222         78.9237         22.8084 
        1.09836         78.3702         22.5135 
        1.10449          77.868         22.2241 
        1.11063         77.2694         21.9396 
        1.11677         76.7947         21.6601 
         1.1229         76.3108          21.386 
        1.12903         75.3981         21.1165 
        1.13518         75.6016         20.8514 
        1.14131         75.0913         20.5909 
        1.14745         74.1689         20.3351 
        1.15359         73.9777         20.0836 
        1.15973         73.4292         19.8363 
        1.16584         72.9391         19.5943 
        1.17197         72.5194         19.3559 
        1.17811         72.1466         19.1208 
        1.18424         71.4801         18.8903 
        1.19038         71.2047          18.663 
        1.19652          70.886         18.4394 
        1.20267         70.3181         18.2196 
        1.20881         69.9219         18.0034 
        1.21495         69.3824         17.7911 
        1.22108         68.9969         17.5822 
         1.2272         68.4414         17.3772 
        1.23334         68.1825          17.175 
        1.23949         67.9387         16.9755 
        1.24562         67.5577         16.7798 
        1.25174         67.1688         16.5874 
        1.25789         66.8009         16.3975 
        1.26402         66.2959          16.211 
        1.27014         65.7302         16.0278 
        1.27628         65.5809         15.8468 
        1.28244         64.9799         15.6684 
        1.28858         64.7263         15.4929 
        1.29471         64.5219         15.3205 
        1.30084         64.1045         15.1509 
        1.30697         63.6034         14.9837 
        1.31312         63.2387         14.8187 
        1.31925         63.1056         14.6567 
        1.32537         62.7258         14.4973 
        1.33151         62.2022         14.3397 
        1.33765         62.0194         14.1846 
        1.34378         61.6457          14.032 
        1.34992         61.1305         13.8816 
        1.35606         60.8475         13.7331 
         1.3622         60.4314          13.587 
        1.36833         60.2768         13.4434 
        1.37445         60.0239          13.302 
        1.38059         59.5811         13.1621 
        1.38675         59.2349          13.024 
        1.39288         58.9348         12.8883 
        1.39901         58.6677         12.7547 
        1.40515         58.3741         12.6227 
         1.4113         58.1367         12.4926 
        1.41742          57.718         12.3648 
        1.42355         57.4327         12.2385 
         1.4297         57.0869         12.1137 
        1.43585         56.8609         11.9906 
        1.44198         56.6017         11.8698 
        1.44809         56.2645         11.7508 
        1.45423         56.0682          11.633 
        1.46036         55.7365         11.5171 
        1.46649         55.4053         11.4027 
        1.47263         55.1229         11.2897 
        1.47877         54.9603         11.1784 
        1.48491         54.6961         11.0683 
        1.49104         54.3002           10.96 
        1.49718         53.8828         10.8531 
        1.50333         53.7504         10.7474 
        1.50947         53.4422         10.6433 
         1.5156         53.1696         10.5408 
        1.52172         52.9527         10.4396 
        1.52787         52.8526         10.3396 
          1.534         52.4717          10.241 
        1.54013         52.1556         10.1438 
        1.54627         52.0199         10.0476 
        1.55241          51.676         9.95273 
        1.55855         51.3488         9.85919 
        1.56467         50.9699         9.76711 
         1.5708         50.9492         9.67594 
        1.57695          50.647          9.5858 
        1.58308         50.4769         9.49702 
        1.58922         50.3447          9.4093 
        1.59535         50.0262         9.32273 
         1.6015         49.6548         9.23712 
        1.60764         49.5334         9.15263 
        1.61376         49.2596         9.06943 
        1.61989         48.8529          8.9872 
        1.62604         48.7991          8.9058 
        1.63218         48.5861         8.82547 
        1.63831         48.3086         8.74631 
        1.64444         48.1211         8.66809 
        1.65059         47.6999         8.59065 
        1.65673         47.5376         8.51423 
        1.66285         47.3682         8.43896 
        1.66898         47.0696         8.36457 
        1.67512         46.8665         8.29094 
        1.68127          46.577         8.21813 
         1.6874         46.5015         8.14635 
        1.69353         46.1738         8.07547 
        1.69967         46.0087         8.00527 
        1.70581         45.9092         7.93594 
        1.71193         45.5793         7.86769 
        1.71806         45.2836         7.80009 
        1.72421         45.1062         7.73316 
        1.73035         44.8712         7.66709 
        1.73649         44.6335          7.6018 
        1.74262         44.4844         7.53733 
        1.74876         44.4375         7.47356 
        1.75489         44.0669         7.41067 
        1.76101          43.899         7.34851 
        1.76715         43.6743         7.28699 
        1.77329         43.4467         7.22609 
        1.77943         43.3419         7.16586 
        1.78557         43.1275         7.10641 
        1.79171         42.8473         7.04762 
        1.79785         42.6574         6.98949 
        1.80399         42.5134         6.93202 
        1.81012          42.352         6.87528 
        1.81625         42.0242         6.81919 
        1.82239         41.9095         6.76365 
        1.82853          41.587         6.70875 
        1.83466         41.5024         6.65452 
        1.84078         41.1767         6.60094 
        1.84692         41.0801         6.54787 
        1.85306         40.8872         6.49531 
         1.8592         40.7084         6.44342 
        1.86533         40.4659         6.39212 
        1.87147          40.344         6.34132 
        1.87761         40.2315         6.29105 
        1.88375         39.9954         6.24138 
        1.88988         39.9198         6.19231 
        1.89601           39.63         6.14373 
        1.90215         39.5034         6.09564 
        1.90829         39.4009         6.04808 
        1.91442          39.114         6.00103 
        1.92056         39.0184         5.95452 
         1.9267         38.7009         5.90846 
        1.93284         38.5052         5.86285 
        1.93897         38.4506         5.81782 
        1.94509         38.2158         5.77335 
        1.95123         38.0772         5.72923 
        1.95737         37.8727         5.68555 
        1.96349         37.7031         5.64243 
        1.96964         37.4968         5.59963 
        1.97578         37.4229         5.55726 
        1.98192         37.1926         5.51541 
        1.98805         37.0774         5.47399 
        1.99419         36.8129         5.43299 
        2.00033         36.6513          5.3924 
        2.00647         36.5387         5.35222 
         2.0126         36.3584         5.31253 
        2.01874         36.2433         5.27318 
        2.02488         36.1406         5.23419 
        2.03101         35.8787         5.19566 
        2.03714         35.7102         5.15756 
        2.04328         35.5434          5.1198 
        2.04941         35.4208         5.08245 
        2.05554         35.2275          5.0455 
        2.06167         35.1067         5.00886 
        2.06781         34.9441         4.97259 
        2.07396         34.7608         4.93662 
        2.08009         34.6624         4.90106 
        2.08622         34.4946          4.8659 
        2.09237         34.3451         4.83102 
        2.09851         34.1485         4.79646 
        2.10464         34.0923         4.76231 
        2.11077         33.8354         4.72853 
        2.11691          33.771           4.695 
        2.12305         33.5767         4.66179 
        2.12918         33.5376         4.62898 
        2.13531         33.3493         4.59649 
        2.14145         33.2341         4.56423 
         2.1476         32.9935         4.53225 
        2.15372         32.8612         4.50073 
        2.15985         32.7615         4.46948 
        2.16599         32.6564         4.43844 
        2.17213         32.5663         4.40773 
        2.17827         32.2449         4.37731 
         2.1844         32.1604         4.34721 
        2.19054         32.0163         4.31738 
        2.19666         31.8947         4.28787 
         2.2028         31.7937         4.25861 
        2.20893         31.6723         4.22961 
        2.21508         31.5067         4.20085 
        2.22122         31.3253         4.17234 
        2.22736         31.2348         4.14416 
        2.23349         31.1071         4.11625 
        2.23962         30.9526         4.08858 
        2.24577         30.7797         4.06113 
         2.2519         30.6907         4.03398 
        2.25802         30.5737         4.00712 
        2.26417         30.4433         3.98043 
        2.27031         30.3477         3.95395 
        2.27644          30.174          3.9278 
        2.28257         30.0732         3.90188 
        2.28872         29.9054         3.87615 
        2.29486         29.8184         3.85065 
        2.30099         29.7064         3.82544 
        2.30712         29.6019         3.80044 
        2.31326          29.476         3.77562 
         2.3194         29.3295         3.75103 
        2.32553         29.1798         3.72671 
        2.33166         29.0404         3.70261 
         2.3378         28.9372         3.67869 
        2.34394         28.8063         3.65498 
        2.35007         28.6657         3.63151 
        2.35619         28.6053         3.60827 
        2.36233         28.5027         3.58518 
        2.36848         28.2866         3.56225 
        2.37462         28.2112         3.53956 
        2.38075         28.0878          3.5171 
        2.38689         28.0006         3.49481 
        2.39303         27.8538         3.47271 
        2.39916         27.7199         3.45083 
        2.40529         27.5967         3.42914 
        2.41143         27.5081         3.40762 
        2.41757         27.3799         3.38628 
         2.4237         27.2723         3.36515 
        2.42983         27.1731         3.34421 
        2.43598         27.0561         3.32339 
        2.44211         26.9426         3.30278 
        2.44823         26.7867          3.2824 
        2.45437         26.7197         3.26213 
        2.46052         26.5933         3.24201 
        2.46665         26.5165          3.2221 
        2.47279         26.3846         3.20236 
        2.47892         26.2495         3.18277 
        2.48507         26.1554         3.16333 
         2.4912          26.081         3.14409 
