# k  (h/Mpc)    P(k)  (Mpc/h)^3    P_linear(k)  (Mpc/h)^3
     0.00783031         11292.2         11389.2 
       0.013688         13309.1         13638.9 
       0.019231         13244.3         13427.6 
      0.0249154         12066.9         12036.1 
      0.0312784         9991.73         10055.1 
      0.0375637         8194.94         8293.45 
      0.0433917          7059.7         7066.57 
      0.0492413         6187.81         6232.42 
      0.0555754         5663.73         5659.21 
      0.0619321         5122.84         5261.33 
       0.067871         4852.65         4915.49 
      0.0738098         4491.54         4518.38 
      0.0800417            4031         4033.94 
      0.0862327         3518.07          3526.5 
      0.0921407          3098.8         3076.65 
      0.0982031         2764.68         2697.03 
       0.104506         2443.66         2410.93 
       0.110769         2271.56         2226.68 
       0.116806         2187.22         2114.85 
       0.122832         2073.19         2032.17 
       0.129052          1977.6         1943.46 
       0.135211         1899.34         1831.33 
       0.141259         1742.53         1694.71 
       0.147318         1585.32         1543.09 
       0.153489         1459.78         1392.26 
       0.159709         1369.03         1261.15 
       0.165845         1242.92          1161.6 
       0.171974         1209.41         1091.89 
       0.178125         1164.22         1044.89 
       0.184229         1088.95         1010.36 
        0.19034         1070.14         977.093 
       0.196428         1034.88          937.47 
       0.202534         961.687         888.365 
       0.208729         936.136         831.131 
       0.214876         886.068         772.394 
       0.220989         824.974         718.019 
       0.227147         799.352         671.686 
        0.23329         765.366         635.545 
       0.239377         754.306         608.697 
       0.245482         716.388          587.91 
       0.251667         690.124          569.45 
       0.257832         681.285         550.441 
       0.263955          644.52         529.076 
       0.270079         620.366          504.94 
        0.27624         592.994         479.085 
       0.282372         578.679         453.607 
        0.28843         571.154         430.455 
       0.294538         540.905         410.264 
       0.300721         524.988         393.313 
        0.30691         515.199         379.341 
       0.313033         491.919         367.382 
       0.319153         484.396         356.153 
       0.325316          475.21         344.614 
        0.33145         463.294          332.46 
       0.337538         445.913         319.751 
       0.343633         432.758         306.829 
       0.349808         421.239          294.13 
       0.355968         412.836         282.369 
       0.362074         398.514         271.955 
       0.368217         395.458           262.7 
       0.374374         387.323         254.483 
       0.380519         371.439         246.953 
       0.386598         367.027         239.797 
       0.392688         357.538         232.676 
        0.39888         348.547         225.316 
       0.405048         341.237         217.925 
       0.411186          339.66         210.652 
       0.417313         334.171         203.635 
       0.423458          324.73         197.016 
       0.429607          315.58           190.9 
       0.435692         310.688         185.316 
       0.441815         304.887         180.111 
       0.447964         297.672         175.186 
       0.454126         293.899          170.42 
       0.460267         289.266         165.753 
       0.466387         283.128         161.166 
        0.47254         279.473         156.611 
       0.478662         272.505         152.171 
       0.484765         268.925           147.9 
       0.490885         265.554         143.824 
       0.497035         260.734         139.943 
       0.503198         259.383         136.261 
       0.509342         252.851         132.783 
       0.515458         248.831         129.476 
       0.521598         243.976         126.267 
       0.527764         241.066          123.12 
       0.533884         239.589         120.063 
           0.54         235.271         117.084 
       0.546137         229.964         114.178 
       0.552299         228.494         111.353 
       0.558452         224.576         108.633 
       0.564573         223.156         106.033 
       0.570708         218.415         103.539 
       0.576825         215.085         101.153 
       0.582926         213.142         98.8576 
       0.589034         209.744         96.6287 
       0.595184          208.19         94.4427 
       0.601379         204.697         92.2989 
       0.607522         200.216         90.2319 
       0.613639         199.249         88.2333 
       0.619772         197.736         86.2902 
       0.625918         195.214         84.4033 
       0.632068         191.551         82.5743 
       0.638161         190.447         80.8192 
         0.6443         188.345          79.107 
       0.650464         185.136         77.4424 
       0.656582          183.61         75.8403 
       0.662703         182.324         74.2837 
       0.668861           178.6          72.761 
       0.675024         178.269         71.2771 
       0.681124         175.779         69.8466 
       0.687237         174.141         68.4506 
       0.693381         171.592         67.0854 
       0.699536          170.35         65.7554 
       0.705665         168.566         64.4687 
       0.711789         166.456         63.2198 
       0.717957         164.827         61.9973 
        0.72409         162.769         60.8152 
       0.730186         163.354         59.6717 
       0.736317         160.748         58.5517 
       0.742472          158.51         57.4559 
       0.748622         156.297         56.3884 
        0.75476         156.788         55.3497 
       0.760888         154.702         54.3384 
       0.767043         152.157          53.348 
       0.773185         150.843         52.3845 
       0.779291          149.19         51.4503 
       0.785407         148.374         50.5379 
       0.791564         147.043         49.6424 
       0.797719         144.692         48.7693 
       0.803834         145.232         47.9231 
       0.809972          143.63         47.0942 
       0.816124         141.206         46.2834 
       0.822261         140.372         45.4939 
       0.828378         139.957         44.7253 
       0.834502         138.233         43.9739 
       0.840667         137.828         43.2349 
       0.846816         135.735          42.515 
       0.852925         134.843         41.8161 
       0.859047          133.62         41.1314 
       0.865192          133.04         40.4599 
       0.871341         131.596          39.803 
       0.877463         130.364         39.1638 
       0.883569         130.329         38.5402 
       0.889708         129.007         37.9271 
       0.895864         127.764         37.3259 
       0.902008         126.458          36.739 
       0.908149         125.138         36.1651 
       0.914301         124.685         35.6026 
       0.920448         124.525         35.0527 
       0.926574         122.362         34.5163 
       0.932687         122.308         33.9924 
       0.938823         121.366         33.4775 
       0.944975         120.417         32.9721 
       0.951105         119.251          32.479 
       0.957225         118.692         31.9969 
       0.963368         117.653         31.5229 
       0.969511         116.722         31.0586 
       0.975621          115.38         30.6062 
       0.981748         114.878         30.1616 
       0.987916         114.191         29.7231 
        0.99406         113.618          29.295 
        1.00019         112.693         28.8763 
        1.00632         111.759         28.4661 
        1.01246         111.127         28.0632 
        1.01859         110.453         27.6689 
        1.02471         109.705         27.2826 
        1.03085         108.749         26.9024 
        1.03698         107.926         26.5303 
        1.04314         107.508         26.1636 
        1.04929         107.026         25.8048 
        1.05541         106.233         25.4541 
        1.06154         105.279         25.1091 
        1.06769         104.712         24.7701 
        1.07382         104.112         24.4384 
        1.07993         103.427         24.1135 
        1.08607         102.831         23.7932 
        1.09222          102.09         23.4785 
        1.09836         101.364         23.1698 
        1.10449         100.776          22.867 
        1.11063         100.121         22.5694 
        1.11677         99.5489         22.2771 
         1.1229          98.645         21.9906 
        1.12903         98.1235         21.7088 
        1.13518         97.4651         21.4318 
        1.14131         97.0198         21.1598 
        1.14745         96.5608         20.8927 
        1.15359         95.5138         20.6301 
        1.15973         95.2424         20.3719 
        1.16584         94.6139         20.1194 
        1.17197         94.1786         19.8707 
        1.17811         93.3604         19.6256 
        1.18424         92.8565         19.3852 
        1.19038         92.4761         19.1483 
        1.19652         91.9388         18.9153 
        1.20267          91.305         18.6863 
        1.20881         90.6329         18.4611 
        1.21495         90.2475           18.24 
        1.22108         89.8102         18.0225 
         1.2272         89.1436         17.8091 
        1.23334         88.8991         17.5987 
        1.23949         88.2991         17.3912 
        1.24562         87.5763         17.1876 
        1.25174         87.3642         16.9875 
        1.25789         86.6812         16.7901 
        1.26402         86.3542         16.5961 
        1.27014         85.6998         16.4057 
        1.27628         85.1861         16.2177 
        1.28244         85.0532         16.0323 
        1.28858         84.2642           15.85 
        1.29471         83.8232          15.671 
        1.30084         83.1837         15.4949 
        1.30697         82.9818         15.3212 
        1.31312          82.467           15.15 
        1.31925         81.8628         14.9819 
        1.32537         81.5296         14.8166 
        1.33151         81.3956         14.6532 
        1.33765         80.7023         14.4923 
        1.34378         80.2996         14.3341 
        1.34992         80.0516         14.1782 
        1.35606         79.5101         14.0243 
         1.3622         79.3059          13.873 
        1.36833         78.5717         13.7243 
        1.37445         78.2512         13.5778 
        1.38059         77.8926          13.433 
        1.38675         77.2559           13.29 
        1.39288          76.918         13.1496 
        1.39901         76.4918         13.0113 
        1.40515         76.1173         12.8747 
         1.4113         75.7449         12.7401 
        1.41742         75.3287          12.608 
        1.42355         75.1036         12.4775 
         1.4297         74.5646         12.3484 
        1.43585         74.2631         12.2212 
        1.44198         73.6924         12.0963 
        1.44809           73.19         11.9734 
        1.45423         73.2511         11.8517 
        1.46036          72.647          11.732 
        1.46649         72.1436         11.6138 
        1.47263         71.7999         11.4972 
        1.47877         71.5206         11.3822 
        1.48491         71.0908         11.2687 
        1.49104         70.5898         11.1569 
        1.49718         70.3591         11.0465 
        1.50333         70.1019         10.9375 
        1.50947         69.7749         10.8302 
         1.5156         69.5517         10.7244 
        1.52172         68.9043         10.6201 
        1.52787          68.613          10.517 
          1.534         68.2612         10.4153 
        1.54013          68.098         10.3151 
        1.54627          67.476         10.2161 
        1.55241         67.4313         10.1183 
        1.55855         66.7755         10.0219 
        1.56467          66.323         9.92707 
         1.5708         66.1641         9.83319 
        1.57695         65.8527         9.74038 
        1.58308         65.5349         9.64898 
        1.58922         65.3273         9.55869 
        1.59535         65.1683         9.46958 
         1.6015         64.7205         9.38149 
        1.60764         64.3596         9.29457 
        1.61376           64.11         9.20898 
        1.61989         63.5595         9.12441 
        1.62604         63.4399          9.0407 
        1.63218         63.1359          8.9581 
        1.63831         62.8603         8.87672 
        1.64444          62.585         8.79632 
        1.65059         62.1578         8.71672 
        1.65673         61.9248          8.6382 
        1.66285         61.4961         8.56086 
        1.66898         61.1197         8.48444 
        1.67512         60.8658         8.40881 
        1.68127         60.7626         8.33403 
         1.6874         60.3526         8.26032 
        1.69353         60.0217         8.18755 
        1.69967         59.8224         8.11549 
        1.70581         59.4981         8.04432 
        1.71193         59.1573         7.97428 
        1.71806         58.9799         7.90492 
        1.72421         58.7138         7.83624 
        1.73035         58.3938         7.76846 
        1.73649          58.068          7.7015 
        1.74262          57.702         7.63538 
        1.74876         57.5949         7.56999 
        1.75489         57.2771          7.5055 
        1.76101         57.0105         7.44178 
        1.76715         56.6998         7.37872 
        1.77329         56.3923          7.3163 
        1.77943         56.3318         7.25458 
        1.78557         55.9858         7.19366 
        1.79171         55.6121         7.13343 
        1.79785         55.3885         7.07388 
        1.80399         55.2047         7.01502 
        1.81012         54.8733          6.9569 
        1.81625         54.6314         6.89947 
        1.82239         54.3458          6.8426 
        1.82853         54.0856          6.7864 
        1.83466         53.8293         6.73089 
        1.84078           53.57         6.67605 
        1.84692         53.5332         6.62174 
        1.85306         53.1715         6.56796 
         1.8592         52.8864         6.51486 
        1.86533         52.6509         6.46239 
        1.87147           52.35         6.41042 
        1.87761         52.1077         6.35901 
        1.88375         51.9411         6.30822 
        1.88988         51.5759         6.25804 
        1.89601         51.4851         6.20837 
        1.90215         51.1158         6.15921 
        1.90829         50.9346          6.1106 
        1.91442         50.6177         6.06251 
        1.92056         50.5355         6.01498 
         1.9267          50.244         5.96791 
        1.93284         50.0497         5.92131 
        1.93897         49.6919          5.8753 
        1.94509         49.5047         5.82988 
        1.95123         49.3091         5.78482 
        1.95737          49.194          5.7402 
        1.96349         48.9195         5.69617 
        1.96964         48.6403         5.65248 
        1.97578         48.3825         5.60922 
        1.98192         48.1311          5.5665 
        1.98805         47.8261         5.52422 
        1.99419         47.7855         5.48238 
        2.00033         47.5154         5.44095 
        2.00647         47.2797         5.39996 
         2.0126         47.0995         5.35947 
        2.01874         47.0179         5.31932 
        2.02488         46.6984         5.27955 
        2.03101         46.5422         5.24026 
        2.03714         46.2658         5.20141 
        2.04328         46.0809          5.1629 
        2.04941         45.6994         5.12482 
        2.05554         45.6472         5.08714 
        2.06167         45.4807          5.0498 
        2.06781         45.2634         5.01282 
        2.07396         44.9639         4.97616 
        2.08009         44.7945         4.93993 
        2.08622         44.6482          4.9041 
        2.09237         44.4093         4.86855 
        2.09851         44.1325         4.83335 
        2.10464         43.9552         4.79856 
        2.11077         43.8227         4.76415 
        2.11691         43.5983            4.73 
        2.12305         43.3951         4.69619 
        2.12918         43.1706         4.66278 
        2.13531          42.932          4.6297 
        2.14145         42.7988         4.59686 
         2.1476         42.7601          4.5643 
        2.15372         42.4982         4.53222 
        2.15985         42.2078         4.50042 
        2.16599         42.0243         4.46883 
        2.17213         41.8818         4.43758 
        2.17827         41.7195         4.40663 
         2.1844         41.3996           4.376 
        2.19054         41.4318         4.34566 
        2.19666         41.1448         4.31564 
         2.2028         40.8795         4.28588 
        2.20893         40.7575         4.25639 
        2.21508         40.5332         4.22714 
        2.22122         40.3484         4.19815 
        2.22736         40.1541          4.1695 
        2.23349         40.0329         4.14112 
        2.23962         39.8771         4.11299 
        2.24577         39.6653         4.08509 
         2.2519         39.4614         4.05749 
        2.25802         39.2795         4.03019 
        2.26417         39.0782         4.00307 
        2.27031         38.9537         3.97617 
        2.27644         38.8506         3.94959 
        2.28257         38.5717         3.92326 
        2.28872         38.5124         3.89712 
        2.29486         38.3068         3.87122 
        2.30099         38.0849         3.84561 
        2.30712          37.941         3.82022 
        2.31326         37.7994         3.79502 
         2.3194         37.6226         3.77005 
        2.32553         37.4607         3.74536 
        2.33166          37.273         3.72089 
         2.3378         37.0641         3.69661 
        2.34394         36.9483         3.67254 
        2.35007         36.8159         3.64872 
        2.35619         36.6354         3.62513 
        2.36233         36.4289          3.6017 
        2.36848         36.3571         3.57843 
        2.37462         36.0666         3.55541 
        2.38075         36.0286         3.53261 
        2.38689         35.8392            3.51 
        2.39303         35.6921         3.48758 
        2.39916         35.5012         3.46539 
        2.40529          35.387         3.44339 
        2.41143         35.2531         3.42156 
        2.41757         35.1217         3.39992 
         2.4237         34.9358          3.3785 
        2.42983         34.7612         3.35726 
        2.43598         34.6316         3.33615 
        2.44211         34.4151         3.31526 
        2.44823         34.2854          3.2946 
        2.45437         34.1701         3.27405 
        2.46052         33.9605         3.25366 
        2.46665         33.8867         3.23348 
        2.47279         33.6131         3.21348 
        2.47892         33.5803         3.19363 
        2.48507         33.4642         3.17393 
         2.4912         33.2196         3.15444 
