# k  (h/Mpc)    P(k)  (Mpc/h)^3    P_linear(k)  (Mpc/h)^3
     0.00783031         1755.31         1777.21 
       0.013688         2120.72         2123.41 
       0.019231         2076.72         2076.26 
      0.0249154         1834.67         1846.32 
      0.0312784         1531.67         1532.17 
      0.0375637         1267.27         1262.25 
      0.0433917         1079.55         1080.47 
      0.0492413         962.186         960.481 
      0.0555754         874.086         878.623 
      0.0619321         822.374         818.223 
       0.067871         757.526         760.635 
      0.0738098         689.251         692.407 
      0.0800417         606.871         611.059 
      0.0862327         529.081         529.859 
      0.0921407          463.35         461.844 
      0.0982031         407.939          407.83 
       0.104506         373.589          369.63 
       0.110769         349.039          346.13 
       0.116806         331.702         331.209 
       0.122832         319.566         317.862 
       0.129052         300.558          301.07 
       0.135211         279.405         279.716 
       0.141259         257.162         255.425 
       0.147318         233.828          230.73 
       0.153489         210.791         208.312 
       0.159709         193.617         190.523 
       0.165845         182.663         178.086 
       0.171974         172.551         169.764 
       0.178125         166.667         163.762 
       0.184229         161.271         158.252 
        0.19034         152.764         151.771 
       0.196428         146.271         143.795 
       0.202534         138.527         134.585 
       0.208729         128.333          124.91 
       0.214876         118.949             116 
       0.220989         112.764         108.541 
       0.227147         105.886         102.691 
        0.23329         101.487         98.3139 
       0.239377         98.4243         94.9139 
       0.245482         94.1037         91.8454 
       0.251667         91.8052         88.5737 
       0.257832         88.0679         84.8891 
       0.263955         84.0677         80.8324 
       0.270079         79.9865         76.6027 
        0.27624         76.7364         72.4977 
       0.282372         73.1475         68.8228 
        0.28843         69.6906         65.7337 
       0.294538         66.9165         63.1531 
       0.300721         65.2594         60.9556 
        0.30691          62.645         58.9859 
       0.313033         60.7118         57.0815 
       0.319153         57.9432         55.1094 
       0.325316         56.8061         53.0178 
        0.33145         54.4128         50.8803 
       0.337538         52.6105         48.7877 
       0.343633         50.4505          46.812 
       0.349808         48.8042         44.9992 
       0.355968         47.2834         43.3923 
       0.362074         45.7322          41.981 
       0.368217         44.3698         40.6847 
       0.374374         42.9775         39.4534 
       0.380519         41.8979         38.2438 
       0.386598         40.7005          37.038 
       0.392688         39.6993         35.8277 
        0.39888         38.3771         34.6095 
       0.405048         37.3196          33.438 
       0.411186         36.2915          32.341 
       0.417313         35.0588         31.3229 
       0.423458         34.1203         30.3799 
       0.429607         33.1677          29.504 
       0.435692         32.1648         28.6832 
       0.441815         31.5249         27.8854 
       0.447964          30.927         27.1032 
       0.454126         29.7166          26.331 
       0.460267         29.1267         25.5742 
       0.466387         28.2142         24.8413 
        0.47254          27.694         24.1337 
       0.478662         27.1537         23.4626 
       0.484765         26.3072         22.8278 
       0.490885         25.6871         22.2259 
       0.497035         25.3256         21.6502 
       0.503198         24.6267         21.0958 
       0.509342         23.9996         20.5596 
       0.515458         23.4396         20.0405 
       0.521598         22.9979         19.5332 
       0.527764          22.457         19.0372 
       0.533884         22.0593         18.5595 
           0.54         21.5398         18.0988 
       0.546137         21.1519         17.6549 
       0.552299         20.7661         17.2279 
       0.558452          20.121         16.8184 
       0.564573         19.8195         16.4253 
       0.570708         19.4473          16.044 
       0.576825         18.9517         15.6753 
       0.582926         18.5879         15.3185 
       0.589034         18.0796         14.9714 
       0.595184         17.8246         14.6319 
       0.601379         17.4417            14.3 
       0.607522         17.1502          13.981 
       0.613639         16.9338         13.6735 
       0.619772         16.4769         13.3756 
       0.625918         16.3529         13.0871 
       0.632068         16.0822         12.8075 
       0.638161         15.6935         12.5388 
         0.6443         15.3712         12.2756 
       0.650464          15.069         12.0186 
       0.656582         14.9576         11.7704 
       0.662703         14.6654         11.5289 
       0.668861         14.3788         11.2928 
       0.675024         14.1016         11.0633 
       0.681124         13.8549         10.8428 
       0.687237         13.6259         10.6282 
       0.693381         13.4612         10.4186 
       0.699536          13.098         10.2144 
       0.705665         12.9896         10.0166 
       0.711789         12.7345         9.82423 
       0.717957         12.5295          9.6355 
        0.72409         12.3264         9.45273 
       0.730186         12.1579         9.27578 
       0.736317         12.0123         9.10241 
       0.742472         11.8115         8.93287 
       0.748622         11.6432         8.76787 
        0.75476         11.4068         8.60748 
       0.760888         11.2477         8.45142 
       0.767043         11.1065         8.29867 
       0.773185         10.8871         8.15007 
       0.779291          10.807           8.006 
       0.785407         10.6496         7.86523 
       0.791564         10.4684         7.72697 
       0.797719         10.2533         7.59212 
       0.803834         10.2083         7.46135 
       0.809972         10.1009          7.3332 
       0.816124         9.87324          7.2078 
       0.822261         9.73445         7.08568 
       0.828378         9.62156         6.96679 
       0.834502         9.53641         6.85053 
       0.840667         9.36813         6.73621 
       0.846816         9.19783         6.62484 
       0.852925         9.11355         6.51671 
       0.859047         8.99809         6.41079 
       0.865192          8.9136         6.30689 
       0.871341         8.81809         6.20525 
       0.877463         8.66852         6.10634 
       0.883569         8.53553         6.00984 
       0.889708          8.3929         5.91496 
       0.895864         8.31518         5.82189 
       0.902008          8.2394         5.73104 
       0.908149         8.14695         5.64219 
       0.914301         8.04305          5.5551 
       0.920448         7.91189         5.46994 
       0.926574         7.81846         5.38688 
       0.932687         7.73448         5.30573 
       0.938823         7.63035         5.22597 
       0.944975         7.53233         5.14768 
       0.951105         7.45756         5.07128 
       0.957225         7.41304         4.99658 
       0.963368         7.31541         4.92313 
       0.969511         7.23106         4.85117 
       0.975621         7.14125         4.78105 
       0.981748         7.05854         4.71213 
       0.987916         6.99763         4.64415 
        0.99406         6.88435         4.57778 
        1.00019          6.7818         4.51284 
        1.00632         6.75977         4.44922 
        1.01246         6.67802         4.38675 
        1.01859         6.57817         4.32558 
        1.02471         6.52906         4.26566 
        1.03085         6.45451         4.20667 
        1.03698          6.3624         4.14893 
        1.04314         6.31665         4.09203 
        1.04929         6.23685         4.03634 
        1.05541           6.162         3.98191 
        1.06154         6.11367         3.92837 
        1.06769         6.08175         3.87572 
        1.07382         5.98211         3.82423 
        1.07993         5.91979         3.77379 
        1.08607            5.88         3.72406 
        1.09222         5.81779         3.67518 
        1.09836         5.75091         3.62724 
        1.10449         5.69797         3.58021 
        1.11063          5.6343         3.53397 
        1.11677         5.59804         3.48857 
         1.1229         5.54956         3.44405 
        1.12903         5.47836         3.40027 
        1.13518         5.41612         3.35723 
        1.14131         5.36265         3.31495 
        1.14745         5.30235         3.27343 
        1.15359         5.27133         3.23262 
        1.15973         5.21324         3.19249 
        1.16584         5.14825         3.15323 
        1.17197         5.10727         3.11457 
        1.17811         5.08131         3.07645 
        1.18424         5.02893         3.03907 
        1.19038         5.00102         3.00222 
        1.19652         4.94088         2.96599 
        1.20267         4.88835         2.93036 
        1.20881         4.86354         2.89532 
        1.21495         4.81743         2.86092 
        1.22108         4.76236         2.82709 
         1.2272         4.73099         2.79388 
        1.23334         4.67211         2.76113 
        1.23949         4.63044         2.72883 
        1.24562         4.60458         2.69714 
        1.25174         4.55777           2.666 
        1.25789         4.52411         2.63527 
        1.26402         4.49196         2.60507 
        1.27014         4.44867         2.57542 
        1.27628          4.4061         2.54614 
        1.28244          4.3554         2.51727 
        1.28858         4.34626         2.48888 
        1.29471         4.29163         2.46099 
        1.30084         4.25054         2.43356 
        1.30697         4.24834         2.40651 
        1.31312         4.17032         2.37983 
        1.31925         4.14581         2.35364 
        1.32537         4.11225         2.32788 
        1.33151         4.09714         2.30241 
        1.33765         4.04416         2.27733 
        1.34378         4.01848         2.25269 
        1.34992         3.99549         2.22839 
        1.35606          3.9448         2.20439 
         1.3622         3.92826          2.1808 
        1.36833         3.89272         2.15761 
        1.37445         3.86296         2.13477 
        1.38059         3.85035         2.11219 
        1.38675         3.81705         2.08988 
        1.39288         3.78787         2.06799 
        1.39901         3.74192         2.04642 
        1.40515         3.71963         2.02512 
         1.4113         3.69387         2.00412 
        1.41742         3.66741         1.98351 
        1.42355         3.63419         1.96314 
         1.4297         3.60946         1.94301 
        1.43585         3.59185         1.92316 
        1.44198         3.57138         1.90367 
        1.44809         3.53436         1.88448 
        1.45423         3.50565         1.86549 
        1.46036         3.47533         1.84679 
        1.46649         3.45492         1.82835 
        1.47263         3.42514         1.81014 
        1.47877          3.3996         1.79219 
        1.48491         3.37826         1.77446 
        1.49104         3.35695           1.757 
        1.49718         3.33302         1.73977 
        1.50333         3.31399         1.72274 
        1.50947         3.28391         1.70597 
         1.5156          3.2628         1.68945 
        1.52172         3.24268         1.67315 
        1.52787         3.22269         1.65704 
          1.534         3.19293         1.64115 
        1.54013         3.17849         1.62549 
        1.54627         3.14855         1.61001 
        1.55241         3.12597         1.59473 
        1.55855         3.11272         1.57967 
        1.56467         3.09136         1.56484 
         1.5708         3.06954         1.55017 
        1.57695         3.04361         1.53566 
        1.58308         3.01925         1.52137 
        1.58922         3.01175         1.50725 
        1.59535         2.99132         1.49332 
         1.6015         2.96593         1.47955 
        1.60764          2.9474         1.46595 
        1.61376         2.93172         1.45257 
        1.61989         2.91069         1.43934 
        1.62604         2.88998         1.42625 
        1.63218         2.88225         1.41332 
        1.63831         2.85616         1.40059 
        1.64444         2.83965         1.38801 
        1.65059         2.81391         1.37556 
        1.65673         2.80772         1.36327 
        1.66285         2.78071         1.35117 
        1.66898         2.76656         1.33921 
        1.67512         2.74561         1.32738 
        1.68127         2.73008         1.31567 
         1.6874         2.72171         1.30413 
        1.69353         2.69106         1.29274 
        1.69967          2.6813         1.28146 
        1.70581         2.66886         1.27032 
        1.71193         2.64875         1.25935 
        1.71806         2.63647         1.24849 
        1.72421         2.61918         1.23773 
        1.73035         2.60552         1.22712 
        1.73649         2.58706         1.21663 
        1.74262         2.57005         1.20627 
        1.74876         2.56115         1.19603 
        1.75489         2.54277         1.18592 
        1.76101         2.52226         1.17594 
        1.76715         2.51501         1.16606 
        1.77329         2.50241         1.15628 
        1.77943         2.47614         1.14661 
        1.78557         2.46792         1.13706 
        1.79171         2.45703         1.12762 
        1.79785          2.4394         1.11829 
        1.80399          2.4252         1.10906 
        1.81012         2.41275         1.09995 
        1.81625         2.40006         1.09095 
        1.82239         2.38464         1.08203 
        1.82853         2.36683         1.07322 
        1.83466          2.3608         1.06452 
        1.84078         2.34899         1.05592 
        1.84692         2.33735          1.0474 
        1.85306         2.31718         1.03897 
         1.8592         2.30278         1.03064 
        1.86533          2.2915         1.02241 
        1.87147         2.28371         1.01426 
        1.87761         2.26755         1.00619 
        1.88375         2.25546        0.998226 
        1.88988         2.24405        0.990353 
        1.89601         2.23002        0.982561 
        1.90215         2.21578        0.974847 
        1.90829         2.20185         0.96722 
        1.91442         2.19631        0.959673 
        1.92056         2.18046        0.952214 
         1.9267         2.17006        0.944827 
        1.93284         2.16256        0.937514 
        1.93897         2.15046        0.930292 
        1.94509         2.13662        0.923162 
        1.95123          2.1241        0.916089 
        1.95737         2.11001        0.909085 
        1.96349          2.1048        0.902172 
        1.96964         2.09689         0.89531 
        1.97578         2.07811        0.888518 
        1.98192         2.07153        0.881809 
        1.98805         2.06153         0.87517 
        1.99419         2.05165        0.868598 
        2.00033         2.04346        0.862091 
        2.00647         2.02955        0.855652 
         2.0126         2.02312         0.84929 
        2.01874         2.00522        0.842983 
        2.02488         2.00029        0.836734 
        2.03101         1.98414        0.830561 
        2.03714         1.97733        0.824456 
        2.04328         1.96795        0.818405 
        2.04941         1.95325         0.81242 
        2.05554         1.94858          0.8065 
        2.06167         1.94002         0.80063 
        2.06781         1.93108        0.794818 
        2.07396         1.92211        0.789056 
        2.08009           1.912        0.783361 
        2.08622         1.90117        0.777728 
        2.09237         1.89074         0.77214 
        2.09851         1.88338        0.766606 
        2.10464         1.87868        0.761135 
        2.11077         1.86492        0.755725 
        2.11691         1.85615        0.750355 
        2.12305         1.84961        0.745037 
        2.12918         1.84242        0.739783 
        2.13531          1.8318         0.73458 
        2.14145         1.82305        0.729415 
         2.1476         1.81139        0.724293 
        2.15372         1.80341        0.719247 
        2.15985         1.79667        0.714243 
        2.16599         1.78829        0.709273 
        2.17213         1.77581        0.704356 
        2.17827         1.77195        0.699486 
         2.1844         1.76386        0.694667 
        2.19054         1.75636        0.689892 
        2.19666         1.74645        0.685169 
         2.2028         1.73793        0.680485 
        2.20893         1.73155        0.675843 
        2.21508         1.72291         0.67124 
        2.22122          1.7131        0.666677 
        2.22736         1.70668        0.662167 
        2.23349         1.70056        0.657699 
        2.23962         1.69018        0.653271 
        2.24577          1.6859        0.648879 
         2.2519         1.67727        0.644534 
        2.25802         1.67137        0.640235 
        2.26417         1.66461        0.635964 
        2.27031         1.65554        0.631728 
        2.27644         1.64832        0.627542 
        2.28257         1.63883        0.623395 
        2.28872         1.63541        0.619278 
        2.29486         1.62446        0.615199 
        2.30099         1.61768        0.611164 
        2.30712         1.60979        0.607164 
        2.31326         1.60498        0.603194 
         2.3194         1.59884        0.599261 
        2.32553          1.5926         0.59537 
        2.33166          1.5844        0.591515 
         2.3378         1.57782        0.587689 
        2.34394         1.56976        0.583895 
        2.35007         1.56365        0.580141 
        2.35619         1.55899        0.576424 
        2.36233         1.55051        0.572731 
        2.36848         1.54407        0.569063 
        2.37462         1.53946        0.565434 
        2.38075         1.53092        0.561841 
        2.38689         1.52694        0.558276 
        2.39303         1.51805        0.554743 
        2.39916         1.51324        0.551244 
        2.40529         1.50648        0.547775 
        2.41143         1.49895        0.544334 
        2.41757         1.49369         0.54092 
         2.4237         1.49027        0.537543 
        2.42983         1.47937        0.534194 
        2.43598          1.4776        0.530865 
        2.44211         1.46907         0.52757 
        2.44823         1.46432         0.52431 
        2.45437          1.4578        0.521069 
        2.46052         1.45395        0.517853 
        2.46665         1.44689         0.51467 
        2.47279         1.43979        0.511514 
        2.47892         1.43521        0.508383 
        2.48507         1.43034        0.505275 
         2.4912         1.42065        0.502199 
