# k  (h/Mpc)    P(k)  (Mpc/h)^3    P_linear(k)  (Mpc/h)^3
     0.00783031         22581.2         22948.1 
       0.013688         26702.9           26392 
       0.019231         25121.6         25025.1 
      0.0249154         21125.9         21605.1 
      0.0312784           17256         17418.1 
      0.0375637         14151.4         14065.6 
      0.0433917         11787.7         11935.2 
      0.0492413         10579.6         10595.3 
      0.0555754         9422.86         9697.14 
      0.0619321         9054.45         8992.24 
       0.067871         8070.05         8266.96 
      0.0738098         7253.76         7399.14 
      0.0800417         6251.11         6401.94 
      0.0862327         5459.84         5464.23 
      0.0921407         4879.72          4731.6 
      0.0982031         4311.16         4193.11 
       0.104506         4081.69         3842.99 
       0.110769         3823.86         3638.11 
       0.116806         3648.87         3493.38 
       0.122832         3470.02         3331.38 
       0.129052         3175.35         3107.22 
       0.135211         2939.96         2831.46 
       0.141259         2755.28         2542.07 
       0.147318         2546.37         2274.69 
       0.153489         2310.04         2055.93 
       0.159709         2182.24         1900.43 
       0.165845         2109.93         1801.73 
       0.171974          2017.2         1736.12 
       0.178125          1925.5         1678.61 
       0.184229         1833.89         1610.32 
        0.19034         1728.31         1522.27 
       0.196428         1670.94         1418.37 
       0.202534         1589.86         1309.34 
       0.208729         1502.77         1207.13 
       0.214876         1439.29         1123.49 
       0.220989         1384.25         1060.78 
       0.227147         1332.75         1015.18 
        0.23329         1280.19          980.37 
       0.239377         1257.88         948.659 
       0.245482         1178.04         913.529 
       0.251667         1168.35         871.913 
       0.257832         1115.89           825.5 
       0.263955         1074.68         778.052 
       0.270079          1033.4         733.445 
        0.27624         1018.24         694.533 
       0.282372         977.056         662.832 
        0.28843         967.555          637.66 
       0.294538         917.142         616.267 
       0.300721         910.235         596.216 
        0.30691         875.027         575.569 
       0.313033         855.658         553.683 
       0.319153         837.792         530.441 
       0.325316          811.28         506.786 
        0.33145         790.805         484.231 
       0.337538         773.442         463.924 
       0.343633         756.549         446.067 
       0.349808         728.267          430.39 
       0.355968         722.591         416.493 
       0.362074         714.896          403.61 
       0.368217          691.19         390.884 
       0.374374         664.222         377.886 
       0.380519         664.256         364.711 
       0.386598         643.084         351.709 
       0.392688         639.698          339.09 
        0.39888         620.439         327.075 
       0.405048          612.03          316.09 
       0.411186         603.036          306.11 
       0.417313         590.423         296.964 
       0.423458         576.779         288.317 
       0.429607         571.445          279.93 
       0.435692         556.824         271.773 
       0.441815         550.436         263.639 
       0.447964         539.677         255.574 
       0.454126         533.837         247.732 
       0.460267         520.078          240.28 
       0.466387         513.285         233.259 
        0.47254         509.937         226.614 
       0.478662         503.578         220.402 
       0.484765         486.743          214.52 
       0.490885         482.807         208.836 
       0.497035          473.14         203.266 
       0.503198         469.153         197.821 
       0.509342         465.652         192.531 
       0.515458         461.257         187.412 
       0.521598         447.941         182.444 
       0.527764         442.537         177.654 
       0.533884          438.41         173.121 
           0.54         433.113           168.8 
       0.546137         429.499         164.639 
       0.552299         423.241         160.605 
       0.558452         419.519         156.698 
       0.564573         414.792         152.923 
       0.570708          408.22         149.251 
       0.576825         399.123         145.699 
       0.582926         398.414         142.264 
       0.589034         393.851         138.934 
       0.595184         391.038         135.694 
       0.601379         383.402         132.545 
       0.607522         379.054         129.534 
       0.613639         376.659          126.64 
       0.619772         371.003         123.831 
       0.625918         368.373           121.1 
       0.632068         362.234         118.444 
       0.638161         360.136         115.883 
         0.6443         355.312         113.374 
       0.650464         352.529         110.928 
       0.656582         347.782         108.573 
       0.662703         347.565          106.29 
       0.668861         342.457         104.064 
       0.675024          339.04         101.904 
       0.681124         335.632         99.8286 
       0.687237         332.857         97.8079 
       0.693381          327.69          95.833 
       0.699536         323.518         93.9073 
       0.705665         321.722         92.0411 
       0.711789         320.584         90.2262 
       0.717957         317.473         88.4472 
        0.72409         315.619         86.7258 
       0.730186         311.016         85.0611 
       0.736317         308.555         83.4318 
       0.742472         305.749         81.8402 
       0.748622         303.325         80.2922 
        0.75476          299.17         78.7882 
       0.760888         296.218         77.3254 
       0.767043         295.771         75.8941 
       0.773185         293.147         74.5021 
       0.779291          289.02         73.1528 
       0.785407         288.057         71.8348 
       0.791564         284.806         70.5409 
       0.797719         282.688         69.2795 
       0.803834         278.902         68.0569 
       0.809972         278.464         66.8595 
       0.816124         277.117         65.6883 
       0.822261         274.563         64.5485 
       0.828378         271.941         63.4392 
       0.834502         268.855         62.3551 
       0.840667         267.326         61.2895 
       0.846816         265.999         60.2519 
       0.852925         264.244          59.245 
       0.859047         261.842          58.259 
       0.865192         258.651         57.2923 
       0.871341         256.413          56.347 
       0.877463         256.661         55.4274 
       0.883569         254.018         54.5306 
       0.889708         251.475         53.6492 
       0.895864         251.155          52.785 
       0.902008         248.349         51.9417 
       0.908149         245.742         51.1174 
       0.914301         243.866         50.3096 
       0.920448         242.293         49.5201 
       0.926574         239.572         48.7503 
       0.932687         239.287         47.9985 
       0.938823         236.502         47.2599 
       0.944975         236.311         46.5351 
       0.951105         234.117         45.8281 
       0.957225         232.816         45.1371 
       0.963368         229.378         44.4579 
       0.969511         228.749         43.7927 
       0.975621         227.229         43.1447 
       0.981748           225.7         42.5081 
       0.987916          224.51         41.8804 
        0.99406         222.377         41.2678 
        1.00019         220.635         40.6686 
        1.00632         219.867         40.0818 
        1.01246         217.906         39.5057 
        1.01859         217.715         38.9419 
        1.02471         214.469         38.3898 
        1.03085         213.641         37.8465 
        1.03698         212.067         37.3149 
        1.04314         210.588         36.7913 
        1.04929          209.31         36.2789 
        1.05541         208.708         35.7783 
        1.06154         205.983          35.286 
        1.06769         205.637         34.8023 
        1.07382         203.833         34.3291 
        1.07993         202.646         33.8659 
        1.08607         202.254         33.4093 
        1.09222         199.973         32.9607 
        1.09836          198.49         32.5208 
        1.10449         197.016         32.0895 
        1.11063         195.492         31.6656 
        1.11677         194.898         31.2494 
         1.1229         192.788         30.8415 
        1.12903         192.207         30.4405 
        1.13518         190.964         30.0463 
        1.14131         189.557         29.6593 
        1.14745         189.509         29.2793 
        1.15359         187.438         28.9059 
        1.15973         185.843         28.5388 
        1.16584         185.077         28.1798 
        1.17197         184.923         27.8264 
        1.17811         182.355          27.478 
        1.18424         181.625         27.1365 
        1.19038         180.835         26.7999 
        1.19652         179.003          26.469 
        1.20267         179.069         26.1438 
        1.20881         177.194         25.8241 
        1.21495         176.272         25.5102 
        1.22108         175.043         25.2016 
         1.2272         173.888         24.8989 
        1.23334         173.831         24.6004 
        1.23949         171.473          24.306 
        1.24562          170.87         24.0173 
        1.25174         170.093         23.7337 
        1.25789         169.144         23.4539 
        1.26402         167.258          23.179 
        1.27014         166.567         22.9092 
        1.27628         165.335         22.6429 
        1.28244         165.238         22.3803 
        1.28858         163.584         22.1222 
        1.29471         162.976         21.8688 
        1.30084         161.547         21.6195 
        1.30697         160.411         21.3738 
        1.31312         159.339         21.1316 
        1.31925         158.254         20.8938 
        1.32537          158.19         20.6599 
        1.33151         156.669         20.4288 
        1.33765         155.645         20.2014 
        1.34378         154.938         19.9778 
        1.34992         154.272         19.7575 
        1.35606         153.753           19.54 
         1.3622          151.96         19.3262 
        1.36833         151.309         19.1161 
        1.37445         150.555         18.9092 
        1.38059         149.464         18.7047 
        1.38675         149.006         18.5028 
        1.39288         147.847         18.3046 
        1.39901         147.038         18.1094 
        1.40515         146.127         17.9167 
         1.4113         145.406         17.7268 
        1.41742         144.107         17.5403 
        1.42355         143.688         17.3562 
         1.4297         142.499         17.1742 
        1.43585         141.796         16.9949 
        1.44198          141.52         16.8188 
        1.44809         140.427         16.6455 
        1.45423         139.908          16.474 
        1.46036         138.685         16.3052 
        1.46649         137.869         16.1387 
        1.47263         137.111         15.9745 
        1.47877         136.015         15.8125 
        1.48491         135.072         15.6526 
        1.49104         134.889         15.4952 
        1.49718          133.47         15.3398 
        1.50333         132.818         15.1863 
        1.50947         132.026         15.0352 
         1.5156         131.514         14.8864 
        1.52172          130.83         14.7397 
        1.52787         129.622         14.5946 
          1.534         129.283         14.4516 
        1.54013         128.498         14.3106 
        1.54627          127.79         14.1713 
        1.55241          126.81         14.0339 
        1.55855         126.136         13.8984 
        1.56467         125.083         13.7651 
         1.5708         124.427         13.6332 
        1.57695         124.354         13.5028 
        1.58308         123.532         13.3743 
        1.58922         122.779         13.2475 
        1.59535         122.025         13.1224 
         1.6015         121.421         12.9987 
        1.60764         120.972         12.8766 
        1.61376         120.026         12.7565 
        1.61989         119.183         12.6378 
        1.62604         118.425         12.5203 
        1.63218         118.189         12.4044 
        1.63831          117.37         12.2902 
        1.64444         116.611         12.1774 
        1.65059         115.852         12.0657 
        1.65673         115.424         11.9556 
        1.66285         114.774         11.8471 
        1.66898         114.139           11.74 
        1.67512         113.211         11.6339 
        1.68127         112.811         11.5291 
         1.6874         112.294         11.4258 
        1.69353         111.648         11.3238 
        1.69967         110.817         11.2228 
        1.70581         110.007         11.1231 
        1.71193         109.445          11.025 
        1.71806         109.203         10.9278 
        1.72421         108.626         10.8316 
        1.73035         108.133         10.7367 
        1.73649         107.338         10.6429 
        1.74262         106.883         10.5503 
        1.74876          106.21         10.4588 
        1.75489         105.539         10.3685 
        1.76101         104.807         10.2794 
        1.76715          104.56         10.1911 
        1.77329         103.753         10.1038 
        1.77943         103.519         10.0174 
        1.78557         103.069         9.93221 
        1.79171         102.051         9.84797 
        1.79785         101.668         9.76468 
        1.80399         101.092         9.68238 
        1.81012         100.668         9.60112 
        1.81625         100.188         9.52084 
        1.82239         99.5576         9.44135 
        1.82853         98.8382          9.3628 
        1.83466         98.4791         9.28522 
        1.84078         97.9754         9.20859 
        1.84692         97.1274         9.13271 
        1.85306         96.9693         9.05759 
         1.8592         96.2343         8.98342 
        1.86533         95.8292         8.91013 
        1.87147         95.1645         8.83756 
        1.87761         94.4405         8.76577 
        1.88375         94.2318         8.69486 
        1.88988         93.4061         8.62481 
        1.89601         93.0322         8.55549 
        1.90215         92.6237         8.48687 
        1.90829         92.0496         8.41904 
        1.91442         91.6782         8.35194 
        1.92056         91.0277         8.28562 
         1.9267         90.6519         8.21996 
        1.93284         90.0268         8.15496 
        1.93897         89.5396         8.09079 
        1.94509         89.3021         8.02745 
        1.95123         88.7828         7.96462 
        1.95737         88.1086         7.90241 
        1.96349         87.7056         7.84103 
        1.96964         87.1174         7.78012 
        1.97578         86.5823         7.71982 
        1.98192         86.3075         7.66029 
        1.98805         85.9043         7.60137 
        1.99419         85.2904         7.54307 
        2.00033         84.9431         7.48535 
        2.00647         84.5361         7.42825 
         2.0126         83.9969         7.37184 
        2.01874         83.5424         7.31592 
        2.02488         83.1588         7.26054 
        2.03101         82.5855         7.20583 
        2.03714         82.1691         7.15173 
        2.04328         81.6745         7.09812 
        2.04941         81.3258         7.04511 
        2.05554          80.836         6.99267 
        2.06167         80.5077         6.94069 
        2.06781         79.8705         6.88923 
        2.07396         79.7468         6.83822 
        2.08009         79.2928          6.7878 
        2.08622         78.7159         6.73796 
        2.09237         78.4999         6.68851 
        2.09851         77.9363         6.63955 
        2.10464         77.5916         6.59116 
        2.11077         76.9476          6.5433 
        2.11691         76.7754         6.49582 
        2.12305         76.4439          6.4488 
        2.12918         75.9977         6.40236 
        2.13531         75.5048         6.35637 
        2.14145         75.1553         6.31073 
         2.1476         74.7576         6.26547 
        2.15372         74.3575         6.22089 
        2.15985         73.9498          6.1767 
        2.16599         73.5425          6.1328 
        2.17213         73.1727         6.08938 
        2.17827         72.5778         6.04639 
         2.1844         72.4313         6.00385 
        2.19054         71.9912          5.9617 
        2.19666         71.5812         5.92001 
         2.2028          71.317         5.87869 
        2.20893         70.8956         5.83774 
        2.21508         70.5719         5.79713 
        2.22122         70.1869         5.75689 
        2.22736         69.6888         5.71711 
        2.23349         69.4769         5.67772 
        2.23962         69.1397         5.63868 
        2.24577         68.7545         5.59997 
         2.2519         68.4778         5.56167 
        2.25802         68.1002         5.52379 
        2.26417         67.7295         5.48616 
        2.27031         67.3156         5.44884 
        2.27644         66.8707         5.41198 
        2.28257          66.648         5.37546 
        2.28872          66.387         5.33921 
        2.29486          65.923         5.30329 
        2.30099         65.4463         5.26778 
        2.30712         65.2841         5.23258 
        2.31326         64.8899         5.19764 
         2.3194         64.5762         5.16303 
        2.32553          64.376          5.1288 
        2.33166         63.9445         5.09489 
         2.3378         63.5798         5.06124 
        2.34394         63.3543         5.02789 
        2.35007         62.9946         4.99488 
        2.35619         62.6489          4.9622 
        2.36233         62.3005         4.92974 
        2.36848         61.9341          4.8975 
        2.37462         61.7621         4.86562 
        2.38075         61.3428         4.83404 
        2.38689         61.0583         4.80272 
        2.39303         60.7557         4.77169 
        2.39916           60.39         4.74095 
        2.40529         60.2457         4.71049 
        2.41143          59.711         4.68028 
        2.41757         59.4924         4.65031 
         2.4237         59.2269         4.62066 
        2.42983         58.9452         4.59127 
        2.43598          58.602         4.56206 
        2.44211           58.28         4.53315 
        2.44823         58.0652         4.50455 
        2.45437         57.7552         4.47613 
        2.46052         57.4672         4.44792 
        2.46665         57.1908            4.42 
        2.47279          56.812         4.39233 
        2.47892          56.511         4.36488 
        2.48507         56.2734         4.33764 
         2.4912         56.0174         4.31068 
