# k  (h/Mpc)    P(k)  (Mpc/h)^3    P_linear(k)  (Mpc/h)^3
     0.00783031         10145.1         10303.3 
       0.013688         11701.1           11645 
       0.019231         10760.3         10731.3 
      0.0249154          8800.3         8914.73 
      0.0312784         6823.08         6834.95 
      0.0375637         5309.86         5263.91 
      0.0433917         4323.41         4333.41 
      0.0492413         3823.93         3808.58 
      0.0555754         3470.49         3518.57 
      0.0619321          3356.1         3324.17 
       0.067871         3063.83         3099.49 
      0.0738098         2756.53         2783.65 
      0.0800417         2352.33         2381.75 
      0.0862327         1989.76         1983.94 
      0.0921407         1705.99         1668.74 
      0.0982031         1468.22         1441.72 
       0.104506         1362.46         1306.04 
       0.110769         1287.59          1244.3 
       0.116806         1243.69         1216.43 
       0.122832         1210.51         1184.35 
       0.129052         1128.05         1122.44 
       0.135211         1040.68         1027.76 
       0.141259         951.261         915.614 
       0.147318         853.672         804.721 
       0.153489         757.371         711.054 
       0.159709         699.925          645.08 
       0.165845         667.066         606.887 
       0.171974          637.52         587.565 
       0.178125         620.066         576.019 
       0.184229          601.22         561.873 
        0.19034         563.369         538.415 
       0.196428          542.53         504.783 
       0.202534         513.142         464.654 
       0.208729         473.814         423.751 
       0.214876         440.383         388.641 
       0.220989         418.632         362.176 
       0.227147         398.124         344.146 
        0.23329         383.144         332.609 
       0.239377         375.808         324.233 
       0.245482         352.519         315.579 
       0.251667         348.312         304.257 
       0.257832         334.377         289.826 
       0.263955         319.265         273.308 
       0.270079         303.095         256.397 
        0.27624         295.162         240.843 
       0.282372         283.184         227.953 
        0.28843         272.322         218.085 
       0.294538         259.727         210.488 
       0.300721         256.905         204.237 
        0.30691         245.453         198.308 
       0.313033         239.574         191.962 
       0.319153         229.727          184.78 
       0.325316          223.76         176.864 
        0.33145         214.871         168.772 
       0.337538         210.556         161.111 
       0.343633         202.593         154.215 
       0.349808         195.512         148.252 
       0.355968         192.194         143.213 
       0.362074         187.413         138.884 
       0.368217         181.961         134.844 
       0.374374         175.215         130.807 
       0.380519          172.55         126.647 
       0.386598         167.773         122.351 
       0.392688         164.782         117.999 
        0.39888         160.368         113.684 
       0.405048         155.849         109.637 
       0.411186         152.371         105.972 
       0.417313         148.878         102.678 
       0.423458          145.42         99.6668 
       0.429607         142.186         96.8645 
       0.435692         137.525         94.1979 
       0.441815         136.198         91.5323 
       0.447964         133.442         88.8577 
       0.454126         127.812         86.1983 
       0.460267         126.187         83.5956 
       0.466387         124.322         81.0976 
        0.47254         121.269         78.7279 
       0.478662         120.467         76.5251 
       0.484765         116.359         74.4625 
       0.490885         114.463         72.5064 
       0.497035         112.852         70.6284 
       0.503198         109.726         68.8063 
       0.509342         107.923         67.0237 
       0.515458         106.193         65.2778 
       0.521598         104.168         63.5673 
       0.527764         102.821         61.9053 
       0.533884         101.258         60.3198 
           0.54         99.1571          58.801 
       0.546137         98.1705          57.343 
       0.552299         96.3625         55.9455 
       0.558452          94.558         54.6083 
       0.564573         92.9443         53.3241 
       0.570708         91.1911         52.0729 
       0.576825         90.1119         50.8543 
       0.582926         88.1184         49.6698 
       0.589034         86.8499         48.5179 
       0.595184          85.629         47.3957 
       0.601379         84.2787         46.3053 
       0.607522         82.5808         45.2618 
       0.613639         82.0628         44.2577 
       0.619772         80.3562         43.2836 
       0.625918         79.2281         42.3382 
       0.632068         78.3239          41.421 
       0.638161         77.4389         40.5394 
         0.6443          76.397         39.6769 
       0.650464         75.5455         38.8356 
       0.656582         74.1737         38.0237 
       0.662703         73.0319         37.2341 
       0.668861         71.9381         36.4622 
       0.675024         71.1558         35.7117 
       0.681124         70.3854         34.9905 
       0.687237         68.9934         34.2888 
       0.693381         68.1137          33.604 
       0.699536         67.4771         32.9375 
       0.705665         67.3443         32.2925 
       0.711789          65.766         31.6655 
       0.717957           65.31          31.051 
        0.72409         64.2065         30.4561 
       0.730186         63.2216         29.8802 
       0.736317         62.9817          29.316 
       0.742472         62.2867         28.7643 
       0.748622         61.4431         28.2273 
        0.75476          60.829         27.7053 
       0.760888          59.966         27.1974 
       0.767043         59.4332         26.7005 
       0.773185         58.7112         26.2172 
       0.779291          58.032         25.7487 
       0.785407         57.5702         25.2912 
       0.791564         57.0998         24.8421 
       0.797719         55.9493         24.4043 
       0.803834         55.6995         23.9799 
       0.809972         54.7603         23.5641 
       0.816124         54.4055         23.1574 
       0.822261         53.9718         22.7615 
       0.828378         53.5887         22.3762 
       0.834502         52.9611         21.9995 
       0.840667         52.3502         21.6291 
       0.846816         51.6162         21.2684 
       0.852925         51.2441         20.9182 
       0.859047         50.5605         20.5753 
       0.865192         50.2468         20.2389 
       0.871341         49.8889           19.91 
       0.877463         49.0506         19.5898 
       0.883569         48.7859         19.2776 
       0.889708         48.3694         18.9707 
       0.895864         47.9855         18.6697 
       0.902008         47.5097         18.3759 
       0.908149         47.1301         18.0887 
       0.914301         46.6787         17.8072 
       0.920448         46.3209          17.532 
       0.926574         45.7636         17.2637 
       0.932687         45.6309         17.0016 
       0.938823         44.9457          16.744 
       0.944975         44.5681         16.4912 
       0.951105         44.1858         16.2446 
       0.957225         43.6831         16.0035 
       0.963368         43.5659         15.7666 
       0.969511         43.2123         15.5344 
       0.975621          42.962         15.3082 
       0.981748         42.4156          15.086 
       0.987916         42.0359         14.8668 
        0.99406         41.8071         14.6528 
        1.00019         41.4054         14.4435 
        1.00632         41.1149         14.2385 
        1.01246         40.8593         14.0372 
        1.01859         40.3042         13.8402 
        1.02471         40.1745         13.6472 
        1.03085         39.8362         13.4572 
        1.03698         39.4701         13.2713 
        1.04314         39.1859         13.0882 
        1.04929         38.8632         12.9089 
        1.05541         38.4519         12.7337 
        1.06154         38.4526         12.5614 
        1.06769          38.038          12.392 
        1.07382         37.8497         12.2264 
        1.07993         37.5866         12.0641 
        1.08607         37.2851         11.9042 
        1.09222         37.0357          11.747 
        1.09836         36.7003         11.5928 
        1.10449         36.5108         11.4416 
        1.11063         36.0982          11.293 
        1.11677         35.8941         11.1471 
         1.1229         35.6214          11.004 
        1.12903         35.1977         10.8633 
        1.13518         35.3377          10.725 
        1.14131          35.032         10.5892 
        1.14745         34.5891         10.4559 
        1.15359         34.5221         10.3248 
        1.15973         34.1008         10.1959 
        1.16584         33.9588         10.0699 
        1.17197         33.7379         9.94575 
        1.17811         33.5898         9.82337 
        1.18424         33.2634         9.70342 
        1.19038         33.0402         9.58514 
        1.19652         32.9959         9.46889 
        1.20267         32.6692         9.35458 
        1.20881          32.492         9.24219 
        1.21495         32.2107         9.13183 
        1.22108         32.0987         9.02331 
         1.2272         31.7217         8.91681 
        1.23334         31.5942          8.8118 
        1.23949         31.5798         8.70824 
        1.24562         31.1652         8.60664 
        1.25174         31.0957         8.50682 
        1.25789         30.9366         8.40829 
        1.26402         30.6341         8.31151 
        1.27014         30.4071          8.2165 
        1.27628         30.2226         8.12269 
        1.28244         30.1163         8.03018 
        1.28858         29.9528         7.93924 
        1.29471         29.8126         7.84991 
        1.30084         29.6412         7.76205 
        1.30697         29.4408         7.67541 
        1.31312         29.2251         7.58997 
        1.31925         29.0653          7.5061 
        1.32537         28.9106          7.4236 
        1.33151         28.6884         7.34204 
        1.33765          28.597         7.26176 
        1.34378         28.4122         7.18285 
        1.34992         28.2222         7.10507 
        1.35606         28.0716         7.02827 
         1.3622         27.9471         6.95275 
        1.36833          27.717         6.87853 
        1.37445         27.6395         6.80544 
        1.38059         27.4402         6.73319 
        1.38675         27.1936         6.66183 
        1.39288         27.1936         6.59179 
        1.39901         26.9913         6.52279 
        1.40515         26.8264         6.45463 
         1.4113         26.6799         6.38748 
        1.41742         26.5446         6.32154 
        1.42355         26.4026         6.25642 
         1.4297         26.2823         6.19202 
        1.43585         26.1995         6.12856 
        1.44198         25.9188         6.06624 
        1.44809         25.8703          6.0049 
        1.45423         25.7078          5.9442 
        1.46036         25.6471         5.88444 
        1.46649         25.4553         5.82549 
        1.47263         25.3066          5.7673 
        1.47877         25.2196         5.70994 
        1.48491          25.202         5.65327 
        1.49104          24.931         5.59749 
        1.49718         24.7299         5.54242 
        1.50333          24.744         5.48801 
        1.50947         24.5996         5.43444 
         1.5156          24.464         5.38167 
        1.52172         24.3585         5.32961 
        1.52787         24.2454         5.27813 
          1.534         24.1239         5.22739 
        1.54013         23.9411         5.17738 
        1.54627          23.885         5.12793 
        1.55241         23.6455         5.07913 
        1.55855         23.6257         5.03103 
        1.56467         23.4053         4.98369 
         1.5708         23.4546         4.93683 
        1.57695          23.237          4.8905 
        1.58308         23.1229         4.84488 
        1.58922         23.0649         4.79981 
        1.59535         22.9465         4.75534 
         1.6015          22.783         4.71136 
        1.60764         22.6718         4.66797 
        1.61376          22.531         4.62525 
        1.61989         22.4487         4.58303 
        1.62604         22.3834         4.54124 
        1.63218         22.3015             4.5 
        1.63831         22.1443         4.45938 
        1.64444         22.0615         4.41924 
        1.65059         21.9488          4.3795 
        1.65673         21.8154          4.3403 
        1.66285         21.7808         4.30168 
        1.66898         21.6412         4.26353 
        1.67512         21.5531         4.22577 
        1.68127         21.4209         4.18843 
         1.6874         21.3181         4.15163 
        1.69353         21.2545          4.1153 
        1.69967         21.1395         4.07931 
        1.70581         21.0486         4.04378 
        1.71193         20.9873          4.0088 
        1.71806         20.8165         3.97416 
        1.72421          20.737         3.93987 
        1.73035         20.6207         3.90602 
        1.73649          20.576         3.87257 
        1.74262         20.4775         3.83955 
        1.74876         20.4293         3.80689 
        1.75489         20.3094         3.77467 
        1.76101         20.2048         3.74284 
        1.76715         20.1238         3.71134 
        1.77329           20.09         3.68016 
        1.77943         19.9869         3.64933 
        1.78557          19.825         3.61889 
        1.79171         19.7465          3.5888 
        1.79785         19.6602         3.55905 
        1.80399          19.637         3.52964 
        1.81012         19.5197         3.50061 
        1.81625         19.4629         3.47192 
        1.82239         19.3502          3.4435 
        1.82853         19.2592         3.41542 
        1.83466         19.2066         3.38768 
        1.84078         19.0424         3.36028 
        1.84692         19.0048         3.33314 
        1.85306         18.9306         3.30627 
         1.8592         18.8282         3.27973 
        1.86533         18.7607         3.25351 
        1.87147         18.7006         3.22754 
        1.87761         18.6343         3.20184 
        1.88375         18.5603         3.17646 
        1.88988         18.4712         3.15138 
        1.89601         18.3986         3.12655 
        1.90215          18.311         3.10198 
        1.90829         18.2511         3.07768 
        1.91442          18.164         3.05364 
        1.92056         18.0868         3.02988 
         1.9267         18.0071         3.00635 
        1.93284         17.8962         2.98306 
        1.93897          17.877         2.96006 
        1.94509         17.7768         2.93735 
        1.95123         17.7338         2.91483 
        1.95737         17.6233         2.89252 
        1.96349         17.5742         2.87051 
        1.96964         17.5027         2.84866 
        1.97578         17.3952         2.82703 
        1.98192          17.335         2.80567 
        1.98805         17.2935         2.78453 
        1.99419         17.2167          2.7636 
        2.00033         17.1084         2.74289 
        2.00647         17.0529         2.72239 
         2.0126         16.9961         2.70213 
        2.01874         16.9174         2.68205 
        2.02488         16.8763         2.66216 
        2.03101         16.8018          2.6425 
        2.03714         16.7397         2.62307 
        2.04328         16.6544          2.6038 
        2.04941         16.5839         2.58475 
        2.05554         16.5329          2.5659 
        2.06167         16.4704         2.54722 
        2.06781         16.4028         2.52872 
        2.07396         16.3597         2.51038 
        2.08009         16.3068         2.49225 
        2.08622         16.1652         2.47432 
        2.09237         16.1577         2.45653 
        2.09851         16.0939         2.43892 
        2.10464         15.9944         2.42151 
        2.11077         15.9515         2.40429 
        2.11691         15.9045          2.3872 
        2.12305         15.8621         2.37027 
        2.12918         15.7709         2.35355 
        2.13531         15.7225           2.337 
        2.14145         15.6835         2.32056 
         2.1476         15.6073         2.30426 
        2.15372         15.5155          2.2882 
        2.15985          15.452         2.27228 
        2.16599         15.4247         2.25646 
        2.17213         15.3603         2.24082 
        2.17827         15.2757         2.22532 
         2.1844         15.1927         2.20999 
        2.19054         15.1927         2.19479 
        2.19666         15.1301         2.17977 
         2.2028         15.0618         2.16486 
        2.20893         15.0095         2.15009 
        2.21508         14.9425         2.13545 
        2.22122         14.8285         2.12093 
        2.22736         14.8328         2.10658 
        2.23349         14.7786         2.09237 
        2.23962          14.725         2.07828 
        2.24577         14.6437         2.06431 
         2.2519         14.6122         2.05048 
        2.25802         14.5382         2.03681 
        2.26417         14.5214         2.02322 
        2.27031         14.4243         2.00975 
        2.27644         14.3963         1.99644 
        2.28257         14.3288         1.98324 
        2.28872         14.2611         1.97015 
        2.29486         14.2286         1.95717 
        2.30099         14.1592         1.94434 
        2.30712          14.116         1.93162 
        2.31326         14.0779         1.91899 
         2.3194         14.0322         1.90648 
        2.32553         13.9646          1.8941 
        2.33166         13.9012         1.88184 
         2.3378         13.8671         1.86967 
        2.34394         13.8112         1.85761 
        2.35007         13.7677         1.84567 
        2.35619         13.6966         1.83385 
        2.36233         13.6511          1.8221 
        2.36848          13.611         1.81044 
        2.37462         13.5476          1.7989 
        2.38075         13.5016         1.78747 
        2.38689         13.4694         1.77613 
        2.39303         13.4018         1.76489 
        2.39916         13.3671         1.75377 
        2.40529         13.3274         1.74274 
        2.41143         13.2671         1.73179 
        2.41757         13.2225         1.72094 
         2.4237         13.1723          1.7102 
        2.42983         13.1069         1.69955 
        2.43598         13.0926         1.68897 
        2.44211         13.0324         1.67849 
        2.44823         12.9945         1.66812 
        2.45437         12.9361         1.65782 
        2.46052         12.8934         1.64759 
        2.46665         12.8646         1.63747 
        2.47279         12.7968         1.62744 
        2.47892          12.757         1.61748 
        2.48507         12.7058          1.6076 
         2.4912         12.6778         1.59782 
