# k  (h/Mpc)    Pcb(k)  (Mpc/h)^3    Pcb_linear(k)  (Mpc/h)^3
     0.00783031         15625.5         15853.5 
       0.013688         19369.4         19190.3 
       0.019231         19155.4         19114.2 
      0.0249154         17033.4         17392.3 
      0.0312784         14667.7         14825.3 
      0.0375637         12495.3         12486.7 
      0.0433917         10639.7         10819.2 
      0.0492413          9585.4         9647.41 
      0.0555754         8531.28         8794.57 
      0.0619321          8169.1         8155.75 
       0.067871         7378.57         7584.37 
      0.0738098         6765.85         6948.42 
      0.0800417         5990.87         6207.74 
      0.0862327          5357.8         5460.88 
      0.0921407         4832.66         4814.77 
      0.0982031         4280.85         4275.67 
       0.104506         4002.96         3866.94 
       0.110769          3708.9          3593.1 
       0.116806         3503.04         3410.27 
       0.122832         3345.23         3258.01 
       0.129052         3103.46         3090.33 
       0.135211         2924.64         2892.12 
       0.141259         2772.62         2668.81 
       0.147318         2584.57         2435.99 
       0.153489         2351.05         2214.55 
       0.159709         2211.47         2027.35 
       0.165845         2121.11         1886.03 
       0.171974         2007.37         1783.98 
       0.178125         1914.66         1708.66 
       0.184229         1835.55         1645.48 
        0.19034         1732.42         1580.32 
       0.196428         1693.31         1505.72 
       0.202534         1624.38          1420.4 
       0.208729         1540.92         1328.24 
       0.214876         1469.08         1239.12 
       0.220989         1414.22         1159.85 
       0.227147         1351.83         1093.53 
        0.23329         1297.88         1041.12 
       0.239377         1275.44         999.888 
       0.245482            1195         964.718 
       0.251667         1187.75         930.691 
       0.257832          1139.7         894.936 
       0.263955         1101.06         856.403 
       0.270079         1060.43         815.624 
        0.27624         1046.96         774.465 
       0.282372         1002.66         735.819 
        0.28843         990.916         701.625 
       0.294538         940.196         671.938 
       0.300721          935.16         646.334 
        0.30691         896.444         623.983 
       0.313033         878.676         603.549 
       0.319153         860.122         583.499 
       0.325316         832.573         562.851 
        0.33145         811.929         541.759 
       0.337538         797.695         520.666 
       0.343633         777.415         500.124 
       0.349808          749.85          480.54 
       0.355968         744.611         462.721 
       0.362074         735.697           446.8 
       0.368217         713.045         432.321 
       0.374374         683.833         418.927 
       0.380519         683.807         406.171 
       0.386598         664.405         393.826 
       0.392688         661.827         381.521 
        0.39888         642.003         369.077 
       0.405048         631.731          356.93 
       0.411186         622.519         345.265 
       0.417313         609.633         334.238 
       0.423458         597.951         323.908 
       0.429607         589.764         314.263 
       0.435692         575.931         305.325 
       0.441815         570.737         296.801 
       0.447964         558.703         288.556 
       0.454126         550.662         280.501 
       0.460267         538.309         272.653 
       0.466387         532.148         265.003 
        0.47254         525.231         257.519 
       0.478662         521.882         250.344 
       0.484765         504.549         243.514 
       0.490885         500.771         236.994 
       0.497035         490.854         230.751 
       0.503198         486.256         224.785 
       0.509342         482.126         219.082 
       0.515458         477.886         213.597 
       0.521598          465.45         208.239 
       0.527764         457.683         203.003 
       0.533884         455.348         197.955 
           0.54         449.463         193.069 
       0.546137         446.784         188.327 
       0.552299         438.812         183.734 
       0.558452         436.293         179.323 
       0.564573         430.302         175.105 
       0.570708         423.954         171.034 
       0.576825         413.545         167.111 
       0.582926         413.287         163.317 
       0.589034         409.444         159.624 
       0.595184         405.811         156.012 
       0.601379         399.424         152.481 
       0.607522         393.953         149.086 
       0.613639         392.707          145.81 
       0.619772         384.089         142.626 
       0.625918         382.589         139.535 
       0.632068          376.46         136.538 
       0.638161         374.959          133.66 
         0.6443           368.6         130.849 
       0.650464         365.803          128.11 
       0.656582           362.9          125.47 
       0.662703         361.811         122.901 
       0.668861         355.521         120.387 
       0.675024          352.18          117.94 
       0.681124         349.347         115.584 
       0.687237         346.072         113.288 
       0.693381         341.071         111.044 
       0.699536         337.011          108.86 
       0.705665         334.954         106.746 
       0.711789          333.25         104.692 
       0.717957         330.354         102.678 
        0.72409         327.758          100.73 
       0.730186         323.462         98.8436 
       0.736317         320.533         96.9948 
       0.742472          318.72         95.1861 
       0.748622         315.439         93.4248 
        0.75476         311.726         91.7117 
       0.760888         308.458         90.0443 
       0.767043         308.769         88.4119 
       0.773185         305.052         86.8239 
       0.779291         300.471         85.2844 
       0.785407         299.648         83.7804 
       0.791564         295.838         82.3037 
       0.797719         293.489         80.8636 
       0.803834         290.719         79.4674 
       0.809972         289.996         78.0994 
       0.816124         289.078         76.7608 
       0.822261         285.364         75.4572 
       0.828378         283.057          74.188 
       0.834502         280.771          72.947 
       0.840667         278.253         71.7265 
       0.846816         276.686         70.5374 
       0.852925         274.921          69.383 
       0.859047          272.79          68.252 
       0.865192         269.418         67.1427 
       0.871341         267.421         66.0575 
       0.877463         266.491         65.0013 
       0.883569         264.899         63.9709 
       0.889708         261.993         62.9578 
       0.895864         260.023          61.964 
       0.902008         258.224          60.994 
       0.908149         256.471         60.0454 
       0.914301         253.511         59.1155 
       0.920448         252.134         58.2063 
       0.926574          249.45         57.3194 
       0.932687         249.594          56.453 
       0.938823         246.637         55.6015 
       0.944975         245.775         54.7657 
       0.951105         243.903         53.9501 
       0.957225         242.139         53.1526 
       0.963368         238.885         52.3686 
       0.969511          238.04         51.6004 
       0.975621          235.93         50.8518 
       0.981748         235.495         50.1162 
       0.987916         233.675         49.3906 
        0.99406         230.613         48.6821 
        1.00019         230.186         47.9889 
        1.00632         228.674         47.3099 
        1.01246         226.751         46.6431 
        1.01859             227         45.9902 
        1.02471         223.265         45.3507 
        1.03085          221.84         44.7212 
        1.03698         220.856          44.105 
        1.04314         218.686         43.4978 
        1.04929         217.404         42.9035 
        1.05541         217.628         42.3228 
        1.06154         214.296         41.7514 
        1.06769         213.928         41.1897 
        1.07382         212.198         40.6402 
        1.07993         210.627          40.102 
        1.08607         210.117         39.5713 
        1.09222         208.362         39.0498 
        1.09836         206.789         38.5383 
        1.10449         204.666         38.0366 
        1.11063         203.028         37.5433 
        1.11677         202.613         37.0589 
         1.1229         200.943          36.584 
        1.12903         199.992          36.117 
        1.13518         198.603         35.6578 
        1.14131         196.885         35.2068 
        1.14745         196.849         34.7639 
        1.15359         195.007         34.3286 
        1.15973         193.448         33.9006 
        1.16584         192.131         33.4818 
        1.17197         191.978         33.0695 
        1.17811         189.704         32.6629 
        1.18424         188.739         32.2644 
        1.19038         188.205         31.8713 
        1.19652         186.521          31.485 
        1.20267         186.089         31.1051 
        1.20881         184.363         30.7315 
        1.21495         183.309         30.3647 
        1.22108         182.114         30.0039 
         1.2272         180.789         29.6498 
        1.23334         180.229         29.3007 
        1.23949         178.624         28.9563 
        1.24562         177.824         28.6185 
        1.25174         176.629         28.2865 
        1.25789         175.374         27.9588 
        1.26402         173.826         27.6369 
        1.27014         172.678         27.3208 
        1.27628          172.05         27.0088 
        1.28244         171.898          26.701 
        1.28858         169.924         26.3985 
        1.29471         168.689         26.1013 
        1.30084         168.114          25.809 
        1.30697         166.587         25.5207 
        1.31312         165.525         25.2364 
        1.31925          164.72         24.9573 
        1.32537         164.137         24.6828 
        1.33151         162.483         24.4113 
        1.33765         161.489         24.1442 
        1.34378         160.926         23.8816 
        1.34992         160.131         23.6227 
        1.35606         159.966          23.367 
         1.3622         158.156         23.1157 
        1.36833         156.755         22.8686 
        1.37445         156.188         22.6253 
        1.38059         154.963         22.3848 
        1.38675         154.451         22.1472 
        1.39288         153.532          21.914 
        1.39901         153.195         21.6842 
        1.40515         151.439         21.4573 
         1.4113         150.764         21.2337 
        1.41742         149.644         21.0141 
        1.42355         148.955         20.7972 
         1.4297         147.956         20.5827 
        1.43585          147.14         20.3714 
        1.44198         146.358         20.1638 
        1.44809         145.699         19.9595 
        1.45423         144.898         19.7573 
        1.46036         143.748         19.5583 
        1.46649          142.76         19.3619 
        1.47263         141.918         19.1681 
        1.47877         141.156          18.977 
        1.48491         139.754         18.7882 
        1.49104         139.749         18.6024 
        1.49718         138.393         18.4189 
        1.50333         137.775         18.2377 
        1.50947         137.078         18.0592 
         1.5156         136.217         17.8834 
        1.52172         135.433         17.7099 
        1.52787         134.323         17.5384 
          1.534         133.924         17.3694 
        1.54013         133.091         17.2027 
        1.54627         132.307          17.038 
        1.55241         131.375         16.8754 
        1.55855         130.643         16.7151 
        1.56467         129.813         16.5574 
         1.5708         128.972         16.4012 
        1.57695         128.565         16.2468 
        1.58308         127.849         16.0948 
        1.58922         127.268         15.9446 
        1.59535          126.22         15.7964 
         1.6015         125.782         15.6499 
        1.60764         125.022         15.5053 
        1.61376         124.182         15.3629 
        1.61989         123.436         15.2222 
        1.62604         122.535         15.0829 
        1.63218         122.292         14.9455 
        1.63831         121.301         14.8101 
        1.64444         120.729         14.6763 
        1.65059         120.132         14.5438 
        1.65673         119.082         14.4132 
        1.66285         118.747         14.2845 
        1.66898          117.96         14.1573 
        1.67512         117.574         14.0315 
        1.68127         116.605          13.907 
         1.6874         115.725         13.7844 
        1.69353         115.458         13.6632 
        1.69967         114.755         13.5433 
        1.70581         113.989         13.4249 
        1.71193         113.383         13.3083 
        1.71806         112.864         13.1928 
        1.72421         112.158         13.0785 
        1.73035         111.942         12.9657 
        1.73649         111.081         12.8542 
        1.74262         110.268         12.7441 
        1.74876         109.917         12.6353 
        1.75489         109.059         12.5279 
        1.76101         108.333         12.4218 
        1.76715         107.907         12.3168 
        1.77329         107.565         12.2129 
        1.77943         106.626         12.1101 
        1.78557         106.267         12.0087 
        1.79171         105.403         11.9084 
        1.79785         104.889         11.8092 
        1.80399         104.193         11.7112 
        1.81012         103.755         11.6144 
        1.81625         103.226         11.5188 
        1.82239         102.815         11.4241 
        1.82853         102.045         11.3305 
        1.83466         101.397          11.238 
        1.84078         101.018         11.1467 
        1.84692         100.217         11.0562 
        1.85306          99.935         10.9667 
         1.8592         99.2594         10.8782 
        1.86533         98.5094         10.7908 
        1.87147          98.105         10.7043 
        1.87761         97.4758         10.6186 
        1.88375         96.8214          10.534 
        1.88988         96.4776         10.4504 
        1.89601         95.8439         10.3677 
        1.90215         95.3289         10.2858 
        1.90829          94.881         10.2048 
        1.91442         94.3733         10.1247 
        1.92056         93.6871         10.0455 
         1.9267         93.4454         9.96706 
        1.93284         92.8674         9.88943 
        1.93897         92.2805         9.81277 
        1.94509         91.8877         9.73709 
        1.95123         91.3566         9.66201 
        1.95737         90.8299         9.58767 
        1.96349         90.3218         9.51431 
        1.96964         89.5513          9.4415 
        1.97578          89.164         9.36942 
        1.98192         89.0105         9.29823 
        1.98805         88.2315         9.22778 
        1.99419         87.9822         9.15805 
        2.00033         87.3598         9.08901 
        2.00647         87.0211          9.0207 
         2.0126         86.4484          8.9532 
        2.01874         85.8316         8.88629 
        2.02488         85.5403            8.82 
        2.03101         84.8639         8.75451 
        2.03714         84.3482         8.68975 
        2.04328         84.0821         8.62557 
        2.04941         83.6345         8.56209 
        2.05554         83.1339         8.49929 
        2.06167         82.7548         8.43703 
        2.06781         82.1482         8.37539 
        2.07396         81.8157         8.31428 
        2.08009         81.5165         8.25388 
        2.08622         80.9148         8.19415 
        2.09237         80.5226         8.13489 
        2.09851         80.1421         8.07621 
        2.10464         79.6869          8.0182 
        2.11077         79.3041         7.96083 
        2.11691         78.9628          7.9039 
        2.12305         78.3129         7.84752 
        2.12918         77.8914         7.79182 
        2.13531         77.6338         7.73666 
        2.14145         76.9436         7.68191 
         2.1476         76.5491         7.62762 
        2.15372          76.316         7.57412 
        2.15985         75.9127         7.52109 
        2.16599          75.398         7.46841 
        2.17213         75.0464         7.41629 
        2.17827         74.6353         7.36468 
         2.1844         74.1861          7.3136 
        2.19054         73.9968         7.26299 
        2.19666         73.5073         7.21293 
         2.2028         73.1874          7.1633 
        2.20893         72.7174         7.11411 
        2.21508         72.3383         7.06532 
        2.22122         71.9536         7.01698 
        2.22736         71.6075         6.96919 
        2.23349         71.2163         6.92185 
        2.23962         70.8792         6.87493 
        2.24577         70.5353          6.8284 
         2.2519         70.1902         6.78237 
        2.25802          69.762         6.73683 
        2.26417         69.3489         6.69158 
        2.27031         69.0726         6.64671 
        2.27644         68.5798         6.60238 
        2.28257          68.219         6.55846 
        2.28872         67.9727         6.51485 
        2.29486         67.4387         6.47164 
        2.30099          67.012         6.42892 
        2.30712         66.8757         6.38656 
        2.31326         66.5078         6.34451 
         2.3194         66.1314         6.30287 
        2.32553         65.7989         6.26166 
        2.33166         65.4972         6.22084 
         2.3378         65.0033         6.18033 
        2.34394         64.6998         6.14017 
        2.35007            64.4         6.10041 
        2.35619          64.108         6.06106 
        2.36233         63.7402         6.02197 
        2.36848          63.428         5.98313 
        2.37462         62.9703         5.94472 
        2.38075         62.8401         5.90668 
        2.38689         62.4089         5.86894 
        2.39303         62.0341         5.83154 
        2.39916         61.7388         5.79451 
        2.40529         61.5803         5.75779 
        2.41143          61.106         5.72137 
        2.41757         60.8657         5.68525 
         2.4237         60.5837          5.6495 
        2.42983         60.1951         5.61407 
        2.43598         59.8722         5.57884 
        2.44211          59.648         5.54398 
        2.44823          59.319         5.50949 
        2.45437         58.8877          5.4752 
        2.46052          58.693         5.44117 
        2.46665         58.4479         5.40749 
        2.47279          58.023          5.3741 
        2.47892         57.8117         5.34098 
        2.48507         57.4258          5.3081 
         2.4912         57.1641         5.27556 
