# k  (h/Mpc)    Pcb(k)  (Mpc/h)^3    Pcb_linear(k)  (Mpc/h)^3
     0.00783031         2026.33         2047.55 
       0.013688         2479.06         2478.45 
       0.019231         2470.73         2468.85 
      0.0249154         2231.41         2246.62 
      0.0312784         1913.14         1915.13 
      0.0375637         1618.51         1613.09 
      0.0433917         1394.81         1397.72 
      0.0492413         1247.81         1246.35 
      0.0555754         1129.07         1136.19 
      0.0619321          1059.3         1053.67 
       0.067871         975.149         979.863 
      0.0738098         892.842         897.707 
      0.0800417         795.234          802.02 
      0.0862327         703.478          705.53 
      0.0921407         623.305         622.057 
      0.0982031         551.788         552.408 
       0.104506         504.893         499.603 
       0.110769         468.337         464.224 
       0.116806         441.398         440.603 
       0.122832          423.59         420.932 
       0.129052         398.613         399.269 
       0.135211         373.237          373.66 
       0.141259         347.218          344.81 
       0.147318         319.055          314.73 
       0.153489         289.441          286.12 
       0.159709         266.414         261.934 
       0.165845         250.613         243.675 
       0.171974         235.043         230.491 
       0.178125         225.577          220.76 
       0.184229         217.668         212.596 
        0.19034         206.141         204.178 
       0.196428         198.714         194.539 
       0.202534         189.685         183.516 
       0.208729         176.995          171.61 
       0.214876         164.734         160.095 
       0.220989         156.557         149.854 
       0.227147         146.509         141.285 
        0.23329         139.865         134.514 
       0.239377         135.228         129.187 
       0.245482         128.725         124.643 
       0.251667         125.851         120.246 
       0.257832         121.137         115.627 
       0.263955         116.124         110.648 
       0.270079         111.007          105.38 
        0.27624         107.021         100.062 
       0.282372         102.109         95.0686 
        0.28843         97.2562         90.6508 
       0.294538          93.201         86.8152 
       0.300721         90.8351         83.5072 
        0.30691         86.9815         80.6194 
       0.313033         84.3514         77.9793 
       0.319153         80.5532         75.3888 
       0.325316         79.1441          72.721 
        0.33145         75.9974         69.9959 
       0.337538         73.7623         67.2708 
       0.343633          70.861         64.6167 
       0.349808         68.5526         62.0864 
       0.355968         66.4376         59.7841 
       0.362074         64.2167         57.7272 
       0.368217         62.2936         55.8565 
       0.374374         60.3694         54.1259 
       0.380519         58.8675         52.4779 
       0.386598          57.237         50.8829 
       0.392688         55.9417          49.293 
        0.39888         54.1889         47.6853 
       0.405048          52.776         46.1159 
       0.411186         51.3942         44.6088 
       0.417313         49.6587          43.184 
       0.423458         48.3445         41.8494 
       0.429607         47.0077         40.6033 
       0.435692         45.5363         39.4484 
       0.441815         44.7485         38.3471 
       0.447964         43.9421         37.2818 
       0.454126         42.1777         36.2411 
       0.460267         41.4195         35.2272 
       0.466387         40.1906         34.2388 
        0.47254         39.5045         33.2718 
       0.478662         38.7704         32.3449 
       0.484765          37.584         31.4624 
       0.490885         36.7131           30.62 
       0.497035         36.2084         29.8134 
       0.503198         35.2211         29.0426 
       0.509342         34.3126         28.3058 
       0.515458         33.5776          27.597 
       0.521598         32.9886         26.9048 
       0.527764         32.2653         26.2283 
       0.533884         31.6965         25.5762 
           0.54         30.9826         24.9448 
       0.546137         30.4669         24.3321 
       0.552299         29.9456         23.7388 
       0.558452         29.0138         23.1688 
       0.564573         28.5781         22.6239 
       0.570708         28.0921         22.0979 
       0.576825         27.3954          21.591 
       0.582926         26.8699         21.1008 
       0.589034         26.1602         20.6237 
       0.595184         25.8144         20.1569 
       0.601379          25.306         19.7008 
       0.607522         24.8449         19.2622 
       0.613639         24.5829         18.8388 
       0.619772         23.9318         18.4275 
       0.625918         23.7826         18.0281 
       0.632068         23.3865         17.6409 
       0.638161         22.8655         17.2691 
         0.6443         22.4036         16.9059 
       0.650464         21.9944          16.552 
       0.656582         21.8438         16.2109 
       0.662703         21.4189         15.8791 
       0.668861         21.0116         15.5543 
       0.675024         20.6296          15.238 
       0.681124         20.2708         14.9336 
       0.687237           19.93         14.6369 
       0.693381         19.7348         14.3471 
       0.699536         19.2142         14.0649 
       0.705665         19.1152         13.7918 
       0.711789         18.7095         13.5263 
       0.717957         18.4391         13.2662 
        0.72409         18.1557         13.0145 
       0.730186         17.9029         12.7708 
       0.736317         17.6989         12.5319 
       0.742472         17.3962         12.2982 
       0.748622         17.1917         12.0706 
        0.75476         16.8632         11.8493 
       0.760888         16.6265         11.6339 
       0.767043         16.4256          11.423 
       0.773185         16.1158         11.2178 
       0.779291         16.0176         11.0189 
       0.785407         15.8053         10.8246 
       0.791564         15.5239         10.6338 
       0.797719         15.1936         10.4477 
       0.803834         15.1533         10.2673 
       0.809972         15.0109         10.0906 
       0.816124         14.6617         9.91762 
       0.822261         14.4991          9.7492 
       0.828378         14.3393         9.58521 
       0.834502         14.2053         9.42487 
       0.840667          13.987         9.26718 
       0.846816         13.7332         9.11355 
       0.852925         13.6042          8.9644 
       0.859047         13.4479         8.81828 
       0.865192         13.3198         8.67496 
       0.871341         13.1967         8.53474 
       0.877463         12.9635         8.39827 
       0.883569         12.7862         8.26515 
       0.889708         12.5831         8.13425 
       0.895864         12.4839         8.00586 
       0.902008         12.3834         7.88053 
       0.908149         12.2424         7.75797 
       0.914301         12.1267         7.63782 
       0.920448         11.9064         7.52035 
       0.926574         11.7885         7.40577 
       0.932687         11.6634         7.29383 
       0.938823         11.5059         7.18381 
       0.944975         11.3674         7.07582 
       0.951105         11.2644         6.97045 
       0.957225         11.1776         6.86741 
       0.963368         11.0529         6.76611 
       0.969511         10.9441         6.66686 
       0.975621         10.8237         6.57014 
       0.981748         10.6896          6.4751 
       0.987916         10.6126         6.38135 
        0.99406         10.4551         6.28981 
        1.00019         10.2979         6.20025 
        1.00632         10.2767         6.11252 
        1.01246         10.1599         6.02637 
        1.01859          10.002         5.94202 
        1.02471         9.94753         5.85939 
        1.03085         9.84389         5.77806 
        1.03698         9.69532         5.69844 
        1.04314         9.63753            5.62 
        1.04929         9.51219         5.54321 
        1.05541         9.40454         5.46818 
        1.06154          9.3387         5.39435 
        1.06769         9.29132         5.32178 
        1.07382          9.1517         5.25078 
        1.07993         9.07392         5.18125 
        1.08607          8.9965         5.11269 
        1.09222         8.91753          5.0453 
        1.09836         8.81167         4.97921 
        1.10449         8.73838         4.91439 
        1.11063         8.64723         4.85066 
        1.11677         8.60133         4.78808 
         1.1229         8.53791         4.72672 
        1.12903         8.42939         4.66638 
        1.13518         8.32761         4.60705 
        1.14131         8.26847         4.54878 
        1.14745         8.18826         4.49156 
        1.15359         8.13551         4.43532 
        1.15973         8.05817         4.38002 
        1.16584         7.94259         4.32591 
        1.17197         7.89363         4.27264 
        1.17811         7.85514         4.22011 
        1.18424         7.77959         4.16862 
        1.19038         7.74366         4.11783 
        1.19652          7.6514         4.06792 
        1.20267         7.57193         4.01883 
        1.20881         7.54822         3.97057 
        1.21495         7.48056         3.92317 
        1.22108         7.38944         3.87656 
         1.2272         7.34241         3.83081 
        1.23334         7.26103          3.7857 
        1.23949         7.19936         3.74121 
        1.24562         7.16502         3.69756 
        1.25174         7.10574         3.65467 
        1.25789         7.05033         3.61233 
        1.26402         7.01276         3.57074 
        1.27014          6.9477          3.5299 
        1.27628         6.86533         3.48958 
        1.28244         6.80176         3.44982 
        1.28858         6.79715         3.41073 
        1.29471         6.71637         3.37233 
        1.30084         6.65092         3.33457 
        1.30697         6.64667         3.29732 
        1.31312         6.53598         3.26059 
        1.31925         6.49543         3.22453 
        1.32537         6.45302         3.18906 
        1.33151         6.42685         3.15399 
        1.33765         6.35551         3.11947 
        1.34378         6.30918         3.08554 
        1.34992         6.26933         3.05209 
        1.35606         6.21519         3.01907 
         1.3622         6.18172         2.98659 
        1.36833         6.12677         2.95467 
        1.37445         6.08833         2.92323 
        1.38059         6.06637         2.89215 
        1.38675         6.00984         2.86146 
        1.39288         5.97747         2.83133 
        1.39901          5.9066         2.80164 
        1.40515         5.87882         2.77232 
         1.4113         5.83802         2.74343 
        1.41742         5.79759         2.71506 
        1.42355         5.74413         2.68704 
         1.4297         5.71206         2.65933 
        1.43585         5.68679         2.63202 
        1.44198         5.65956          2.6052 
        1.44809         5.60492         2.57881 
        1.45423         5.56058         2.55268 
        1.46036         5.51885         2.52696 
        1.46649         5.48837         2.50159 
        1.47263         5.43964         2.47655 
        1.47877         5.40547         2.45186 
        1.48491         5.37572         2.42747 
        1.49104         5.33998         2.40346 
        1.49718          5.3091         2.37976 
        1.50333          5.2785         2.35634 
        1.50947         5.23359         2.33328 
         1.5156         5.20509         2.31057 
        1.52172          5.1762         2.28816 
        1.52787          5.1438           2.266 
          1.534         5.10079         2.24416 
        1.54013         5.08023         2.22263 
        1.54627         5.03252         2.20134 
        1.55241         5.00454         2.18033 
        1.55855         4.98452         2.15962 
        1.56467         4.94569         2.13924 
         1.5708         4.92354         2.11907 
        1.57695         4.87867         2.09912 
        1.58308         4.84307         2.07948 
        1.58922         4.83271         2.06008 
        1.59535          4.8069         2.04093 
         1.6015         4.76393         2.02199 
        1.60764         4.73115         2.00331 
        1.61376         4.71262         1.98491 
        1.61989         4.68508         1.96673 
        1.62604         4.65043         1.94874 
        1.63218         4.64005         1.93098 
        1.63831         4.60641         1.91349 
        1.64444         4.58174         1.89621 
        1.65059          4.5304         1.87909 
        1.65673         4.53165         1.86221 
        1.66285         4.48508         1.84558 
        1.66898         4.46367         1.82915 
        1.67512         4.43975         1.81289 
        1.68127         4.41204         1.79681 
         1.6874         4.39765         1.78097 
        1.69353         4.35785         1.76532 
        1.69967         4.34214         1.74982 
        1.70581         4.31907         1.73452 
        1.71193         4.29086         1.71946 
        1.71806         4.27339         1.70454 
        1.72421         4.24396         1.68977 
        1.73035          4.2295         1.67519 
        1.73649         4.20169         1.66079 
        1.74262         4.17357         1.64657 
        1.74876         4.15911         1.63251 
        1.75489         4.13836         1.61863 
        1.76101          4.1027         1.60493 
        1.76715          4.0925         1.59136 
        1.77329            4.07         1.57793 
        1.77943         4.03284         1.56465 
        1.78557         4.02511         1.55155 
        1.79171         4.00099         1.53859 
        1.79785         3.97892         1.52578 
        1.80399         3.95419         1.51311 
        1.81012         3.93644         1.50061 
        1.81625         3.91653         1.48825 
        1.82239         3.89826         1.47602 
        1.82853         3.87276         1.46392 
        1.83466         3.85983         1.45198 
        1.84078         3.84265         1.44018 
        1.84692         3.82909         1.42849 
        1.85306          3.7951         1.41692 
         1.8592         3.77299         1.40549 
        1.86533         3.75709          1.3942 
        1.87147         3.74308         1.38301 
        1.87761         3.71997         1.37195 
        1.88375         3.70137         1.36102 
        1.88988         3.68225         1.35022 
        1.89601         3.66508         1.33953 
        1.90215         3.64801         1.32894 
        1.90829         3.62463         1.31848 
        1.91442         3.61174         1.30813 
        1.92056         3.59139          1.2979 
         1.9267         3.57177         1.28777 
        1.93284         3.55831         1.27774 
        1.93897         3.54003         1.26783 
        1.94509         3.52327         1.25805 
        1.95123         3.50417         1.24835 
        1.95737         3.48099         1.23875 
        1.96349         3.47353         1.22927 
        1.96964          3.4605         1.21986 
        1.97578         3.43203         1.21055 
        1.98192         3.42495         1.20135 
        1.98805         3.40956         1.19225 
        1.99419         3.39088         1.18324 
        2.00033            3.38         1.17432 
        2.00647         3.35972         1.16549 
         2.0126         3.34935         1.15677 
        2.01874         3.32317         1.14813 
        2.02488         3.31689         1.13956 
        2.03101         3.29035          1.1311 
        2.03714         3.27926         1.12274 
        2.04328         3.26381         1.11444 
        2.04941         3.24332         1.10624 
        2.05554         3.23415         1.09813 
        2.06167         3.22353         1.09008 
        2.06781         3.20614         1.08212 
        2.07396         3.19692         1.07422 
        2.08009          3.1801         1.06642 
        2.08622         3.16152          1.0587 
        2.09237          3.1481         1.05105 
        2.09851         3.13831         1.04346 
        2.10464         3.12554         1.03597 
        2.11077         3.10578         1.02856 
        2.11691         3.09368          1.0212 
        2.12305         3.08367         1.01392 
        2.12918          3.0745         1.00672 
        2.13531          3.0592        0.999594 
        2.14145         3.04512         0.99252 
         2.1476          3.0266        0.985505 
        2.15372          3.0136        0.978594 
        2.15985         3.00976        0.971742 
        2.16599         2.98895        0.964935 
        2.17213         2.97467        0.958201 
        2.17827         2.96787        0.951533 
         2.1844         2.95236        0.944934 
        2.19054         2.94155        0.938395 
        2.19666         2.92537        0.931927 
         2.2028         2.91255        0.925515 
        2.20893         2.90324        0.919159 
        2.21508         2.88764        0.912856 
        2.22122         2.87616         0.90661 
        2.22736         2.86583        0.900435 
        2.23349         2.85756        0.894319 
        2.23962         2.84254        0.888257 
        2.24577         2.83202        0.882245 
         2.2519          2.8233        0.876298 
        2.25802         2.80957        0.870414 
        2.26417         2.80049        0.864568 
        2.27031         2.78516        0.858771 
        2.27644         2.77347        0.853043 
        2.28257          2.7597        0.847368 
        2.28872         2.75665        0.841734 
        2.29486         2.73952        0.836152 
        2.30099         2.72709        0.830632 
        2.30712         2.71632        0.825159 
        2.31326          2.7047        0.819726 
         2.3194         2.69716        0.814345 
        2.32553         2.68664        0.809022 
        2.33166         2.67872        0.803748 
         2.3378         2.66628        0.798514 
        2.34394         2.65558        0.793324 
        2.35007         2.64318        0.788188 
        2.35619         2.63629        0.783104 
        2.36233         2.62631        0.778052 
        2.36848         2.61162        0.773035 
        2.37462         2.60788        0.768072 
        2.38075         2.59357        0.763158 
        2.38689         2.58817        0.758282 
        2.39303         2.57489         0.75345 
        2.39916         2.56567        0.748664 
        2.40529           2.556        0.743921 
        2.41143         2.54545        0.739215 
        2.41757         2.53676        0.734548 
         2.4237         2.52977         0.72993 
        2.42983         2.50907        0.725351 
        2.43598         2.50923          0.7208 
        2.44211         2.49361        0.716296 
        2.44823         2.48967        0.711839 
        2.45437         2.47631        0.707409 
        2.46052         2.47214        0.703012 
        2.46665         2.46244        0.698661 
        2.47279         2.45137        0.694347 
        2.47892         2.44396        0.690068 
        2.48507         2.43465         0.68582 
         2.4912         2.42005        0.681616 
