# k  (h/Mpc)    Pcb(k)  (Mpc/h)^3    Pcb_linear(k)  (Mpc/h)^3
     0.00783031         12317.9         12396.8 
       0.013688         14358.5         14691.1 
       0.019231           14132           14312 
      0.0249154         12739.5         12691.4 
      0.0312784         10406.5         10463.4 
      0.0375637         8411.18         8503.85 
      0.0433917         7147.46         7145.22 
      0.0492413         6190.82         6227.92 
      0.0555754         5632.88         5613.92 
      0.0619321          5084.6         5216.87 
       0.067871         4842.58         4896.49 
      0.0738098          4509.1         4532.05 
      0.0800417         4069.79         4071.93 
      0.0862327          3556.6         3567.48 
      0.0921407         3125.38         3100.47 
      0.0982031         2764.69         2690.39 
       0.104506         2411.94         2369.85 
       0.110769         2217.86         2158.63 
       0.116806         2122.02         2034.06 
       0.122832         2011.19          1954.1 
       0.129052         1928.09         1882.26 
       0.135211         1869.04         1794.15 
       0.141259         1727.84         1679.58 
       0.147318         1581.53         1541.48 
       0.153489         1456.65          1392.6 
       0.159709         1360.41         1253.09 
       0.165845         1225.31         1139.64 
       0.171974         1183.28         1055.76 
       0.178125            1131          998.69 
       0.184229         1054.45         961.021 
        0.19034         1038.58         931.955 
       0.196428         1008.74         902.059 
       0.202534         942.196         864.834 
       0.208729         922.298         817.936 
       0.214876         874.855         764.981 
       0.220989         815.131          711.11 
       0.227147         787.594         660.996 
        0.23329         750.646         618.903 
       0.239377         737.923         586.275 
       0.245482         698.343         561.638 
       0.251667         672.734         542.388 
       0.257832         664.103         525.712 
       0.263955         629.653          508.78 
       0.270079         607.037         489.775 
        0.27624         581.671         468.209 
       0.282372         568.223         445.151 
        0.28843         560.831         422.331 
       0.294538         530.594         400.781 
       0.300721         514.551         381.614 
        0.30691         504.192         365.445 
       0.313033         480.827         352.171 
       0.319153         473.598         340.804 
       0.325316         464.955         330.346 
        0.33145         453.341         320.038 
       0.337538         436.631         309.424 
       0.343633         424.174         298.247 
       0.349808         412.833         286.634 
       0.355968         404.846         275.155 
       0.362074         390.373         264.356 
       0.368217         387.508         254.407 
       0.374374         379.455         245.469 
       0.380519         363.763          237.54 
       0.386598         359.531         230.419 
       0.392688         350.109         223.747 
        0.39888          341.52         217.173 
       0.405048         334.181         210.633 
       0.411186         332.802         204.105 
       0.417313         327.527         197.598 
       0.423458         318.359         191.189 
       0.429607         309.228          185.04 
       0.435692         304.611         179.306 
       0.441815         298.701         173.922 
       0.447964         291.838         168.912 
       0.454126         288.202         164.219 
       0.460267         283.675         159.775 
       0.466387         277.503         155.506 
        0.47254         274.047         151.319 
       0.478662         267.324         147.217 
       0.484765          263.73         143.196 
       0.490885         260.351         139.268 
       0.497035          255.64         135.455 
       0.503198         254.461         131.792 
       0.509342         248.111         128.313 
       0.515458         244.059         125.028 
       0.521598         239.358         121.889 
       0.527764         236.554         118.865 
       0.533884          234.97         115.966 
           0.54         230.869         113.156 
       0.546137         225.678         110.412 
       0.552299          224.14         107.725 
       0.558452         220.257         105.111 
       0.564573         219.104         102.589 
       0.570708         214.286         100.148 
       0.576825         211.113         97.8066 
       0.582926          209.27         95.5603 
       0.589034         205.823         93.3918 
       0.595184         204.284         91.2829 
       0.601379         200.972         89.2281 
       0.607522         196.465         87.2532 
       0.613639         195.621         85.3439 
       0.619772         194.092         83.4818 
       0.625918         191.653         81.6656 
       0.632068         188.017          79.898 
       0.638161         187.189         78.1974 
         0.6443         184.899         76.5363 
       0.650464         181.849          74.922 
       0.656582         180.313         73.3706 
       0.662703          179.13         71.8658 
       0.668861         175.425          70.396 
       0.675024         175.078          68.966 
       0.681124         172.626         67.5888 
       0.687237         171.143          66.245 
       0.693381         168.449         64.9306 
       0.699536         167.343         63.6494 
       0.705665         165.682         62.4086 
       0.711789         163.568         61.2028 
       0.717957         161.995         60.0214 
        0.72409         159.872         58.8786 
       0.730186         160.475          57.773 
       0.736317         158.035         56.6901 
       0.742472         155.809         55.6312 
       0.748622         153.724         54.6004 
        0.75476         154.099         53.5979 
       0.760888         152.083         52.6222 
       0.767043         149.593         51.6671 
       0.773185         148.236         50.7379 
       0.779291         146.768         49.8371 
       0.785407          145.99         48.9572 
       0.791564         144.632         48.0932 
       0.797719         142.297         47.2508 
       0.803834         142.859         46.4342 
       0.809972         141.277         45.6341 
       0.816124         138.835         44.8513 
       0.822261         138.072         44.0891 
       0.828378         137.621          43.347 
       0.834502         136.052         42.6215 
       0.840667         135.666         41.9079 
       0.846816         133.543         41.2127 
       0.852925         132.694         40.5378 
       0.859047         131.507         39.8766 
       0.865192         130.957         39.2281 
       0.871341         129.573         38.5938 
       0.877463         128.307         37.9764 
       0.883569         128.302         37.3742 
       0.889708         126.998         36.7821 
       0.895864         125.762         36.2014 
       0.902008         124.533         35.6345 
       0.908149         123.227         35.0802 
       0.914301         122.709         34.5369 
       0.920448         122.617         34.0056 
       0.926574         120.501         33.4875 
       0.932687         120.467         32.9813 
       0.938823         119.571         32.4839 
       0.944975         118.695         31.9956 
       0.951105         117.541         31.5191 
       0.957225         116.897         31.0533 
       0.963368         115.941         30.5953 
       0.969511         115.057         30.1466 
       0.975621         113.681         29.7094 
       0.981748         113.263         29.2798 
       0.987916         112.505         28.8561 
        0.99406         111.953         28.4423 
        1.00019         111.095         28.0376 
        1.00632         110.139         27.6412 
        1.01246         109.579         27.2519 
        1.01859         108.904         26.8707 
        1.02471         108.201         26.4974 
        1.03085         107.273         26.1299 
        1.03698         106.461         25.7703 
        1.04314         106.027         25.4159 
        1.04929         105.568          25.069 
        1.05541         104.836         24.7301 
        1.06154         103.834         24.3966 
        1.06769         103.285         24.0688 
        1.07382         102.723         23.7481 
        1.07993         102.088         23.4341 
        1.08607         101.527         23.1244 
        1.09222         100.697         22.8201 
        1.09836         100.039         22.5216 
        1.10449         99.4906         22.2288 
        1.11063         98.8483         21.9409 
        1.11677         98.3412         21.6583 
         1.1229         97.3751         21.3812 
        1.12903         96.8419         21.1086 
        1.13518         96.2194         20.8407 
        1.14131         95.8276         20.5775 
        1.14745         95.3681         20.3191 
        1.15359         94.3506          20.065 
        1.15973         94.0858         19.8152 
        1.16584         93.4327         19.5708 
        1.17197         93.0261         19.3302 
        1.17811         92.2464         19.0929 
        1.18424         91.7536         18.8603 
        1.19038         91.3643         18.6309 
        1.19652          90.881         18.4055 
        1.20267         90.2556         18.1838 
        1.20881         89.5543         17.9658 
        1.21495         89.2208         17.7517 
        1.22108         88.7701         17.5412 
         1.2272         88.1815         17.3346 
        1.23334         87.8909         17.1309 
        1.23949         87.2802           16.93 
        1.24562         86.5807         16.7329 
        1.25174         86.4882         16.5392 
        1.25789         85.7272          16.348 
        1.26402         85.3986         16.1602 
        1.27014         84.7469         15.9759 
        1.27628          84.317         15.7938 
        1.28244         84.1708         15.6143 
        1.28858         83.4087         15.4378 
        1.29471         82.9371         15.2644 
        1.30084         82.3289         15.0939 
        1.30697         82.0995         14.9257 
        1.31312         81.6463         14.7599 
        1.31925         81.0472         14.5971 
        1.32537            80.7          14.437 
        1.33151         80.5769         14.2786 
        1.33765         79.9212         14.1228 
        1.34378         79.5364         13.9696 
        1.34992          79.254         13.8185 
        1.35606         78.7839         13.6694 
         1.3622         78.5278         13.5227 
        1.36833          77.858         13.3786 
        1.37445         77.5277         13.2367 
        1.38059         77.1533         13.0963 
        1.38675         76.5737         12.9577 
        1.39288         76.2161         12.8216 
        1.39901         75.8467         12.6876 
        1.40515         75.4346         12.5552 
         1.4113         75.0761         12.4247 
        1.41742         74.6952         12.2966 
        1.42355         74.4581         12.1701 
         1.4297         73.9395         12.0449 
        1.43585         73.7231         11.9216 
        1.44198         73.0672         11.8005 
        1.44809         72.6155         11.6813 
        1.45423         72.6963         11.5633 
        1.46036         72.0824         11.4471 
        1.46649         71.5767         11.3325 
        1.47263         71.2188         11.2194 
        1.47877         70.9765         11.1079 
        1.48491          70.536         10.9978 
        1.49104         70.1081         10.8893 
        1.49718         69.8076         10.7823 
        1.50333         69.6089         10.6765 
        1.50947         69.2641         10.5724 
         1.5156         69.0401         10.4698 
        1.52172         68.4091         10.3686 
        1.52787         68.1494         10.2685 
          1.534         67.8039         10.1699 
        1.54013         67.6208         10.0727 
        1.54627         67.0169         9.97652 
        1.55241         66.9995         9.88164 
        1.55855         66.3148         9.78812 
        1.56467          65.901         9.69608 
         1.5708         65.7564         9.60496 
        1.57695         65.4319         9.51488 
        1.58308         65.1323         9.42617 
        1.58922         64.9108         9.33853 
        1.59535         64.7933         9.25204 
         1.6015         64.3295         9.16653 
        1.60764         63.9864         9.08214 
        1.61376         63.7552         8.99905 
        1.61989         63.2142         8.91693 
        1.62604         63.0992         8.83566 
        1.63218         62.7546         8.75545 
        1.63831          62.551         8.67642 
        1.64444         62.2433         8.59834 
        1.65059         61.8391         8.52103 
        1.65673         61.6381         8.44476 
        1.66285         61.1895         8.36964 
        1.66898         60.8099         8.29541 
        1.67512         60.5807         8.22193 
        1.68127         60.4886         8.14928 
         1.6874         60.0753         8.07768 
        1.69353          59.771         8.00698 
        1.69967         59.5516         7.93695 
        1.70581         59.2437          7.8678 
        1.71193         58.9039         7.79974 
        1.71806          58.761         7.73234 
        1.72421          58.468          7.6656 
        1.73035         58.1553         7.59973 
        1.73649         57.8599         7.53465 
        1.74262         57.5131         7.47038 
        1.74876         57.3991         7.40682 
        1.75489         57.0965         7.34414 
        1.76101         56.8474          7.2822 
        1.76715         56.5005         7.22089 
        1.77329         56.2356         7.16022 
        1.77943         56.1635         7.10021 
        1.78557         55.8104         7.04099 
        1.79171          55.432         6.98243 
        1.79785         55.2276         6.92453 
        1.80399         55.0616          6.8673 
        1.81012         54.7208         6.81079 
        1.81625          54.492         6.75495 
        1.82239         54.1928         6.69965 
        1.82853         53.9896           6.645 
        1.83466         53.6919         6.59101 
        1.84078          53.432         6.53768 
        1.84692          53.439         6.48485 
        1.85306         53.0904         6.43254 
         1.8592         52.7901          6.3809 
        1.86533          52.549         6.32985 
        1.87147         52.2364          6.2793 
        1.87761         52.0005         6.22928 
        1.88375         51.8792         6.17987 
        1.88988         51.4991         6.13104 
        1.89601         51.4366         6.08272 
        1.90215         51.0606         6.03488 
        1.90829         50.8884         5.98757 
        1.91442         50.5573         5.94077 
        1.92056         50.4687         5.89452 
         1.9267         50.1949         5.84871 
        1.93284         50.0074         5.80335 
        1.93897         49.6355         5.75857 
        1.94509         49.4918         5.71436 
        1.95123          49.279          5.6705 
        1.95737         49.1939         5.62706 
        1.96349         48.9148          5.5842 
        1.96964         48.6513         5.54166 
        1.97578         48.3797         5.49954 
        1.98192          48.121         5.45795 
        1.98805         47.8282         5.41678 
        1.99419         47.7946         5.37604 
        2.00033         47.5132          5.3357 
        2.00647         47.2832         5.29578 
         2.0126         47.1299         5.25634 
        2.01874         47.0214         5.21724 
        2.02488         46.7415         5.17851 
        2.03101         46.5724         5.14024 
        2.03714         46.2918         5.10239 
        2.04328         46.1317         5.06488 
        2.04941         45.7388         5.02778 
        2.05554         45.6983         4.99108 
        2.06167         45.5086          4.9547 
        2.06781         45.3245         4.91867 
        2.07396         45.0258         4.88296 
        2.08009         44.8708         4.84765 
        2.08622         44.7156         4.81274 
        2.09237         44.4806         4.77811 
        2.09851         44.1898         4.74381 
        2.10464          44.025          4.7099 
        2.11077         43.8996         4.67637 
        2.11691          43.677         4.64309 
        2.12305         43.4857         4.61013 
        2.12918         43.2354         4.57758 
        2.13531         43.0167         4.54533 
        2.14145         42.8853         4.51332 
         2.1476         42.8559         4.48158 
        2.15372         42.6028         4.45031 
        2.15985         42.3188         4.41931 
        2.16599         42.1369         4.38851 
        2.17213         42.0095         4.35804 
        2.17827          41.823         4.32786 
         2.1844         41.5096           4.298 
        2.19054         41.5535         4.26841 
        2.19666         41.2814         4.23914 
         2.2028         41.0137         4.21012 
        2.20893          40.882         4.18135 
        2.21508         40.6928         4.15283 
        2.22122         40.4807         4.12456 
        2.22736         40.3085         4.09661 
        2.23349         40.1697         4.06893 
        2.23962         40.0367         4.04149 
        2.24577         39.8442         4.01428 
         2.2519         39.6204         3.98735 
        2.25802         39.4221         3.96072 
        2.26417          39.214         3.93426 
        2.27031         39.1189         3.90801 
        2.27644         39.0026         3.88208 
        2.28257         38.7783         3.85639 
        2.28872         38.6749         3.83088 
        2.29486         38.4627         3.80561 
        2.30099         38.2703         3.78062 
        2.30712         38.1209         3.75584 
        2.31326          37.992         3.73125 
         2.3194         37.8076         3.70688 
        2.32553         37.6491         3.68278 
        2.33166         37.4714          3.6589 
         2.3378         37.2537          3.6352 
        2.34394         37.1341          3.6117 
        2.35007         37.0271         3.58844 
        2.35619         36.8458         3.56542 
        2.36233         36.6503         3.54254 
        2.36848         36.5597         3.51982 
        2.37462         36.2925         3.49734 
        2.38075         36.2474         3.47509 
        2.38689         36.0346           3.453 
        2.39303            35.9         3.43112 
        2.39916         35.7324         3.40944 
        2.40529         35.5931         3.38796 
        2.41143         35.4875         3.36664 
        2.41757          35.332          3.3455 
         2.4237         35.1485         3.32458 
        2.42983         34.9982         3.30384 
        2.43598         34.8572         3.28323 
        2.44211         34.6374         3.26282 
        2.44823         34.5243         3.24263 
        2.45437         34.4027         3.22256 
        2.46052         34.1859         3.20264 
        2.46665         34.1175         3.18293 
        2.47279         33.8582         3.16339 
        2.47892         33.8189           3.144 
        2.48507         33.6897         3.12475 
         2.4912         33.4688          3.1057 
