# k  (h/Mpc)    P(k)  (Mpc/h)^3    P_linear(k)  (Mpc/h)^3
     0.00783031          5693.6         5747.49 
       0.013688         6681.16         6803.38 
       0.019231         6563.84         6624.45 
      0.0249154          5887.6         5872.59 
      0.0312784         4829.29         4840.67 
      0.0375637         3910.25         3933.64 
      0.0433917          3312.9         3304.91 
      0.0492413         2872.56         2880.46 
      0.0555754         2610.34         2596.35 
      0.0619321         2373.69         2412.64 
       0.067871         2254.59         2264.41 
      0.0738098         2092.57         2095.83 
      0.0800417         1887.98         1883.02 
      0.0862327         1648.81         1649.72 
      0.0921407         1440.61         1433.74 
      0.0982031         1265.69         1244.09 
       0.104506         1104.06         1095.86 
       0.110769         1011.28         998.179 
       0.116806         964.941         940.573 
       0.122832         916.188         903.594 
       0.129052         883.885         870.368 
       0.135211         850.682         829.626 
       0.141259         789.531         776.642 
       0.147318         720.622         712.782 
       0.153489          659.34         643.937 
       0.159709         606.259         579.426 
       0.165845         544.612         526.965 
       0.171974         521.397          488.18 
       0.178125         494.608          461.79 
       0.184229         467.173         444.371 
        0.19034         458.128          430.93 
       0.196428         443.789         417.106 
       0.202534         415.956         399.892 
       0.208729         403.711         378.207 
       0.214876         382.596         353.721 
       0.220989         352.727         328.811 
       0.227147         338.365         305.638 
        0.23329         320.844         286.175 
       0.239377         310.342         271.088 
       0.245482         294.465         259.696 
       0.251667         282.617         250.795 
       0.257832         279.577         243.084 
       0.263955         264.884         235.254 
       0.270079         254.703         226.466 
        0.27624         243.701         216.495 
       0.282372          235.29         205.832 
        0.28843         231.126          195.28 
       0.294538         218.782         185.316 
       0.300721         209.117         176.454 
        0.30691         204.871         168.976 
       0.313033         195.677         162.839 
       0.319153          192.28         157.583 
       0.325316         186.207         152.748 
        0.33145         180.561         147.981 
       0.337538         174.425         143.074 
       0.343633         169.024         137.905 
       0.349808         163.452         132.536 
       0.355968         159.092         127.228 
       0.362074         155.073         122.234 
       0.368217         151.505         117.634 
       0.374374         147.375         113.501 
       0.380519         141.117         109.835 
       0.386598         138.246         106.542 
       0.392688         134.135         103.458 
        0.39888          131.66         100.418 
       0.405048          128.61         97.3936 
       0.411186         126.256         94.3757 
       0.417313         123.011         91.3661 
       0.423458         119.734         88.4028 
       0.429607         116.989         85.5596 
       0.435692         115.081         82.9083 
       0.441815         111.568         80.4184 
       0.447964         108.221         78.1024 
       0.454126         106.233         75.9324 
       0.460267         105.258         73.8777 
       0.466387         102.577         71.9037 
        0.47254         101.365         69.9679 
       0.478662         97.8189         68.0706 
       0.484765         96.2923         66.2115 
       0.490885         93.9852         64.3953 
       0.497035         93.1409         62.6325 
       0.503198         91.1166         60.9388 
       0.509342         88.7196         59.3298 
       0.515458         87.4458         57.8111 
       0.521598         85.2432         56.3595 
       0.527764         84.2976         54.9614 
       0.533884          83.571         53.6209 
           0.54         81.2696         52.3213 
       0.546137          79.307         51.0526 
       0.552299         77.9337         49.8103 
       0.558452         76.4784         48.6018 
       0.564573         76.1216         47.4355 
       0.570708          73.892         46.3066 
       0.576825         73.1264         45.2242 
       0.582926         72.2037         44.1855 
       0.589034         70.8595         43.1828 
       0.595184         69.9452         42.2077 
       0.601379         68.2801         41.2576 
       0.607522         67.0116         40.3445 
       0.613639         66.4467         39.4616 
       0.619772         65.1626         38.6007 
       0.625918         64.5095         37.7608 
       0.632068         63.4208         36.9435 
       0.638161         62.3624         36.1572 
         0.6443         61.8763         35.3891 
       0.650464         60.4534         34.6427 
       0.656582         60.2135         33.9254 
       0.662703         59.3324         33.2295 
       0.668861         57.9734           32.55 
       0.675024         57.7632         31.8888 
       0.681124         56.9441         31.2519 
       0.687237         55.8589         30.6306 
       0.693381         55.2369         30.0228 
       0.699536         54.6519         29.4304 
       0.705665         53.8747         28.8567 
       0.711789         53.0829         28.2991 
       0.717957         52.2983         27.7529 
        0.72409           51.79         27.2245 
       0.730186         51.4525         26.7133 
       0.736317          50.515         26.2126 
       0.742472         49.8574         25.7229 
       0.748622         49.1795         25.2463 
        0.75476         48.5887         24.7828 
       0.760888         48.4275         24.3316 
       0.767043         47.4083           23.89 
       0.773185         46.8139         23.4604 
       0.779291         46.2841         23.0438 
       0.785407         45.7417          22.637 
       0.791564         45.6629         22.2375 
       0.797719         44.8192          21.848 
       0.803834         44.5027         21.4704 
       0.809972          43.952         21.1005 
       0.816124         43.4847         20.7385 
       0.822261         42.8776         20.3861 
       0.828378         42.6989         20.0429 
       0.834502         42.1568         19.7074 
       0.840667         41.7966         19.3775 
       0.846816         41.2423         19.0561 
       0.852925         40.8438          18.744 
       0.859047         40.7355         18.4383 
       0.865192         40.0442         18.1384 
       0.871341         39.5767         17.8451 
       0.877463         39.2213         17.5596 
       0.883569         39.0858         17.2812 
       0.889708          38.624         17.0074 
       0.895864         38.2299         16.7389 
       0.902008         37.8706         16.4768 
       0.908149         37.4168         16.2205 
       0.914301         37.1438         15.9693 
       0.920448          36.927         15.7236 
       0.926574          36.377         15.4841 
       0.932687         36.0641           15.25 
       0.938823         35.6514           15.02 
       0.944975          35.321         14.7942 
       0.951105         35.0959         14.5739 
       0.957225         34.8079         14.3585 
       0.963368         34.4949         14.1468 
       0.969511         34.1791         13.9393 
       0.975621         33.9307         13.7371 
       0.981748         33.5609         13.5385 
       0.987916         33.3069         13.3425 
        0.99406         32.9711         13.1513 
        1.00019         32.7258         12.9641 
        1.00632         32.4855         12.7808 
        1.01246          32.186         12.6008 
        1.01859         31.9446         12.4246 
        1.02471         31.6427         12.2519 
        1.03085         31.4708          12.082 
        1.03698         31.2925         11.9157 
        1.04314         30.9824         11.7519 
        1.04929         30.6083         11.5915 
        1.05541         30.5539         11.4348 
        1.06154         30.2975         11.2806 
        1.06769         29.8839          11.129 
        1.07382         29.7488         10.9807 
        1.07993          29.539         10.8355 
        1.08607         29.2877         10.6923 
        1.09222         29.1054         10.5516 
        1.09836         28.8348         10.4136 
        1.10449         28.7282         10.2782 
        1.11063         28.4346         10.1451 
        1.11677         28.3893         10.0144 
         1.1229         28.0745         9.88628 
        1.12903         27.8518         9.76028 
        1.13518          27.783         9.63637 
        1.14131         27.5174         9.51469 
        1.14745         27.2461         9.39518 
        1.15359         26.9877         9.27772 
        1.15973         26.9173         9.16222 
        1.16584         26.6946         9.04921 
        1.17197         26.3796         8.93795 
        1.17811         26.2902         8.82823 
        1.18424          25.959         8.72069 
        1.19038          25.907         8.61463 
        1.19652         25.6996         8.51038 
        1.20267          25.595         8.40787 
        1.20881         25.3756         8.30707 
        1.21495         25.2807          8.2081 
        1.22108         25.1744         8.11076 
         1.2272         24.9287         8.01523 
        1.23334         24.8056         7.92104 
        1.23949         24.6057         7.82814 
        1.24562         24.4005         7.73699 
        1.25174         24.2977         7.64744 
        1.25789         24.1776         7.55905 
        1.26402         24.0217         7.47221 
        1.27014         23.8854         7.38696 
        1.27628         23.6529         7.30279 
        1.28244         23.6635         7.21978 
        1.28858         23.4102         7.13817 
        1.29471         23.2398         7.05802 
        1.30084         23.1022         6.97917 
        1.30697         22.9838         6.90141 
        1.31312         22.8198         6.82473 
        1.31925         22.6555         6.74946 
        1.32537         22.4963          6.6754 
        1.33151         22.3402         6.60219 
        1.33765         22.3324         6.53013 
        1.34378         22.1952         6.45929 
        1.34992         22.0147         6.38945 
        1.35606         21.8435          6.3205 
         1.3622         21.7523         6.25269 
        1.36833          21.667         6.18604 
        1.37445         21.4844          6.1204 
        1.38059         21.3786         6.05552 
        1.38675         21.2527         5.99142 
        1.39288         21.1112         5.92851 
        1.39901         20.9798         5.86653 
        1.40515         20.9116         5.80531 
         1.4113         20.8172         5.74498 
        1.41742         20.6915         5.68574 
        1.42355         20.5191         5.62723 
         1.4297         20.4277         5.56937 
        1.43585         20.3101         5.51234 
        1.44198           20.24         5.45634 
        1.44809         20.1145         5.40122 
        1.45423         20.0131         5.34666 
        1.46036         19.9148         5.29295 
        1.46649         19.7825         5.23997 
        1.47263         19.6659         5.18767 
        1.47877         19.5616         5.13611 
        1.48491         19.4861         5.08518 
        1.49104         19.3552         5.03504 
        1.49718         19.3169         4.98555 
        1.50333         19.2034         4.93664 
        1.50947         19.0713         4.88849 
         1.5156          18.994         4.84106 
        1.52172         18.8666         4.79426 
        1.52787         18.8271         4.74799 
          1.534         18.6982         4.70238 
        1.54013         18.6554         4.65742 
        1.54627         18.4934         4.61297 
        1.55241         18.3981          4.5691 
        1.55855         18.3095         4.52586 
        1.56467         18.2435          4.4833 
         1.5708         18.1509         4.44117 
        1.57695         18.0822         4.39952 
        1.58308         17.9236          4.3585 
        1.58922         17.8547         4.31798 
        1.59535         17.7829         4.27799 
         1.6015         17.6969         4.23845 
        1.60764         17.6132         4.19943 
        1.61376         17.5512         4.16101 
        1.61989         17.3786         4.12304 
        1.62604         17.3407         4.08546 
        1.63218         17.2731         4.04837 
        1.63831         17.1611         4.01183 
        1.64444         17.0952         3.97572 
        1.65059         17.0245         3.93998 
        1.65673         16.9367         3.90471 
        1.66285         16.8535         3.86998 
        1.66898          16.785         3.83565 
        1.67512         16.7526         3.80168 
        1.68127         16.6561         3.76809 
         1.6874         16.5802         3.73498 
        1.69353         16.4537         3.70229 
        1.69967         16.3835         3.66991 
        1.70581         16.3294         3.63794 
        1.71193         16.2359         3.60647 
        1.71806         16.1653          3.5753 
        1.72421         16.1087         3.54444 
        1.73035         16.0252         3.51398 
        1.73649         15.9477         3.48389 
        1.74262          15.882         3.45418 
        1.74876         15.8107         3.42479 
        1.75489           15.74         3.39581 
        1.76101         15.6374         3.36717 
        1.76715          15.615         3.33882 
        1.77329          15.502         3.31076 
        1.77943         15.4558         3.28302 
        1.78557         15.4148         3.25563 
        1.79171          15.316         3.22856 
        1.79785         15.2402         3.20178 
        1.80399         15.1582         3.17532 
        1.81012         15.1282         3.14919 
        1.81625         15.0543         3.12337 
        1.82239         14.9616          3.0978 
        1.82853         14.9147         3.07253 
        1.83466         14.8308         3.04757 
        1.84078         14.7739         3.02291 
        1.84692          14.763         2.99848 
        1.85306          14.679          2.9743 
         1.8592         14.6324         2.95042 
        1.86533         14.5326         2.92682 
        1.87147         14.4661         2.90344 
        1.87761         14.4173         2.88031 
        1.88375         14.3737         2.85747 
        1.88988         14.2887         2.83489 
        1.89601         14.2532         2.81255 
        1.90215         14.1493         2.79043 
        1.90829         14.1016         2.76855 
        1.91442          14.026         2.74691 
        1.92056         13.9929         2.72553 
         1.9267         13.9401         2.70434 
        1.93284         13.9361         2.68337 
        1.93897         13.8312         2.66267 
        1.94509         13.7778         2.64222 
        1.95123         13.6979         2.62194 
        1.95737         13.6277         2.60186 
        1.96349         13.5941         2.58204 
        1.96964         13.5906         2.56237 
        1.97578         13.4986          2.5429 
        1.98192         13.4516         2.52366 
        1.98805         13.3515         2.50463 
        1.99419         13.3476         2.48579 
        2.00033         13.2654         2.46714 
        2.00647         13.2139         2.44868 
         2.0126         13.1598         2.43044 
        2.01874         13.1136         2.41236 
        2.02488         13.0236         2.39445 
        2.03101         13.0049         2.37676 
        2.03714         12.9433         2.35926 
        2.04328         12.9132         2.34192 
        2.04941         12.8312         2.32476 
        2.05554         12.8095         2.30779 
        2.06167         12.7782         2.29097 
        2.06781         12.7225         2.27431 
        2.07396         12.6805          2.2578 
        2.08009         12.5953         2.24147 
        2.08622         12.5587         2.22533 
        2.09237         12.5404         2.20932 
        2.09851         12.4554         2.19346 
        2.10464         12.4122         2.17778 
        2.11077         12.3562         2.16227 
        2.11691         12.3077         2.14689 
        2.12305         12.2694         2.13165 
        2.12918         12.2135         2.11659 
        2.13531         12.1835         2.10168 
        2.14145         12.1071         2.08688 
         2.1476         12.0536         2.07221 
        2.15372         12.0585         2.05775 
        2.15985         11.9876         2.04341 
        2.16599         11.9431         2.02917 
        2.17213         11.9137         2.01508 
        2.17827          11.856         2.00113 
         2.1844         11.8094         1.98732 
        2.19054         11.7791         1.97364 
        2.19666         11.7302         1.96011 
         2.2028         11.6938         1.94669 
        2.20893         11.6302         1.93339 
        2.21508         11.5884          1.9202 
        2.22122          11.535         1.90713 
        2.22736         11.5222          1.8942 
        2.23349         11.4541          1.8814 
        2.23962          11.426         1.86872 
        2.24577         11.4063         1.85613 
         2.2519         11.3419         1.84369 
        2.25802          11.279         1.83137 
        2.26417         11.2764         1.81914 
        2.27031         11.2288           1.807 
        2.27644          11.215         1.79501 
        2.28257         11.1242         1.78313 
        2.28872         11.1223         1.77134 
        2.29486         11.0813         1.75965 
        2.30099         11.0176          1.7481 
        2.30712         10.9745         1.73664 
        2.31326          10.932         1.72527 
         2.3194         10.8887           1.714 
        2.32553         10.8598         1.70286 
        2.33166         10.8015         1.69181 
         2.3378         10.7894         1.68085 
        2.34394         10.7263         1.66999 
        2.35007         10.7088         1.65924 
        2.35619         10.6701         1.64859 
        2.36233          10.618         1.63801 
        2.36848         10.5628         1.62751 
        2.37462         10.5322         1.61711 
        2.38075         10.4938         1.60682 
        2.38689          10.487         1.59661 
        2.39303         10.4259         1.58649 
        2.39916         10.4065         1.57647 
        2.40529         10.3767         1.56654 
        2.41143         10.3181         1.55668 
        2.41757         10.2811         1.54691 
         2.4237          10.243         1.53723 
        2.42983         10.2269         1.52764 
        2.43598         10.1867         1.51811 
        2.44211         10.1409         1.50867 
        2.44823          10.104         1.49934 
        2.45437         10.0931         1.49006 
        2.46052         10.0442         1.48085 
        2.46665         10.0192         1.47173 
        2.47279         9.97891          1.4627 
        2.47892         9.93195         1.45373 
        2.48507         9.90325         1.44483 
         2.4912         9.86996         1.43603 
