# k  (h/Mpc)    P(k)  (Mpc/h)^3    P_linear(k)  (Mpc/h)^3
     0.00783031         7900.58         8027.65 
       0.013688         8642.53          8613.4 
       0.019231         7738.82         7720.35 
      0.0249154         6254.65         6319.72 
      0.0312784         4827.95         4828.73 
      0.0375637         3770.88         3740.12 
      0.0433917          3095.5            3099 
      0.0492413         2734.52         2724.49 
      0.0555754         2463.31         2489.98 
      0.0619321         2328.63         2305.41 
       0.067871         2088.44          2103.6 
      0.0738098          1845.5         1854.88 
      0.0800417         1560.12         1570.64 
      0.0862327          1318.6         1310.69 
      0.0921407         1138.15          1115.9 
      0.0982031         993.965         980.487 
       0.104506         929.549          899.13 
       0.110769         878.349         855.809 
       0.116806         838.919         825.039 
       0.122832         802.318         785.929 
       0.129052         734.151         727.653 
       0.135211         666.583         655.133 
       0.141259         603.497         580.409 
       0.147318         542.267         513.571 
       0.153489         486.401         461.184 
       0.159709         453.831         425.907 
       0.165845         434.829         404.836 
       0.171974          414.69         391.218 
       0.178125         400.926         378.467 
       0.184229         383.839         362.056 
        0.19034         355.133         340.343 
       0.196428         337.461         314.944 
       0.202534          317.31           288.9 
       0.208729         292.745         265.186 
       0.214876         273.015         246.361 
       0.220989         260.757         232.617 
       0.227147         248.466          222.74 
        0.23329         239.052         215.051 
       0.239377         232.997          207.73 
       0.245482         217.815         199.416 
       0.251667          212.82         189.614 
       0.257832         203.037         178.886 
       0.263955         192.851         168.179 
       0.270079         182.788         158.336 
        0.27624         177.508         149.876 
       0.282372         170.751          143.03 
        0.28843          163.67         137.522 
       0.294538         156.556          132.73 
       0.300721         153.904         128.121 
        0.30691         146.655         123.357 
       0.313033         142.162         118.364 
       0.319153         135.422         113.181 
       0.325316         131.988         108.011 
        0.33145         126.253         103.166 
       0.337538         123.301         98.8257 
       0.343633          118.46         95.0047 
       0.349808         114.543         91.5914 
       0.355968         112.076         88.5125 
       0.362074         108.743         85.6161 
       0.368217         105.249         82.7474 
       0.374374         101.639         79.8588 
       0.380519         99.4139         76.9724 
       0.386598         96.4866         74.1767 
       0.392688          94.361         71.4952 
        0.39888          91.622          68.946 
       0.405048         88.9313         66.6108 
       0.411186         86.7765          64.465 
       0.417313         84.4576         62.4688 
       0.423458         82.3399         60.5685 
       0.429607         80.2752         58.7247 
       0.435692         77.3852         56.9385 
       0.441815         76.4468         55.1803 
       0.447964         74.8946         53.4597 
       0.454126         71.4396         51.7978 
       0.460267         70.5154         50.2219 
       0.466387         69.1215         48.7376 
        0.47254         67.4827         47.3245 
       0.478662         66.7073           45.99 
       0.484765         64.4546         44.7196 
       0.490885         63.1938         43.4926 
       0.497035         62.3358         42.2954 
       0.503198         60.4105         41.1294 
       0.509342          59.083         40.0035 
       0.515458         57.9982         38.9218 
       0.521598         56.9434         37.8764 
       0.527764         55.9765         36.8682 
       0.533884         55.0983         35.9092 
           0.54          53.709         34.9912 
       0.546137         53.0854         34.1058 
       0.552299         52.1657          33.248 
       0.558452         50.7861         32.4185 
       0.564573         49.8462         31.6182 
       0.570708         49.0149         30.8411 
       0.576825         48.2565         30.0917 
       0.582926         47.0812         29.3694 
       0.589034         46.1601         28.6705 
       0.595184         45.4963         27.9906 
       0.601379          44.665          27.329 
       0.607522         43.6461         26.6949 
       0.613639          43.369         26.0842 
       0.619772         42.4033         25.4915 
       0.625918         41.8172         24.9161 
       0.632068         41.2755         24.3577 
       0.638161         40.6496         23.8208 
         0.6443          39.993         23.2958 
       0.650464         39.4032         22.7845 
       0.656582          38.831         22.2922 
       0.662703         38.0199         21.8146 
       0.668861         37.4719         21.3487 
       0.675024          36.981         20.8964 
       0.681124         36.3796          20.462 
       0.687237         35.6573         20.0392 
       0.693381          35.313         19.6264 
       0.699536         34.6703         19.2244 
       0.705665         34.6832         18.8353 
       0.711789         33.7853         18.4572 
       0.717957         33.3539         18.0869 
        0.72409          32.863         17.7287 
       0.730186          32.338         17.3824 
       0.736317         32.1635         17.0436 
       0.742472         31.6496         16.7126 
       0.748622         31.2315         16.3908 
        0.75476         30.8474         16.0782 
       0.760888         30.3451         15.7742 
       0.767043         29.9515          15.477 
       0.773185         29.5541          15.188 
       0.779291         29.3286         14.9081 
       0.785407         29.0415         14.6348 
       0.791564         28.6385         14.3666 
       0.797719         28.0201         14.1053 
       0.803834         27.9156         13.8522 
       0.809972         27.4291         13.6043 
       0.816124         27.1087          13.362 
       0.822261         26.8259         13.1263 
       0.828378         26.6696         12.8969 
       0.834502         26.2894         12.6728 
       0.840667         25.9779         12.4527 
       0.846816         25.5445         12.2383 
       0.852925         25.3431         12.0304 
       0.859047         24.9945         11.8269 
       0.865192         24.7502         11.6274 
       0.871341          24.618         11.4324 
       0.877463         24.1387         11.2427 
       0.883569         23.9094         11.0578 
       0.889708         23.6908         10.8762 
       0.895864         23.4167         10.6982 
       0.902008         23.1994         10.5245 
       0.908149         22.9554         10.3548 
       0.914301         22.8387         10.1885 
       0.920448         22.5695         10.0261 
       0.926574         22.2582          9.8678 
       0.932687         22.0724         9.71323 
       0.938823         21.7578         9.56143 
       0.944975          21.615         9.41253 
       0.951105          21.377         9.26733 
       0.957225         21.1071         9.12544 
       0.963368         21.1202         8.98604 
       0.969511         20.8133         8.84956 
       0.975621         20.6884         8.71664 
       0.981748         20.3591         8.58611 
       0.987916         20.1932         8.45743 
        0.99406         20.0436         8.33187 
        1.00019         19.8156         8.20911 
        1.00632         19.6687         8.08893 
        1.01246         19.5836         7.97097 
        1.01859         19.2415         7.85556 
        1.02471         19.1783         7.74256 
        1.03085         19.0066          7.6314 
        1.03698         18.7125         7.52266 
        1.04314         18.6089         7.41557 
        1.04929         18.4177         7.31081 
        1.05541         18.2354          7.2085 
        1.06154         18.1599         7.10789 
        1.06769         17.9926         7.00905 
        1.07382         17.8471          6.9124 
        1.07993         17.7114          6.8178 
        1.08607         17.5109         6.72457 
        1.09222         17.4044         6.63299 
        1.09836         17.2293         6.54322 
        1.10449         17.0994         6.45521 
        1.11063         16.8705         6.36872 
        1.11677         16.8093         6.28385 
         1.1229         16.6841         6.20067 
        1.12903          16.498         6.11892 
        1.13518         16.4383         6.03858 
        1.14131         16.3226         5.95972 
        1.14745         16.1093         5.88232 
        1.15359         16.0801         5.80627 
        1.15973         15.8705         5.73154 
        1.16584         15.7345         5.65845 
        1.17197         15.6879         5.58653 
        1.17811         15.5138         5.51565 
        1.18424          15.394         5.44619 
        1.19038         15.3265         5.37773 
        1.19652         15.2449         5.31048 
        1.20267         15.1143         5.24437 
        1.20881         14.9665          5.1794 
        1.21495         14.8741         5.11563 
        1.22108         14.7534         5.05294 
         1.2272         14.6267         4.99145 
        1.23334         14.5748         4.93084 
        1.23949           14.46         4.87108 
        1.24562         14.3344         4.81249 
        1.25174         14.2652         4.75494 
        1.25789         14.1295         4.69815 
        1.26402         14.0465         4.64239 
        1.27014         13.8927         4.58766 
        1.27628         13.8247         4.53366 
        1.28244         13.7595         4.48041 
        1.28858         13.6779         4.42809 
        1.29471         13.5795         4.37672 
        1.30084         13.4782         4.32622 
        1.30697          13.398         4.27643 
        1.31312          13.269         4.22735 
        1.31925         13.1793         4.17919 
        1.32537          13.113         4.13183 
        1.33151         13.0332         4.08503 
        1.33765         12.9626         4.03898 
        1.34378         12.8465         3.99373 
        1.34992         12.7427         3.94915 
        1.35606         12.7035         3.90514 
         1.3622          12.634         3.86188 
        1.36833         12.5078         3.81938 
        1.37445         12.4902         3.77753 
        1.38059         12.3629         3.73619 
        1.38675         12.2205         3.69536 
        1.39288         12.2013         3.65531 
        1.39901         12.1196         3.61586 
        1.40515         12.0689         3.57691 
         1.4113          11.981         3.53854 
        1.41742         11.8857         3.50089 
        1.42355         11.8531         3.46371 
         1.4297         11.7957         3.42695 
        1.43585         11.7231         3.39074 
        1.44198         11.6361         3.35519 
        1.44809         11.5374         3.32022 
        1.45423         11.4881         3.28561 
        1.46036         11.4447         3.25156 
        1.46649         11.3736         3.21798 
        1.47263         11.2703         3.18484 
        1.47877         11.2371         3.15219 
        1.48491         11.2169         3.11994 
        1.49104         11.1232         3.08821 
        1.49718         11.0312         3.05689 
        1.50333         10.9942         3.02596 
        1.50947         10.9211         2.99551 
         1.5156         10.8672         2.96553 
        1.52172         10.8046         2.93596 
        1.52787         10.7434         2.90673 
          1.534         10.6661         2.87793 
        1.54013         10.6013         2.84955 
        1.54627         10.5449          2.8215 
        1.55241         10.4706         2.79383 
        1.55855         10.4205         2.76656 
        1.56467          10.366         2.73972 
         1.5708          10.352         2.71317 
        1.57695         10.2501         2.68693 
        1.58308         10.2231         2.66109 
        1.58922         10.1761         2.63557 
        1.59535         10.0955          2.6104 
         1.6015          10.049         2.58552 
        1.60764          10.019         2.56097 
        1.61376         9.90786         2.53681 
        1.61989         9.87908         2.51294 
        1.62604         9.85956         2.48933 
        1.63218         9.80183         2.46603 
        1.63831         9.75647         2.44308 
        1.64444         9.67623         2.42041 
        1.65059         9.63085         2.39798 
        1.65673         9.58011         2.37586 
        1.66285         9.54743         2.35407 
        1.66898         9.52303         2.33255 
        1.67512         9.45857         2.31126 
        1.68127         9.42192         2.29021 
         1.6874         9.34996         2.26947 
        1.69353         9.28852           2.249 
        1.69967         9.25633         2.22873 
        1.70581          9.2166         2.20872 
        1.71193         9.17582         2.18903 
        1.71806         9.11662         2.16953 
        1.72421         9.07342         2.15024 
        1.73035         9.01713          2.1312 
        1.73649         9.00423         2.11239 
        1.74262         8.96907         2.09383 
        1.74876         8.92152         2.07547 
        1.75489         8.87021         2.05738 
        1.76101         8.81317          2.0395 
        1.76715         8.78315         2.02181 
        1.77329         8.74194         2.00431 
        1.77943         8.69469           1.987 
        1.78557         8.67722         1.96993 
        1.79171          8.6225         1.95305 
        1.79785         8.55682         1.93636 
        1.80399         8.53923         1.91987 
        1.81012         8.52347          1.9036 
        1.81625         8.47211         1.88752 
        1.82239         8.42718          1.8716 
        1.82853         8.36677         1.85587 
        1.83466          8.3221         1.84034 
        1.84078         8.29581           1.825 
        1.84692         8.28038         1.80981 
        1.85306         8.21681         1.79477 
         1.8592         8.19232         1.77993 
        1.86533         8.16352         1.76526 
        1.87147         8.12276         1.75074 
        1.87761         8.09485         1.73637 
        1.88375          8.0441         1.72219 
        1.88988         8.00024         1.70818 
        1.89601         7.97861         1.69431 
        1.90215         7.94254         1.68059 
        1.90829         7.89943         1.66702 
        1.91442         7.87443          1.6536 
        1.92056         7.83877         1.64035 
         1.9267         7.79481         1.62722 
        1.93284         7.76339         1.61423 
        1.93897         7.73543          1.6014 
        1.94509         7.70003         1.58874 
        1.95123         7.67645         1.57618 
        1.95737         7.64496         1.56375 
        1.96349         7.60831         1.55149 
        1.96964         7.56362         1.53932 
        1.97578          7.5338         1.52728 
        1.98192         7.50315         1.51539 
        1.98805         7.48758         1.50362 
        1.99419         7.44292         1.49198 
        2.00033         7.39234         1.48045 
        2.00647         7.36572         1.46905 
         2.0126          7.3632         1.45779 
        2.01874          7.3077         1.44663 
        2.02488         7.28018         1.43557 
        2.03101         7.25927         1.42465 
        2.03714         7.23727         1.41386 
        2.04328         7.18503         1.40316 
        2.04941         7.15997         1.39258 
        2.05554         7.14372         1.38212 
        2.06167         7.10628         1.37175 
        2.06781          7.0912         1.36148 
        2.07396           7.066         1.35131 
        2.08009         7.03844         1.34125 
        2.08622         6.97365         1.33131 
        2.09237          6.9791         1.32145 
        2.09851         6.93998         1.31169 
        2.10464          6.9068         1.30204 
        2.11077         6.87826          1.2925 
        2.11691         6.85295         1.28303 
        2.12305          6.8437         1.27366 
        2.12918         6.79485         1.26441 
        2.13531          6.7734         1.25524 
        2.14145          6.7507         1.24614 
         2.1476          6.7405         1.23713 
        2.15372         6.69465         1.22824 
        2.15985         6.66241         1.21944 
        2.16599         6.65747          1.2107 
        2.17213         6.61609         1.20205 
        2.17827         6.59968         1.19348 
         2.1844         6.57361         1.18501 
        2.19054         6.55905         1.17662 
        2.19666         6.53313         1.16832 
         2.2028         6.50541         1.16009 
        2.20893          6.4719         1.15193 
        2.21508         6.43478         1.14385 
        2.22122         6.41849         1.13584 
        2.22736         6.40396         1.12792 
        2.23349         6.36978         1.12008 
        2.23962         6.34277         1.11231 
        2.24577          6.3287          1.1046 
         2.2519         6.30456         1.09698 
        2.25802         6.28846         1.08945 
        2.26417          6.2619         1.08196 
        2.27031         6.21595         1.07453 
        2.27644         6.21297          1.0672 
        2.28257         6.18938         1.05994 
        2.28872         6.17377         1.05273 
        2.29486         6.14362         1.04558 
        2.30099         6.13233         1.03852 
        2.30712         6.10101         1.03152 
        2.31326         6.07395         1.02457 
         2.3194         6.05822         1.01769 
        2.32553          6.0325         1.01088 
        2.33166         6.00516         1.00414 
         2.3378         5.98435        0.997454 
        2.34394         5.97237        0.990824 
        2.35007         5.93945        0.984262 
        2.35619         5.90775        0.977768 
        2.36233         5.90221        0.971317 
        2.36848         5.89198         0.96491 
        2.37462         5.86553        0.958574 
        2.38075          5.8286        0.952301 
        2.38689         5.82333        0.946079 
        2.39303         5.79211        0.939913 
        2.39916         5.78818        0.933808 
        2.40529         5.76138        0.927757 
        2.41143         5.74245        0.921755 
        2.41757         5.72122        0.915804 
         2.4237         5.70453        0.909916 
        2.42983         5.67121        0.904079 
        2.43598         5.66998        0.898279 
        2.44211         5.64798        0.892538 
        2.44823         5.62429        0.886861 
        2.45437         5.61505        0.881217 
        2.46052         5.58003        0.875617 
        2.46665         5.55801        0.870075 
        2.47279         5.53485        0.864583 
        2.47892         5.52589        0.859135 
        2.48507         5.50133        0.853728 
         2.4912         5.49411        0.848378 
