# k  (h/Mpc)    P(k)  (Mpc/h)^3    P_linear(k)  (Mpc/h)^3
     0.00783031         2630.52         2666.97 
       0.013688         2863.73         2865.57 
       0.019231          2572.3         2569.73 
      0.0249154         2092.93         2104.07 
      0.0312784         1611.02         1607.93 
      0.0375637          1253.5         1245.57 
      0.0433917         1033.19         1032.12 
      0.0492413         910.321         907.433 
      0.0555754         824.746         829.358 
      0.0619321         772.723         767.902 
       0.067871         697.957         700.695 
      0.0738098         616.016         617.858 
      0.0800417         521.055         523.185 
      0.0862327         438.062         436.602 
      0.0921407         375.026          371.72 
      0.0982031         328.193         326.613 
       0.104506         304.384         299.514 
       0.110769         288.511         285.085 
       0.116806         276.173         274.836 
       0.122832         264.128         261.809 
       0.129052         242.835         242.397 
       0.135211         219.364          218.24 
       0.141259         196.462         193.348 
       0.147318         175.282         171.083 
       0.153489         157.134         153.632 
       0.159709         145.653         141.881 
       0.165845          139.37         134.862 
       0.171974         133.149         130.325 
       0.178125         129.121         126.078 
       0.184229         123.675         120.611 
        0.19034         115.077         113.378 
       0.196428         107.925         104.917 
       0.202534         100.497         96.2412 
       0.208729         92.1578         88.3413 
       0.214876         85.5123         82.0703 
       0.220989         81.4342         77.4917 
       0.227147         77.4426         74.2016 
        0.23329         74.6797           71.64 
       0.239377         72.5004         69.2013 
       0.245482         68.6783         66.4317 
       0.251667          66.338         63.1665 
       0.257832         62.8196         59.5925 
       0.263955         59.3724         56.0258 
       0.270079         56.0963         52.7467 
        0.27624         53.8113         49.9287 
       0.282372         51.5971          47.648 
        0.28843         49.3341          45.813 
       0.294538          47.492         44.2166 
       0.300721         46.3136         42.6813 
        0.30691         44.2692         41.0943 
       0.313033         42.6149         39.4311 
       0.319153         40.4286         37.7043 
       0.325316         39.3798         35.9819 
        0.33145         37.5674          34.368 
       0.337538         36.2757         32.9221 
       0.343633         34.7765         31.6492 
       0.349808         33.7302         30.5121 
       0.355968         32.7214         29.4865 
       0.362074         31.6349         28.5216 
       0.368217         30.5923         27.5659 
       0.374374         29.5467         26.6036 
       0.380519         28.6943         25.6421 
       0.386598         27.7967         24.7107 
       0.392688         27.0503         23.8175 
        0.39888         26.0889         22.9682 
       0.405048         25.3243         22.1903 
       0.411186         24.6265         21.4755 
       0.417313         23.8284         20.8105 
       0.423458         23.1617         20.1774 
       0.429607         22.5041         19.5632 
       0.435692         21.7563         18.9681 
       0.441815         21.2552         18.3824 
       0.447964         20.8028         17.8092 
       0.454126         19.9621         17.2556 
       0.460267         19.5644         16.7306 
       0.466387         18.9291         16.2362 
        0.47254         18.5481         15.7654 
       0.478662         18.1993         15.3209 
       0.484765         17.5746         14.8976 
       0.490885          17.159         14.4889 
       0.497035         16.9169           14.09 
       0.503198         16.4025         13.7016 
       0.509342         15.9654         13.3265 
       0.515458         15.5836         12.9662 
       0.521598         15.2598         12.6179 
       0.527764         14.8693         12.2821 
       0.533884         14.6201         11.9626 
           0.54          14.237         11.6568 
       0.546137         13.9827         11.3618 
       0.552299         13.7103          11.076 
       0.558452         13.2746         10.7997 
       0.564573         13.0518         10.5331 
       0.570708         12.7878         10.2743 
       0.576825         12.4617         10.0246 
       0.582926          12.189         9.78396 
       0.589034         11.8694         9.55115 
       0.595184          11.692         9.32464 
       0.601379         11.4129         9.10423 
       0.607522         11.2133           8.893 
       0.613639         11.0552         8.68957 
       0.619772         10.7479         8.49212 
       0.625918         10.6603         8.30042 
       0.632068         10.4791         8.11441 
       0.638161         10.2125         7.93555 
         0.6443         9.99828         7.76065 
       0.650464         9.78744         7.59032 
       0.656582          9.7067         7.42632 
       0.662703         9.50921         7.26721 
       0.668861         9.31619         7.11201 
       0.675024         9.12924         6.96133 
       0.681124         8.96669         6.81662 
       0.687237            8.81         6.67577 
       0.693381         8.69215         6.53825 
       0.699536         8.44819         6.40434 
       0.705665         8.37445          6.2747 
       0.711789         8.19833         6.14874 
       0.717957         8.05351         6.02536 
        0.72409         7.91814         5.90605 
       0.730186         7.80369          5.7907 
       0.736317         7.70676         5.67782 
       0.742472         7.57126         5.56756 
       0.748622          7.4572         5.46035 
        0.75476         7.31157         5.35621 
       0.760888         7.19002         5.25496 
       0.767043         7.08951         5.15593 
       0.773185         6.95139         5.05967 
       0.779291          6.8915         4.96641 
       0.785407         6.79174         4.87536 
       0.791564         6.67738         4.78603 
       0.797719         6.52728         4.69898 
       0.803834         6.49929         4.61465 
       0.809972         6.41843         4.53208 
       0.816124         6.27935         4.45136 
       0.822261         6.17391         4.37282 
       0.828378         6.10004         4.29642 
       0.834502         6.04549         4.22177 
       0.840667         5.92869         4.14842 
       0.846816         5.81782         4.07702 
       0.852925         5.76211         4.00775 
       0.859047         5.68071         3.93995 
       0.865192         5.62854         3.87349 
       0.871341         5.55846         3.80852 
       0.877463         5.46695         3.74534 
       0.883569         5.37745         3.68376 
       0.889708         5.28383         3.62324 
       0.895864         5.21634         3.56393 
       0.902008         5.17217         3.50608 
       0.908149         5.11481         3.44954 
       0.914301         5.04726         3.39416 
       0.920448         4.96554         3.34005 
       0.926574         4.89911         3.28731 
       0.932687         4.83591         3.23582 
       0.938823         4.77421         3.18525 
       0.944975         4.71239         3.13565 
       0.951105         4.65592         3.08727 
       0.957225         4.62835         3.04001 
       0.963368         4.56874         2.99357 
       0.969511         4.50438          2.9481 
       0.975621         4.44966         2.90382 
       0.981748          4.3911         2.86034 
       0.987916         4.35374         2.81747 
        0.99406         4.27618         2.77564 
        1.00019         4.21661         2.73475 
        1.00632         4.19505         2.69471 
        1.01246         4.14018         2.65541 
        1.01859          4.0753         2.61696 
        1.02471         4.04451         2.57932 
        1.03085          3.9918         2.54229 
        1.03698         3.93447         2.50606 
        1.04314         3.90249         2.47039 
        1.04929         3.85622         2.43549 
        1.05541         3.80663         2.40141 
        1.06154          3.7712         2.36789 
        1.06769         3.75237         2.33496 
        1.07382         3.68839         2.30277 
        1.07993         3.64307         2.27125 
        1.08607         3.62119         2.24019 
        1.09222         3.57612         2.20968 
        1.09836         3.53282         2.17978 
        1.10449         3.50329         2.15046 
        1.11063         3.45496         2.12165 
        1.11677         3.43179         2.09337 
         1.1229         3.40202         2.06566 
        1.12903         3.35388         2.03843 
        1.13518         3.31494         2.01167 
        1.14131         3.28078          1.9854 
        1.14745         3.24044         1.95961 
        1.15359         3.21906         1.93428 
        1.15973         3.17707         1.90938 
        1.16584         3.14299         1.88503 
        1.17197          3.1124         1.86107 
        1.17811         3.09681         1.83746 
        1.18424         3.05897         1.81432 
        1.19038         3.04182         1.79151 
        1.19652           3.002         1.76911 
        1.20267         2.97217         1.74709 
        1.20881          2.9561         1.72544 
        1.21495         2.92166          1.7042 
        1.22108         2.88921         1.68331 
         1.2272          2.8663         1.66283 
        1.23334         2.83176         1.64264 
        1.23949         2.80155         1.62273 
        1.24562         2.78434         1.60321 
        1.25174         2.75565         1.58404 
        1.25789         2.73334         1.56512 
        1.26402         2.71167         1.54654 
        1.27014          2.6847         1.52831 
        1.27628         2.65956         1.51032 
        1.28244         2.62718         1.49259 
        1.28858         2.61892         1.47516 
        1.29471         2.58267         1.45804 
        1.30084          2.5553         1.44122 
        1.30697         2.55229         1.42463 
        1.31312         2.50776         1.40828 
        1.31925         2.48748         1.39224 
        1.32537         2.46602         1.37646 
        1.33151         2.45757         1.36087 
        1.33765         2.42364         1.34553 
        1.34378         2.41102         1.33046 
        1.34992         2.39123          1.3156 
        1.35606         2.35925         1.30094 
         1.3622         2.34945         1.28653 
        1.36833         2.32358         1.27237 
        1.37445         2.30441         1.25843 
        1.38059         2.29798         1.24466 
        1.38675         2.27687         1.23106 
        1.39288         2.26001         1.21771 
        1.39901         2.22898         1.20457 
        1.40515         2.21438          1.1916 
         1.4113         2.19851         1.17882 
        1.41742         2.17996         1.16627 
        1.42355         2.15993         1.15388 
         1.4297         2.14633         1.14164 
        1.43585         2.13171         1.12958 
        1.44198         2.11732         1.11774 
        1.44809         2.09646         1.10608 
        1.45423         2.07872         1.09456 
        1.46036         2.05861         1.08321 
        1.46649         2.04794         1.07203 
        1.47263         2.02701         1.06099 
        1.47877         2.01245         1.05011 
        1.48491         1.99756         1.03936 
        1.49104          1.9837         1.02879 
        1.49718         1.96742         1.01836 
        1.50333         1.95558         1.00806 
        1.50947         1.93576        0.997913 
         1.5156         1.92303        0.987926 
        1.52172         1.90932        0.978074 
        1.52787         1.89535        0.968337 
          1.534         1.87691        0.958743 
        1.54013         1.86619        0.949289 
        1.54627         1.85189        0.939945 
        1.55241         1.83562        0.930724 
        1.55855         1.82482         0.92164 
        1.56467         1.81327        0.912701 
         1.5708          1.7992        0.903855 
        1.57695          1.7848        0.895112 
        1.58308         1.76767        0.886505 
        1.58922          1.7628        0.878005 
        1.59535         1.74932        0.869619 
         1.6015         1.73269         0.86133 
        1.60764         1.72245        0.853153 
        1.61376         1.71213        0.845104 
        1.61989          1.6973        0.837153 
        1.62604         1.68636        0.829285 
        1.63218         1.68052        0.821523 
        1.63831         1.66186        0.813878 
        1.64444         1.65393        0.806328 
        1.65059         1.63734        0.798854 
        1.65673         1.63165        0.791484 
        1.66285         1.61741        0.784226 
        1.66898         1.60848        0.777057 
        1.67512          1.5952        0.769963 
        1.68127         1.58496        0.762951 
         1.6874         1.57845        0.756042 
        1.69353         1.56043        0.749222 
        1.69967         1.55393         0.74247 
        1.70581         1.54566        0.735803 
        1.71193         1.53168        0.729244 
        1.71806         1.52493         0.72275 
        1.72421         1.51417        0.716322 
        1.73035         1.50475        0.709979 
        1.73649         1.49459        0.703715 
        1.74262         1.48335         0.69753 
        1.74876         1.47677        0.691416 
        1.75489         1.46444        0.685387 
        1.76101         1.45317        0.679431 
        1.76715         1.44891        0.673538 
        1.77329         1.43924        0.667707 
        1.77943         1.42567        0.661942 
        1.78557         1.41663        0.656254 
        1.79171         1.41239        0.650631 
        1.79785         1.40058        0.645072 
        1.80399         1.39245        0.639579 
        1.81012         1.38237        0.634158 
        1.81625         1.37716        0.628801 
        1.82239         1.36718        0.623498 
        1.82853          1.3557        0.618258 
        1.83466         1.34877        0.613083 
        1.84078         1.34386        0.607973 
        1.84692         1.33587        0.602912 
        1.85306         1.32463        0.597903 
         1.8592         1.31564        0.592958 
        1.86533         1.30832        0.588072 
        1.87147         1.30173        0.583235 
        1.87761         1.29317         0.57845 
        1.88375         1.28535        0.573724 
        1.88988          1.2802        0.569056 
        1.89601         1.26944        0.564436 
        1.90215         1.25953        0.559865 
        1.90829         1.25238        0.555346 
        1.91442         1.24781        0.550876 
        1.92056         1.23941        0.546459 
         1.9267         1.23108        0.542086 
        1.93284         1.22767        0.537758 
        1.93897         1.21961        0.533485 
        1.94509         1.21259        0.529267 
        1.95123          1.2043        0.525085 
        1.95737         1.19511        0.520944 
        1.96349         1.19223        0.516858 
        1.96964         1.18631        0.512804 
        1.97578         1.17447        0.508792 
        1.98192         1.17069        0.504831 
        1.98805         1.16382        0.500911 
        1.99419         1.15913        0.497032 
        2.00033         1.15256        0.493193 
        2.00647         1.14477        0.489395 
         2.0126         1.14125        0.485643 
        2.01874         1.13046        0.481925 
        2.02488         1.12539        0.478242 
        2.03101         1.11807        0.474604 
        2.03714         1.11312        0.471007 
        2.04328         1.10614        0.467444 
        2.04941         1.09884        0.463919 
        2.05554          1.0942        0.460434 
        2.06167         1.08841         0.45698 
        2.06781         1.08454         0.45356 
        2.07396         1.07857         0.45017 
        2.08009           1.072        0.446821 
        2.08622         1.06703        0.443509 
        2.09237         1.05789        0.440224 
        2.09851         1.05458        0.436972 
        2.10464         1.05126        0.433758 
        2.11077         1.04226         0.43058 
        2.11691         1.03749        0.427426 
        2.12305         1.03314        0.424304 
        2.12918          1.0284         0.42122 
        2.13531         1.02099        0.418167 
        2.14145         1.01682        0.415137 
         2.1476         1.00975        0.412133 
        2.15372         1.00553        0.409174 
        2.15985         1.00064        0.406241 
        2.16599        0.994347        0.403327 
        2.17213        0.987166        0.400446 
        2.17827        0.985424        0.397593 
         2.1844        0.980553        0.394771 
        2.19054         0.97562        0.391975 
        2.19666        0.970197        0.389209 
         2.2028        0.965094        0.386468 
        2.20893        0.960743        0.383752 
        2.21508        0.955375        0.381058 
        2.22122        0.949625         0.37839 
        2.22736        0.946137        0.375752 
        2.23349        0.941564         0.37314 
        2.23962        0.935109        0.370551 
        2.24577        0.932818        0.367985 
         2.2519         0.92886        0.365446 
        2.25802        0.923585        0.362935 
        2.26417        0.919075        0.360441 
        2.27031        0.914748        0.357968 
        2.27644        0.909326        0.355524 
        2.28257        0.902183        0.353104 
        2.28872         0.90132        0.350702 
        2.29486        0.894952        0.348322 
        2.30099        0.890485         0.34597 
        2.30712        0.886791        0.343637 
        2.31326        0.882745        0.341323 
         2.3194        0.879567        0.339031 
        2.32553        0.876276        0.336763 
        2.33166        0.870961        0.334518 
         2.3378        0.866008        0.332289 
        2.34394        0.860557         0.33008 
        2.35007          0.8581        0.327894 
        2.35619        0.854605        0.325731 
        2.36233        0.849033        0.323582 
        2.36848        0.845654        0.321448 
        2.37462        0.842924        0.319337 
        2.38075        0.838368        0.317247 
        2.38689        0.835057        0.315174 
        2.39303         0.82956         0.31312 
        2.39916        0.826787        0.311086 
        2.40529        0.822649        0.309071 
        2.41143        0.818583        0.307071 
        2.41757        0.815694        0.305089 
         2.4237        0.813117        0.303127 
        2.42983        0.807813        0.301183 
        2.43598        0.804622         0.29925 
        2.44211        0.800882        0.297338 
        2.44823        0.797182        0.295447 
        2.45437        0.793674        0.293566 
        2.46052        0.791554        0.291701 
        2.46665        0.786372        0.289855 
        2.47279        0.782658        0.288025 
        2.47892        0.778984         0.28621 
        2.48507        0.777499        0.284409 
         2.4912        0.770932        0.282627 
