# k  (h/Mpc)    Pcb(k)  (Mpc/h)^3    Pcb_linear(k)  (Mpc/h)^3
     0.00783031         4067.27         4115.34 
       0.013688         4434.91         4425.74 
       0.019231          3979.7         3970.33 
      0.0249154         3231.16         3251.56 
      0.0312784         2489.46         2485.19 
      0.0375637         1939.24         1925.28 
      0.0433917         1596.32         1595.44 
      0.0492413         1407.62         1402.75 
      0.0555754         1273.05          1282.1 
      0.0619321         1196.21         1187.12 
       0.067871         1078.02         1083.24 
      0.0738098         951.737         955.188 
      0.0800417         804.791         808.835 
      0.0862327         677.674         674.984 
      0.0921407         581.517         574.681 
      0.0982031         508.466         504.949 
       0.104506         472.874         463.056 
       0.110769         447.794          440.75 
       0.116806         428.233         424.906 
       0.122832          409.69         404.767 
       0.129052         376.067         374.756 
       0.135211         340.203         337.409 
       0.141259         305.656         298.926 
       0.147318         273.268         264.504 
       0.153489         244.981         237.524 
       0.159709         227.524         219.356 
       0.165845          217.84         208.504 
       0.171974         207.889         201.491 
       0.178125         201.497         194.925 
       0.184229         193.003         186.472 
        0.19034         179.159          175.29 
       0.196428         168.746         162.209 
       0.202534         157.655         148.796 
       0.208729         144.779         136.582 
       0.214876         134.481         126.886 
       0.220989         128.219         119.807 
       0.227147         121.932         114.721 
        0.23329         117.507          110.76 
       0.239377         114.237          106.99 
       0.245482         107.737         102.708 
       0.251667         104.449         97.6601 
       0.257832         99.1886         92.1343 
       0.263955         93.8439         86.6203 
       0.270079         88.7606         81.5505 
        0.27624         85.4817         77.1939 
       0.282372          82.064         73.6675 
        0.28843         78.4674         70.8302 
       0.294538         75.4097         68.3622 
       0.300721         73.7205         65.9888 
        0.30691         70.3894         63.5351 
       0.313033          67.879         60.9631 
       0.319153         64.4105         58.2939 
       0.325316         62.8392          55.631 
        0.33145         59.9484         53.1355 
       0.337538         58.1181         50.9003 
       0.343633         55.7476         48.9323 
       0.349808         54.0406         47.1742 
       0.355968         52.5503         45.5885 
       0.362074         50.8302         44.0967 
       0.368217         49.1456          42.619 
       0.374374          47.535         41.1315 
       0.380519         46.2356         39.6447 
       0.386598         44.8075         38.2048 
       0.392688         43.6834         36.8237 
        0.39888         42.2115         35.5107 
       0.405048         40.9915          34.308 
       0.411186         39.9109         33.2029 
       0.417313         38.6623         32.1747 
       0.423458         37.5987         31.1959 
       0.429607         36.5837         30.2463 
       0.435692         35.3021         29.3263 
       0.441815         34.6402         28.4207 
       0.447964          33.935         27.5346 
       0.454126          32.459         26.6786 
       0.460267         31.9147          25.867 
       0.466387         30.9712         25.1024 
        0.47254         30.3544         24.3747 
       0.478662         29.8449         23.6873 
       0.484765         28.8252          23.033 
       0.490885         28.1697          22.401 
       0.497035         27.7906         21.7844 
       0.503198         26.9437         21.1839 
       0.509342         26.2305         20.6039 
       0.515458         25.6521         20.0468 
       0.521598         25.1595         19.5084 
       0.527764         24.5823         18.9891 
       0.533884         24.1783         18.4952 
           0.54         23.5409         18.0224 
       0.546137         23.1875         17.5663 
       0.552299         22.7676         17.1245 
       0.558452         22.0465         16.6973 
       0.564573         21.6618         16.2851 
       0.570708         21.2745         15.8849 
       0.576825         20.7809         15.4989 
       0.582926         20.2953         15.1268 
       0.589034         19.7985         14.7669 
       0.595184         19.5275         14.4167 
       0.601379         19.0931         14.0759 
       0.607522         18.7103         13.7493 
       0.613639         18.5024         13.4348 
       0.619772         18.0173         13.1295 
       0.625918         17.8712         12.8332 
       0.632068         17.5808         12.5456 
       0.638161          17.185          12.269 
         0.6443         16.8371         11.9986 
       0.650464         16.5088         11.7353 
       0.656582         16.3784         11.4817 
       0.662703         16.0428         11.2357 
       0.668861         15.7257         10.9958 
       0.675024         15.4372         10.7628 
       0.681124         15.1642         10.5391 
       0.687237         14.8885         10.3213 
       0.693381         14.7364         10.1087 
       0.699536         14.3399         9.90164 
       0.705665         14.2833         9.70122 
       0.711789         13.9379         9.50648 
       0.717957         13.7163         9.31573 
        0.72409         13.5129         9.13126 
       0.730186         13.3086         8.95291 
       0.736317          13.155         8.77839 
       0.742472         12.9122         8.60792 
       0.748622         12.7653         8.44216 
        0.75476         12.5346         8.28115 
       0.760888         12.3174         8.12461 
       0.767043         12.1451         7.97151 
       0.773185          11.937         7.82268 
       0.779291         11.8501         7.67849 
       0.785407         11.7175         7.53773 
       0.791564         11.5022         7.39961 
       0.797719         11.2131         7.26502 
       0.803834         11.1956         7.13464 
       0.809972         11.0679         7.00699 
       0.816124         10.8325         6.88218 
       0.822261         10.6811         6.76076 
       0.828378         10.5782         6.64262 
       0.834502         10.4688         6.52722 
       0.840667         10.2962         6.41381 
       0.846816         10.0991         6.30342 
       0.852925         9.99744         6.19632 
       0.859047         9.87576         6.09149 
       0.865192         9.77824         5.98875 
       0.871341         9.67545          5.8883 
       0.877463         9.51429         5.79062 
       0.883569         9.38277         5.69541 
       0.889708         9.22123         5.60184 
       0.895864         9.11535         5.51015 
       0.902008         9.04994          5.4207 
       0.908149         8.94601         5.33329 
       0.914301         8.88246         5.24767 
       0.920448         8.72193         5.16401 
       0.926574          8.6203         5.08246 
       0.932687         8.50587         5.00286 
       0.938823         8.40214         4.92467 
       0.944975         8.30115         4.84797 
       0.951105         8.20539         4.77319 
       0.957225         8.12962         4.70011 
       0.963368         8.06423         4.62831 
       0.969511         7.96081         4.55801 
       0.975621         7.88694         4.48955 
       0.981748         7.76193         4.42232 
       0.987916         7.71349         4.35605 
        0.99406          7.5959         4.29138 
        1.00019         7.48782         4.22815 
        1.00632         7.45238         4.16625 
        1.01246         7.37824          4.1055 
        1.01859         7.24515         4.04605 
        1.02471         7.21444         3.98785 
        1.03085         7.13016          3.9306 
        1.03698          7.0138         3.87459 
        1.04314          6.9687         3.81943 
        1.04929         6.88254         3.76548 
        1.05541         6.79937         3.71278 
        1.06154         6.75068         3.66096 
        1.06769         6.71534         3.61005 
        1.07382         6.61736         3.56027 
        1.07993         6.54557         3.51155 
        1.08607         6.48908         3.46353 
        1.09222         6.43282         3.41636 
        1.09836          6.3488         3.37012 
        1.10449         6.30242          3.3248 
        1.11063         6.21773         3.28025 
        1.11677         6.18537         3.23654 
         1.1229         6.14271         3.19369 
        1.12903         6.05716         3.15159 
        1.13518         5.97984         3.11021 
        1.14131         5.95051         3.06959 
        1.14745         5.88657         3.02972 
        1.15359         5.84478         2.99055 
        1.15973         5.77155         2.95206 
        1.16584         5.69997         2.91442 
        1.17197         5.66057         2.87738 
        1.17811         5.62565         2.84087 
        1.18424         5.56909         2.80509 
        1.19038         5.53791         2.76983 
        1.19652         5.47393         2.73519 
        1.20267         5.42303         2.70114 
        1.20881         5.39781         2.66768 
        1.21495         5.34647         2.63484 
        1.22108         5.27711         2.60255 
         1.2272         5.23589         2.57088 
        1.23334         5.19068         2.53966 
        1.23949         5.13523         2.50888 
        1.24562         5.10981          2.4787 
        1.25174         5.06761         2.44906 
        1.25789         5.01984         2.41981 
        1.26402         4.99457         2.39109 
        1.27014         4.94453          2.3629 
        1.27628         4.89075         2.33509 
        1.28244         4.84274         2.30766 
        1.28858         4.83782         2.28072 
        1.29471         4.77638         2.25426 
        1.30084         4.72555         2.22824 
        1.30697         4.71361          2.2026 
        1.31312         4.64296         2.17732 
        1.31925         4.60225         2.15252 
        1.32537         4.57907         2.12813 
        1.33151         4.55734         2.10402 
        1.33765         4.50717          2.0803 
        1.34378         4.47536           2.057 
        1.34992         4.43474         2.03403 
        1.35606         4.40589         2.01137 
         1.3622         4.38224         1.98909 
        1.36833         4.32543         1.96719 
        1.37445         4.30232         1.94564 
        1.38059         4.28132         1.92435 
        1.38675         4.23888         1.90332 
        1.39288         4.22437         1.88269 
        1.39901          4.1709         1.86237 
        1.40515         4.15117         1.84231 
         1.4113         4.11796         1.82255 
        1.41742         4.08309         1.80315 
        1.42355          4.0466           1.784 
         1.4297         4.03505         1.76507 
        1.43585         4.00406         1.74642 
        1.44198         3.98208         1.72811 
        1.44809         3.94504          1.7101 
        1.45423          3.9158         1.69228 
        1.46036         3.88141         1.67474 
        1.46649         3.86494         1.65744 
        1.47263         3.82636         1.64038 
        1.47877         3.80044         1.62356 
        1.48491          3.7786         1.60694 
        1.49104         3.75344          1.5906 
        1.49718         3.72603         1.57447 
        1.50333         3.70325         1.55854 
        1.50947         3.66713         1.54286 
         1.5156         3.65126         1.52742 
        1.52172         3.63282         1.51219 
        1.52787         3.60247         1.49713 
          1.534         3.57277          1.4823 
        1.54013          3.5513         1.46768 
        1.54627         3.52514         1.45323 
        1.55241         3.49888         1.43898 
        1.55855         3.48269         1.42493 
        1.56467         3.45674         1.41111 
         1.5708         3.44072         1.39744 
        1.57695         3.41357         1.38392 
        1.58308         3.38128         1.37061 
        1.58922         3.37611         1.35747 
        1.59535         3.35452          1.3445 
         1.6015         3.32097         1.33169 
        1.60764          3.2978         1.31905 
        1.61376         3.28602          1.3066 
        1.61989         3.25965         1.29431 
        1.62604         3.24573         1.28214 
        1.63218         3.23202         1.27014 
        1.63831         3.19784         1.25832 
        1.64444         3.18553         1.24665 
        1.65059         3.15171          1.2351 
        1.65673         3.15208          1.2237 
        1.66285         3.12053         1.21248 
        1.66898         3.10183          1.2014 
        1.67512         3.08796         1.19043 
        1.68127         3.06656         1.17959 
         1.6874         3.04784          1.1689 
        1.69353          3.0221         1.15836 
        1.69967         3.01608         1.14792 
        1.70581         2.99966         1.13761 
        1.71193         2.97321         1.12747 
        1.71806         2.95863         1.11743 
        1.72421         2.94394         1.10749 
        1.73035         2.92578         1.09769 
        1.73649         2.90881           1.088 
        1.74262          2.8878         1.07844 
        1.74876         2.87853         1.06899 
        1.75489         2.85883         1.05967 
        1.76101         2.84052         1.05046 
        1.76715         2.82761         1.04135 
        1.77329          2.8082         1.03233 
        1.77943         2.78833         1.02342 
        1.78557         2.77692         1.01462 
        1.79171         2.76314         1.00593 
        1.79785         2.74379        0.997336 
        1.80399         2.73241        0.988844 
        1.81012         2.71378        0.980461 
        1.81625         2.70087        0.972179 
        1.82239         2.68771         0.96398 
        1.82853         2.66759        0.955879 
        1.83466         2.65328        0.947878 
        1.84078         2.64579        0.939977 
        1.84692         2.63171        0.932154 
        1.85306         2.61356        0.924409 
         1.8592         2.59817        0.916763 
        1.86533          2.5835        0.909209 
        1.87147         2.56917         0.90173 
        1.87761         2.55747        0.894332 
        1.88375         2.53828        0.887025 
        1.88988         2.53298        0.879808 
        1.89601         2.51444        0.872666 
        1.90215         2.50078        0.865598 
        1.90829         2.48586        0.858611 
        1.91442         2.47402          0.8517 
        1.92056         2.46624        0.844872 
         1.9267         2.44808         0.83811 
        1.93284         2.43558        0.831419 
        1.93897         2.42219        0.824812 
        1.94509         2.41691        0.818292 
        1.95123         2.40106        0.811825 
        1.95737         2.38343        0.805423 
        1.96349         2.37809        0.799106 
        1.96964         2.36565        0.792839 
        1.97578          2.3486        0.786635 
        1.98192          2.3415        0.780511 
        1.98805         2.32785         0.77445 
        1.99419          2.3139        0.768454 
        2.00033         2.30759        0.762518 
        2.00647           2.293        0.756645 
         2.0126         2.28588        0.750845 
        2.01874         2.27193        0.745096 
        2.02488         2.25767        0.739402 
        2.03101         2.24984        0.733777 
        2.03714         2.23268        0.728217 
        2.04328         2.22318        0.722707 
        2.04941         2.21102        0.717258 
        2.05554         2.20503         0.71187 
        2.06167         2.18867        0.706529 
        2.06781         2.18651        0.701242 
        2.07396         2.17585        0.696001 
        2.08009         2.16502        0.690822 
        2.08622         2.15153        0.685702 
        2.09237         2.13748        0.680623 
        2.09851         2.13576        0.675595 
        2.10464         2.12492        0.670626 
        2.11077         2.10879        0.665712 
        2.11691         2.09917        0.660837 
        2.12305         2.09282         0.65601 
        2.12918         2.08469        0.651242 
        2.13531           2.076        0.646521 
        2.14145         2.06399        0.641836 
         2.1476         2.05351        0.637192 
        2.15372         2.04239        0.632617 
        2.15985         2.04076        0.628082 
        2.16599         2.02315        0.623578 
        2.17213         2.01382        0.619123 
        2.17827         2.01001        0.614713 
         2.1844         2.00183        0.610349 
        2.19054         1.98632        0.606025 
        2.19666         1.97909         0.60175 
         2.2028         1.97078        0.597512 
        2.20893         1.96098        0.593312 
        2.21508         1.95482        0.589148 
        2.22122         1.94334        0.585022 
        2.22736         1.93381        0.580944 
        2.23349         1.92971        0.576905 
        2.23962         1.91873        0.572903 
        2.24577         1.91312        0.568935 
         2.2519         1.90805         0.56501 
        2.25802         1.89539        0.561128 
        2.26417         1.89004        0.557272 
        2.27031         1.87943        0.553448 
        2.27644          1.8692         0.54967 
        2.28257         1.85495        0.545929 
        2.28872         1.85752        0.542214 
        2.29486          1.8466        0.538535 
        2.30099         1.83773        0.534898 
        2.30712         1.82872        0.531292 
        2.31326          1.8204        0.527713 
         2.3194         1.81277         0.52417 
        2.32553         1.80967        0.520664 
        2.33166         1.80113        0.517192 
         2.3378         1.79272        0.513747 
        2.34394         1.78425        0.510331 
        2.35007         1.77563        0.506952 
        2.35619         1.76987        0.503607 
        2.36233         1.76173        0.500284 
        2.36848         1.75457        0.496985 
        2.37462         1.75081        0.493721 
        2.38075         1.73997         0.49049 
        2.38689         1.73577        0.487285 
        2.39303         1.72571         0.48411 
        2.39916         1.72014        0.480965 
        2.40529          1.7129        0.477849 
        2.41143          1.7055        0.474757 
        2.41757         1.70292        0.471692 
         2.4237         1.69342        0.468659 
        2.42983         1.68541        0.465653 
        2.43598         1.67791        0.462666 
        2.44211         1.67119        0.459709 
        2.44823         1.66463        0.456785 
        2.45437         1.65759        0.453878 
        2.46052         1.65417        0.450994 
        2.46665         1.64675        0.448139 
        2.47279         1.63667        0.445311 
        2.47892         1.63163        0.442504 
        2.48507         1.62748         0.43972 
         2.4912         1.61751        0.436964 
