# k  (h/Mpc)    P(k)  (Mpc/h)^3    P_linear(k)  (Mpc/h)^3
     0.00783031         2370.54          2400.2 
       0.013688         2996.67         2998.15 
       0.019231         3098.12         3099.47 
      0.0249154         2918.23         2943.97 
      0.0312784          2620.9         2629.56 
      0.0375637         2297.37          2294.5 
      0.0433917         2011.46         2021.91 
      0.0492413         1804.79         1805.56 
      0.0555754         1617.63         1632.57 
      0.0619321         1512.54         1504.74 
       0.067871         1396.28         1406.44 
      0.0738098         1301.91         1312.39 
      0.0800417         1192.96         1208.51 
      0.0862327         1090.88          1098.8 
      0.0921407         990.369           993.1 
      0.0982031          885.84         891.346 
       0.104506         806.326         799.961 
       0.110769         733.564         727.461 
       0.116806         675.784         674.498 
       0.122832          640.04         634.841 
       0.129052         601.787         602.591 
       0.135211         573.259         573.969 
       0.141259         548.156         545.058 
       0.147318         519.009         513.351 
       0.153489         481.237         478.423 
       0.159709         448.015         442.421 
       0.165845         419.939         408.622 
       0.171974         386.893         378.714 
       0.178125         363.712         353.739 
       0.184229          345.53         333.989 
        0.19034          324.47         318.357 
       0.196428         315.782         305.475 
       0.202534         306.617         293.716 
       0.208729         292.376          281.69 
       0.214876         277.419         268.954 
       0.220989         267.695         255.433 
       0.227147         250.856         241.414 
        0.23329         238.181         227.755 
       0.239377         228.225         215.232 
       0.245482         213.882          204.14 
       0.251667         208.214         194.555 
       0.257832         200.309         186.491 
       0.263955         193.048         179.573 
       0.270079         186.528         173.282 
        0.27624         182.561         167.162 
       0.282372         175.732         160.996 
        0.28843         168.699         154.737 
       0.294538         161.978         148.316 
       0.300721         157.941          141.89 
        0.30691         150.272         135.738 
       0.313033          145.41         130.106 
       0.319153         138.497         125.014 
       0.325316         135.845         120.431 
        0.33145         130.987         116.325 
       0.337538         128.183          112.58 
       0.343633          123.98         109.023 
       0.349808         120.496         105.513 
       0.355968         117.358         102.035 
       0.362074         113.665         98.6069 
       0.368217         110.434         95.2034 
       0.374374         107.056         91.8917 
       0.380519          104.25         88.7424 
       0.386598         101.391         85.8134 
       0.392688         99.3077         83.0855 
        0.39888         96.5316         80.5074 
       0.405048         94.3304         78.1066 
       0.411186         92.2323         75.8457 
       0.417313         89.4261         73.6755 
       0.423458          87.376         71.5589 
       0.429607         85.0946         69.4888 
       0.435692         82.3625         67.4824 
       0.441815         81.3324         65.5171 
       0.447964         79.9607         63.6117 
       0.454126         76.6385         61.7812 
       0.460267         75.4628         60.0438 
       0.466387         73.5691         58.4018 
        0.47254         72.4676          56.832 
       0.478662         71.2889         55.3411 
       0.484765         69.2787         53.9151 
       0.490885         67.8359         52.5345 
       0.497035         66.9862         51.1871 
       0.503198         65.2294         49.8744 
       0.509342         63.5912         48.6032 
       0.515458         62.5005         47.3757 
       0.521598         61.5541         46.1835 
       0.527764         60.3966         45.0293 
       0.533884         59.3603         43.9284 
           0.54         58.1857         42.8713 
       0.546137         57.3947         41.8502 
       0.552299         56.5474         40.8616 
       0.558452         54.8808         39.9084 
       0.564573         54.0311         38.9901 
       0.570708         53.3311         38.0967 
       0.576825         52.1561          37.231 
       0.582926         51.1912         36.3922 
       0.589034         49.9731         35.5773 
       0.595184         49.3852          34.782 
       0.601379         48.6453         34.0066 
       0.607522         47.6035          33.262 
       0.613639         47.3176         32.5441 
       0.619772         46.1131         31.8471 
       0.625918         45.9087         31.1704 
       0.632068         45.1732         30.5135 
       0.638161         44.3713         29.8814 
         0.6443          43.574         29.2621 
       0.650464         42.8926         28.6573 
       0.656582         42.5915         28.0735 
       0.662703         41.7532         27.5056 
       0.668861          41.118         26.9503 
       0.675024         40.4761         26.4103 
       0.681124         39.7903         25.8909 
       0.687237         39.1475         25.3847 
       0.693381         38.8661         24.8899 
       0.699536         37.9669         24.4077 
       0.705665         37.9999         23.9405 
       0.711789         37.1096          23.486 
       0.717957         36.6919         23.0403 
        0.72409         36.1745         22.6087 
       0.730186         35.6534         22.1908 
       0.736317           35.37         21.7811 
       0.742472         34.7455         21.3802 
       0.748622         34.4629         20.9898 
        0.75476         33.9351           20.61 
       0.760888          33.452         20.2403 
       0.767043         33.1073         19.8784 
       0.773185         32.5594         19.5261 
       0.779291         32.4249         19.1845 
       0.785407         32.0443         18.8507 
       0.791564         31.4857         18.5229 
       0.797719         30.8842          18.203 
       0.803834          30.851         17.8928 
       0.809972         30.5292         17.5887 
       0.816124         29.8657         17.2911 
       0.822261         29.6959         17.0011 
       0.828378         29.4048         16.7188 
       0.834502         29.0931         16.4426 
       0.840667         28.7675         16.1709 
       0.846816          28.312         15.9062 
       0.852925         28.0615         15.6491 
       0.859047         27.7435         15.3971 
       0.865192         27.5118           15.15 
       0.871341         27.3439         14.9081 
       0.877463         26.8182         14.6726 
       0.883569          26.558         14.4429 
       0.889708         26.2592         14.2169 
       0.895864         26.0622         13.9952 
       0.902008         25.8595         13.7787 
       0.908149         25.5989         13.5669 
       0.914301         25.4786         13.3593 
       0.920448         24.9676         13.1562 
       0.926574         24.8202          12.958 
       0.932687          24.566         12.7644 
       0.938823         24.2511          12.574 
       0.944975         24.0424         12.3871 
       0.951105         23.8521         12.2047 
       0.957225          23.595         12.0263 
       0.963368         23.4329         11.8509 
       0.969511         23.2366          11.679 
       0.975621         23.0539         11.5114 
       0.981748         22.7432         11.3467 
       0.987916         22.6285         11.1842 
        0.99406         22.3545         11.0255 
        1.00019         22.0774         10.8702 
        1.00632         22.0154          10.718 
        1.01246          21.812         10.5686 
        1.01859          21.509         10.4223 
        1.02471         21.4566         10.2789 
        1.03085         21.2503         10.1377 
        1.03698         20.9324         9.99955 
        1.04314          20.822         9.86336 
        1.04929         20.5909         9.73004 
        1.05541         20.3959         9.59973 
        1.06154          20.281          9.4715 
        1.06769         20.1646         9.34543 
        1.07382         19.9305         9.22208 
        1.07993         19.8387         9.10124 
        1.08607         19.6079         8.98208 
        1.09222         19.4891         8.86494 
        1.09836         19.2613         8.75003 
        1.10449         19.1631          8.6373 
        1.11063         18.9616         8.52644 
        1.11677         18.8947         8.41757 
         1.1229         18.7923          8.3108 
        1.12903         18.5464         8.20579 
        1.13518         18.3572         8.10251 
        1.14131         18.2955         8.00107 
        1.14745         18.1641         7.90143 
        1.15359         18.0472         7.80346 
        1.15973         17.8806         7.70713 
        1.16584         17.6502         7.61285 
        1.17197         17.6243         7.52001 
        1.17811         17.4602         7.42844 
        1.18424         17.3192         7.33867 
        1.19038         17.2578         7.25012 
        1.19652         17.0969         7.16307 
        1.20267         16.9519         7.07745 
        1.20881          16.902         6.99325 
        1.21495         16.7745         6.91056 
        1.22108         16.6042         6.82922 
         1.2272          16.471         6.74938 
        1.23334         16.3575         6.67064 
        1.23949         16.2148         6.59298 
        1.24562         16.1806         6.51676 
        1.25174         16.0677         6.44187 
        1.25789         15.9635         6.36794 
        1.26402         15.8819          6.2953 
        1.27014         15.7407         6.22397 
        1.27628         15.5609         6.15353 
        1.28244           15.51         6.08406 
        1.28858         15.4714         6.01575 
        1.29471         15.3062         5.94865 
        1.30084         15.1785         5.88264 
        1.30697         15.1257         5.81753 
        1.31312         14.9636         5.75332 
        1.31925         14.8675         5.69028 
        1.32537         14.8275         5.62824 
        1.33151         14.7084         5.56692 
        1.33765         14.6201         5.50654 
        1.34378         14.5307         5.44718 
        1.34992         14.3893         5.38866 
        1.35606         14.3559         5.33087 
         1.3622         14.2669         5.27404 
        1.36833         14.1518         5.21817 
        1.37445         14.0939         5.16313 
        1.38059         14.0224         5.10873 
        1.38675         13.8794         5.05498 
        1.39288         13.8357         5.00221 
        1.39901         13.7063         4.95023 
        1.40515          13.655         4.89887 
         1.4113         13.5754         4.84826 
        1.41742         13.4862         4.79855 
        1.42355         13.4045         4.74945 
         1.4297         13.3291         4.70089 
        1.43585         13.2887         4.65303 
        1.44198         13.1887         4.60601 
        1.44809         13.1148         4.55974 
        1.45423         13.0297         4.51393 
        1.46036         12.9634         4.46883 
        1.46649         12.9017         4.42433 
        1.47263         12.7885          4.3804 
        1.47877         12.7307         4.33709 
        1.48491          12.666         4.29429 
        1.49104          12.604         4.25217 
        1.49718          12.528         4.21058 
        1.50333         12.4722         4.16948 
        1.50947         12.3972         4.12901 
         1.5156         12.3123         4.08914 
        1.52172         12.2533          4.0498 
        1.52787         12.1727          4.0109 
          1.534         12.1059         3.97255 
        1.54013         12.0446         3.93475 
        1.54627         11.9589         3.89737 
        1.55241         11.9182         3.86047 
        1.55855         11.8663         3.82411 
        1.56467         11.7821         3.78831 
         1.5708         11.7627         3.75287 
        1.57695         11.6546         3.71783 
        1.58308         11.6026         3.68332 
        1.58922         11.5588         3.64922 
        1.59535         11.5032         3.61557 
         1.6015         11.4191          3.5823 
        1.60764          11.353         3.54946 
        1.61376         11.3371         3.51712 
        1.61989         11.2443         3.48516 
        1.62604         11.2113         3.45353 
        1.63218         11.1551         3.42231 
        1.63831         11.1099         3.39154 
        1.64444         11.0356         3.36115 
        1.65059         10.9627         3.33105 
        1.65673         10.9422         3.30136 
        1.66285         10.8336          3.2721 
        1.66898         10.8124          3.2432 
        1.67512         10.7609         3.21458 
        1.68127         10.6991         3.18629 
         1.6874         10.6634          3.1584 
        1.69353          10.596         3.13085 
        1.69967         10.5386         3.10358 
        1.70581         10.4911         3.07663 
        1.71193         10.4387         3.05011 
        1.71806         10.4219         3.02385 
        1.72421         10.3322         2.99784 
        1.73035         10.3127         2.97217 
        1.73649         10.2661         2.94681 
        1.74262         10.2071         2.92176 
        1.74876         10.1687         2.89698 
        1.75489         10.1244         2.87255 
        1.76101         10.0472          2.8484 
        1.76715         10.0351          2.8245 
        1.77329         9.96755         2.80084 
        1.77943         9.91234         2.77745 
        1.78557         9.89526         2.75435 
        1.79171         9.84939         2.73152 
        1.79785         9.78309         2.70893 
        1.80399         9.73947         2.68661 
        1.81012         9.70807         2.66457 
        1.81625         9.65027         2.64279 
        1.82239         9.61614         2.62122 
        1.82853         9.55546          2.5999 
        1.83466         9.52572         2.57883 
        1.84078         9.45995         2.55803 
        1.84692         9.45961         2.53742 
        1.85306         9.39533         2.51701 
         1.8592         9.34845         2.49685 
        1.86533         9.31945         2.47693 
        1.87147         9.27647         2.45721 
        1.87761         9.24083         2.43769 
        1.88375         9.19145          2.4184 
        1.88988         9.17006         2.39934 
        1.89601         9.12112         2.38048 
        1.90215         9.07586         2.36181 
        1.90829         9.03646         2.34334 
        1.91442         8.99947         2.32507 
        1.92056         8.97096         2.30702 
         1.9267         8.92153         2.28913 
        1.93284         8.88411         2.27142 
        1.93897         8.83847         2.25394 
        1.94509         8.80993         2.23667 
        1.95123         8.76818         2.21955 
        1.95737          8.7279         2.20258 
        1.96349         8.69839         2.18584 
        1.96964         8.65479         2.16923 
        1.97578         8.61903         2.15278 
        1.98192         8.58403         2.13653 
        1.98805         8.55664         2.12045 
        1.99419         8.51689         2.10454 
        2.00033         8.50088         2.08878 
        2.00647         8.45355         2.07318 
         2.0126         8.41623         2.05777 
        2.01874         8.38202          2.0425 
        2.02488         8.34608         2.02736 
        2.03101         8.30976         2.01241 
        2.03714          8.2728         1.99762 
        2.04328         8.24652         1.98297 
        2.04941         8.20867         1.96847 
        2.05554         8.17855         1.95413 
        2.06167         8.13733         1.93991 
        2.06781         8.12361         1.92583 
        2.07396         8.09316         1.91187 
        2.08009         8.04721         1.89807 
        2.08622         8.00966         1.88442 
        2.09237         8.00285         1.87088 
        2.09851         7.97771         1.85748 
        2.10464          7.9305         1.84422 
        2.11077         7.88321         1.83111 
        2.11691         7.85521          1.8181 
        2.12305         7.83762         1.80522 
        2.12918         7.81621         1.79249 
        2.13531         7.77342         1.77988 
        2.14145         7.75094         1.76736 
         2.1476         7.70882         1.75495 
        2.15372         7.68601         1.74273 
        2.15985          7.6787          1.7306 
        2.16599         7.62818         1.71856 
        2.17213         7.61308         1.70664 
        2.17827         7.58319         1.69484 
         2.1844         7.54763         1.68316 
        2.19054         7.50505         1.67159 
        2.19666         7.49092         1.66014 
         2.2028         7.45988         1.64879 
        2.20893         7.44369         1.63754 
        2.21508         7.40056         1.62638 
        2.22122         7.36886         1.61532 
        2.22736         7.35055         1.60439 
        2.23349         7.32928         1.59356 
        2.23962          7.3042         1.58283 
        2.24577         7.26644         1.57218 
         2.2519         7.25135         1.56165 
        2.25802         7.21443         1.55123 
        2.26417         7.18836         1.54087 
        2.27031         7.16227          1.5306 
        2.27644         7.13586         1.52046 
        2.28257         7.11586          1.5104 
        2.28872         7.08717         1.50042 
        2.29486         7.06229         1.49053 
        2.30099         7.04575         1.48075 
        2.30712         7.02145         1.47106 
        2.31326         6.97261         1.46143 
         2.3194           6.958         1.45189 
        2.32553         6.94513         1.44246 
        2.33166         6.91852         1.43311 
         2.3378         6.89127         1.42384 
        2.34394         6.86536         1.41464 
        2.35007         6.82992         1.40554 
        2.35619          6.8132         1.39653 
        2.36233         6.78982         1.38757 
        2.36848         6.76809         1.37868 
        2.37462         6.74643         1.36988 
        2.38075         6.72592         1.36117 
        2.38689         6.69966         1.35252 
        2.39303          6.6696         1.34395 
        2.39916         6.65154         1.33547 
        2.40529         6.62796         1.32706 
        2.41143         6.60449         1.31871 
        2.41757         6.60045         1.31044 
         2.4237         6.56939         1.30224 
        2.42983         6.54032         1.29412 
        2.43598         6.52643         1.28605 
        2.44211         6.50077         1.27806 
        2.44823         6.48199         1.27016 
        2.45437         6.45509          1.2623 
        2.46052         6.42391          1.2545 
        2.46665         6.40909         1.24678 
        2.47279         6.38486         1.23913 
        2.47892         6.35867         1.23153 
        2.48507         6.34704         1.22399 
         2.4912         6.31692         1.21654 
