# k  (h/Mpc)    P(k)  (Mpc/h)^3    P_linear(k)  (Mpc/h)^3
     0.00783031         7807.02         7850.59 
       0.013688          9990.2           10206 
       0.019231         10731.9         10866.2 
      0.0249154         10563.6         10573.1 
      0.0312784         9552.13         9651.42 
      0.0375637         8425.37         8569.34 
      0.0433917         7595.09         7652.76 
      0.0492413         6805.63         6911.59 
      0.0555754         6257.71         6314.97 
      0.0619321         5668.79         5873.85 
       0.067871         5405.36         5532.38 
      0.0738098         5103.24         5198.96 
      0.0800417         4739.15         4820.35 
      0.0862327         4314.28         4410.31 
      0.0921407         3930.67         4008.15 
      0.0982031         3588.91         3616.48 
       0.104506         3206.01         3262.55 
       0.110769         2947.81         2981.72 
       0.116806         2799.33         2777.86 
       0.122832         2619.53         2626.93 
       0.129052         2500.84         2505.24 
       0.135211         2426.49          2396.5 
       0.141259         2280.47         2284.15 
       0.147318         2126.81         2157.79 
       0.153489         2011.79         2015.88 
       0.159709         1913.86         1867.91 
       0.165845         1742.15         1728.42 
       0.171974         1684.37         1605.32 
       0.178125         1607.86         1503.54 
       0.184229         1488.37         1424.38 
        0.19034         1458.36         1362.96 
       0.196428         1415.31         1312.95 
       0.202534         1333.41         1266.87 
       0.208729         1311.79         1218.35 
       0.214876         1263.05         1165.25 
       0.220989         1187.47         1107.49 
       0.227147         1158.61         1046.81 
        0.23329         1111.99         987.526 
       0.239377         1090.48         933.565 
       0.245482         1034.23         886.516 
       0.251667         993.757         846.772 
       0.257832         982.052         814.188 
       0.263955         933.399         786.721 
       0.270079         906.711          761.68 
        0.27624         870.114         736.753 
       0.282372         855.031         710.751 
        0.28843         847.822         683.549 
       0.294538         805.464         655.079 
       0.300721         782.312         626.355 
        0.30691          768.71         598.959 
       0.313033         736.264         574.223 
       0.319153         724.589         552.336 
       0.325316         712.351         533.099 
        0.33145         697.873         516.214 
       0.337538         673.755         500.908 
       0.343633         655.198         486.225 
       0.349808         640.163         471.405 
       0.355968          628.48         456.303 
       0.362074         609.656         441.091 
       0.368217         605.724         425.765 
       0.374374         594.588         410.816 
       0.380519         571.849         396.691 
       0.386598         565.724         383.737 
       0.392688         554.193         371.901 
        0.39888         539.475         360.894 
       0.405048         530.993         350.763 
       0.411186         528.265         341.225 
       0.417313         521.969         331.966 
       0.423458         506.651         322.793 
       0.429607         494.135         313.652 
       0.435692         486.407          304.66 
       0.441815         478.894         295.789 
       0.447964          468.93         287.185 
       0.454126         463.006         278.964 
       0.460267         455.977         271.249 
       0.466387         449.057         264.048 
        0.47254         442.492         257.223 
       0.478662         432.506         250.773 
       0.484765         428.281         244.597 
       0.490885         423.794         238.575 
       0.497035         416.181         232.627 
       0.503198          414.97         226.774 
       0.509342         404.559         221.063 
       0.515458         398.961         215.523 
       0.521598          392.25          210.14 
       0.527764         386.649         204.951 
       0.533884         385.546         200.037 
           0.54          379.36         195.347 
       0.546137         371.497         190.835 
       0.552299          370.74         186.472 
       0.558452         364.891         182.261 
       0.564573         361.139          178.19 
       0.570708         356.383         174.205 
       0.576825         350.285         170.317 
       0.582926         347.311         166.534 
       0.589034         342.788         162.852 
       0.595184         340.529         159.264 
       0.601379         334.602         155.771 
       0.607522         329.065         152.425 
       0.613639         327.202         149.206 
       0.619772         325.477         146.086 
       0.625918         320.961          143.06 
       0.632068          316.06         140.122 
       0.638161         313.236         137.289 
         0.6443         311.198         134.504 
       0.650464         306.373         131.774 
       0.656582         303.697         129.133 
       0.662703         301.616         126.561 
       0.668861         296.652         124.047 
       0.675024          295.37         121.605 
       0.681124         292.037          119.26 
       0.687237          289.21         116.977 
       0.693381         286.414         114.745 
       0.699536         283.259         112.568 
       0.705665         280.445         110.456 
       0.711789         278.441           108.4 
       0.717957         275.021         106.382 
        0.72409         272.602         104.426 
       0.730186         273.549          102.53 
       0.736317         268.649         100.672 
       0.742472         265.374         98.8524 
       0.748622         262.113           97.08 
        0.75476          262.67         95.3552 
       0.760888         259.436         93.6754 
       0.767043         256.433           92.03 
       0.773185         254.873         90.4282 
       0.779291          251.03         88.8743 
       0.785407         250.169         87.3553 
       0.791564         247.622         85.8627 
       0.797719         244.119         84.4062 
       0.803834         245.475          82.993 
       0.809972         242.923         81.6073 
       0.816124         239.716         80.2503 
       0.822261         237.263          78.928 
       0.828378         237.464         77.6396 
       0.834502         233.544         76.3789 
       0.840667         233.278         75.1383 
       0.846816         230.112         73.9288 
       0.852925         228.872         72.7538 
       0.859047         226.474          71.602 
       0.865192         226.236         70.4716 
       0.871341         223.142          69.365 
       0.877463         221.302         68.2873 
       0.883569         221.013         67.2354 
       0.889708         219.073         66.2005 
       0.895864         217.188         65.1848 
       0.902008         215.211         64.1928 
       0.908149         213.166         63.2222 
       0.914301         212.608         62.2702 
       0.920448         211.448         61.3388 
       0.926574         209.136         60.4299 
       0.932687         208.126         59.5415 
       0.938823         206.573         58.6679 
       0.944975         204.903         57.8099 
       0.951105         203.203         56.9723 
       0.957225         202.296         56.1528 
       0.963368         200.847         55.3467 
       0.969511         198.282         54.5566 
       0.975621         197.255         53.7862 
       0.981748         195.851         53.0288 
       0.987916         194.997         52.2813 
        0.99406         193.522         51.5511 
        1.00019         192.313         50.8364 
        1.00632         191.482         50.1359 
        1.01246         189.974         49.4477 
        1.01859          188.26         48.7736 
        1.02471         186.872         48.1129 
        1.03085         185.917         47.4623 
        1.03698          184.43         46.8251 
        1.04314         183.963          46.197 
        1.04929         182.904         45.5819 
        1.05541         181.486         44.9806 
        1.06154         180.297         44.3887 
        1.06769         178.653         43.8066 
        1.07382         178.107         43.2369 
        1.07993         176.688         42.6786 
        1.08607         175.242          42.128 
        1.09222         174.474         41.5866 
        1.09836         173.282         41.0554 
        1.10449         171.754         40.5341 
        1.11063         170.847         40.0214 
        1.11677          170.11         39.5177 
         1.1229         168.662         39.0236 
        1.12903          168.09         38.5376 
        1.13518         166.875         38.0595 
        1.14131         165.884         37.5898 
        1.14745         164.597         37.1283 
        1.15359         162.985         36.6746 
        1.15973         162.615         36.2282 
        1.16584         161.813         35.7913 
        1.17197          160.83         35.3611 
        1.17811         159.328         34.9366 
        1.18424         158.592         34.5204 
        1.19038         157.742         34.1098 
        1.19652         156.456          33.706 
        1.20267         155.682         33.3088 
        1.20881         154.612         32.9181 
        1.21495          154.23         32.5343 
        1.22108         152.937         32.1567 
         1.2272         151.865         31.7861 
        1.23334         151.385         31.4204 
        1.23949         150.787         31.0597 
        1.24562          149.49         30.7056 
        1.25174         148.234         30.3576 
        1.25789         147.768          30.014 
        1.26402         147.178         29.6763 
        1.27014          146.18         29.3446 
        1.27628          144.48          29.017 
        1.28244         144.312         28.6939 
        1.28858         143.187         28.3761 
        1.29471         142.331         28.0638 
        1.30084         141.543         27.7565 
        1.30697         140.999         27.4534 
        1.31312         140.013         27.1544 
        1.31925         138.843         26.8607 
        1.32537         138.503         26.5718 
        1.33151         137.784         26.2861 
        1.33765         136.389         26.0047 
        1.34378         136.428         25.7281 
        1.34992          135.74         25.4553 
        1.35606         134.618         25.1858 
         1.3622         134.277         24.9208 
        1.36833         132.728         24.6602 
        1.37445         132.505         24.4035 
        1.38059         131.705         24.1497 
        1.38675         130.831         23.8988 
        1.39288         130.091         23.6526 
        1.39901         129.085         23.4099 
        1.40515         128.765         23.1702 
         1.4113         128.094         22.9338 
        1.41742         127.044         22.7017 
        1.42355         126.704         22.4724 
         1.4297          125.71         22.2456 
        1.43585         124.895         22.0219 
        1.44198         124.077         21.8023 
        1.44809          123.25          21.586 
        1.45423         122.946         21.3719 
        1.46036         122.014         21.1611 
        1.46649         121.273          20.953 
        1.47263         121.006         20.7476 
        1.47877         119.971         20.5451 
        1.48491         119.299         20.3449 
        1.49104         118.117         20.1478 
        1.49718         118.217         19.9532 
        1.50333         117.489         19.7609 
        1.50947           116.9         19.5715 
         1.5156         116.211         19.3849 
        1.52172         115.443         19.2007 
        1.52787          114.78         19.0185 
          1.534         114.356         18.8389 
        1.54013          113.73         18.6619 
        1.54627         112.806         18.4868 
        1.55241         112.319         18.3139 
        1.55855         111.711         18.1435 
        1.56467         110.791         17.9757 
         1.5708          110.44         17.8096 
        1.57695         109.972         17.6453 
        1.58308         109.301         17.4835 
        1.58922         109.036         17.3236 
        1.59535         108.455         17.1657 
         1.6015         107.588         17.0096 
        1.60764           106.9         16.8556 
        1.61376         106.313         16.7038 
        1.61989         105.794         16.5539 
        1.62604         105.215         16.4054 
        1.63218         104.859         16.2588 
        1.63831         104.026         16.1144 
        1.64444         103.517         15.9717 
        1.65059         102.859         15.8303 
        1.65673         102.331         15.6909 
        1.66285         101.779         15.5535 
        1.66898         101.116         15.4177 
        1.67512         100.815         15.2833 
        1.68127         100.204         15.1503 
         1.6874         99.5894         15.0193 
        1.69353           98.93         14.8898 
        1.69967         98.7246         14.7616 
        1.70581         98.1911          14.635 
        1.71193         97.5715         14.5103 
        1.71806         96.8445         14.3868 
        1.72421         96.4492         14.2645 
        1.73035          96.187         14.1438 
        1.73649         95.4744         14.0244 
        1.74262         94.8336         13.9066 
        1.74876         94.3882         13.7901 
        1.75489         93.8154         13.6751 
        1.76101         93.2752         13.5614 
        1.76715         92.8204          13.449 
        1.77329         92.3442         13.3376 
        1.77943         91.8693         13.2275 
        1.78557         91.5087         13.1187 
        1.79171          91.001         13.0112 
        1.79785         90.3511         12.9049 
        1.80399         89.9928         12.7997 
        1.81012         89.3694         12.6959 
        1.81625         89.0983         12.5933 
        1.82239         88.7603         12.4917 
        1.82853          88.024         12.3912 
        1.83466         87.5245         12.2919 
        1.84078         87.1708         12.1939 
        1.84692         86.9014         12.0967 
        1.85306         86.3409         12.0005 
         1.8592         85.9466         11.9055 
        1.86533         85.4339         11.8115 
        1.87147          84.881         11.7185 
        1.87761         84.3883         11.6264 
        1.88375         83.8751         11.5355 
        1.88988         83.4376         11.4456 
        1.89601          83.084         11.3566 
        1.90215         82.5462         11.2685 
        1.90829         82.1705         11.1813 
        1.91442         81.8517         11.0951 
        1.92056         81.3831         11.0099 
         1.9267         80.9554         10.9255 
        1.93284         80.6299         10.8419 
        1.93897         80.2551         10.7593 
        1.94509         79.6913         10.6778 
        1.95123         79.3827         10.5969 
        1.95737         78.7655         10.5169 
        1.96349         78.4969         10.4378 
        1.96964         78.1276         10.3593 
        1.97578         77.5673         10.2816 
        1.98192         77.1917         10.2049 
        1.98805         76.7332         10.1289 
        1.99419         76.3112         10.0537 
        2.00033         75.8739         9.97919 
        2.00647         75.6693         9.90549 
         2.0126          75.221         9.83266 
        2.01874         74.9362         9.76045 
        2.02488         74.5599          9.6889 
        2.03101         74.1291          9.6182 
        2.03714         73.9026         9.54827 
        2.04328         73.3848         9.47896 
        2.04941         72.7807         9.41039 
        2.05554          72.697         9.34256 
        2.06167         72.3232          9.2753 
        2.06781         71.7494         9.20869 
        2.07396         71.4917         9.14265 
        2.08009         71.1693         9.07736 
        2.08622          70.739         9.01279 
        2.09237         70.3479         8.94872 
        2.09851         69.9003         8.88526 
        2.10464         69.6801         8.82252 
        2.11077         69.3465         8.76046 
        2.11691         69.0199         8.69886 
        2.12305         68.5347         8.63785 
        2.12918         68.1849         8.57758 
        2.13531         67.9325         8.51787 
        2.14145         67.4169         8.45859 
         2.1476         67.2004         8.39981 
        2.15372         66.8917         8.34189 
        2.15985         66.4692         8.28445 
        2.16599           66.09         8.22739 
        2.17213         65.8211         8.17093 
        2.17827         65.3928         8.11501 
         2.1844         65.1506         8.05966 
        2.19054         64.8274         8.00482 
        2.19666          64.406         7.95056 
         2.2028         64.1842         7.89675 
        2.20893         63.7621         7.84342 
        2.21508         63.3894         7.79052 
        2.22122         63.0521         7.73809 
        2.22736         62.7422         7.68625 
        2.23349         62.5534          7.6349 
        2.23962         62.2445         7.58399 
        2.24577         61.8232         7.53351 
         2.2519          61.566         7.48355 
        2.25802         61.2729         7.43412 
        2.26417         60.8884           7.385 
        2.27031          60.568         7.33628 
        2.27644          60.356         7.28814 
        2.28257         60.0506         7.24044 
        2.28872         59.8188         7.19307 
        2.29486         59.5345         7.14614 
        2.30099         59.0472         7.09972 
        2.30712         58.8982         7.05369 
        2.31326         58.5989         7.00799 
         2.3194         58.2172         6.96273 
        2.32553         58.0582         6.91794 
        2.33166          57.577         6.87356 
         2.3378           57.33         6.82951 
        2.34394         57.0588         6.78583 
        2.35007         56.7713          6.7426 
        2.35619         56.5285          6.6998 
        2.36233         56.1601         6.65727 
        2.36848         55.9023         6.61501 
        2.37462         55.6035         6.57322 
        2.38075          55.382         6.53182 
        2.38689         55.1109         6.49075 
        2.39303          54.898         6.45004 
        2.39916         54.6652         6.40972 
        2.40529         54.2929         6.36975 
        2.41143          54.033         6.33009 
        2.41757         53.7365         6.29074 
         2.4237         53.6199         6.25181 
        2.42983         53.1647         6.21321 
        2.43598         52.9392         6.17483 
        2.44211          52.712         6.13684 
        2.44823         52.4416         6.09925 
        2.45437         52.1826         6.06188 
        2.46052         51.8833         6.02478 
        2.46665         51.6113         5.98807 
        2.47279         51.4275         5.95167 
        2.47892         51.1441         5.91555 
        2.48507         50.9131         5.87969 
         2.4912         50.6283          5.8442 
