#  k  (h/Mpc)          P(k)  (Mpc/h)^3     P_linear(k) (Mpc/h)^3
     0.00783031         15038.4         15253.6 
       0.013688         18190.9           18023 
       0.019231         17705.8         17653.6 
      0.0249154         15523.9         15822.4 
      0.0312784         13124.8         13238.7 
      0.0375637         10936.6         10902.2 
      0.0433917         9114.16         9225.95 
      0.0492413         8032.44            8045 
      0.0555754         7044.05         7211.09 
      0.0619321         6704.98         6650.67 
       0.067871         6088.89            6214 
      0.0738098         5637.54         5752.88 
      0.0800417         5048.26         5197.87 
      0.0862327         4529.16         4596.14 
      0.0921407         4059.93         4031.66 
      0.0982031         3540.55         3521.44 
       0.104506         3237.92         3104.61 
       0.110769         2941.26         2812.38 
       0.116806         2744.22          2626.6 
       0.122832         2614.45         2501.59 
       0.129052         2443.44         2396.99 
       0.135211         2331.62         2285.15 
       0.141259         2233.28         2149.95 
       0.147318         2094.26         1988.99 
       0.153489         1905.14         1812.06 
       0.159709         1775.86         1639.94 
       0.165845         1674.38         1492.76 
       0.171974         1563.33         1377.06 
       0.178125         1478.68          1292.6 
       0.184229         1410.65         1233.66 
        0.19034         1330.17         1189.27 
       0.196428         1307.23         1148.92 
       0.202534         1263.26         1104.03 
       0.208729         1201.43         1049.89 
       0.214876         1143.64         988.378 
       0.220989          1097.9         923.793 
       0.227147         1043.43         860.952 
        0.23329         994.836         805.265 
       0.239377         970.355         759.567 
       0.245482         904.588         723.372 
       0.251667         897.449         694.663 
       0.257832         861.941         670.883 
       0.263955         834.053          648.83 
       0.270079         802.568         625.835 
        0.27624         792.902         600.507 
       0.282372         759.749         573.299 
        0.28843         745.153         545.567 
       0.294538         705.855         518.352 
       0.300721         700.517         493.012 
        0.30691         669.396         470.767 
       0.313033          655.44          451.99 
       0.319153         637.793         435.937 
       0.325316         618.326         421.642 
        0.33145         601.481         408.304 
       0.337538         591.165         395.153 
       0.343633          574.14         381.655 
       0.349808         553.404         367.584 
       0.355968          548.64         353.448 
       0.362074         540.337         339.748 
       0.368217          524.09         326.743 
       0.374374         501.623         314.756 
       0.380519         499.733         303.942 
       0.386598         485.891         294.278 
       0.392688         483.127         285.372 
        0.39888         468.634         276.846 
       0.405048         459.552         268.606 
       0.411186         451.981         260.489 
       0.417313         442.762         252.434 
       0.423458         433.736          244.43 
       0.429607         426.829         236.613 
       0.435692         416.329         229.199 
       0.441815         412.157         222.137 
       0.447964         403.167         215.488 
       0.454126         394.821         209.273 
       0.460267         386.922         203.446 
       0.466387         382.152         197.918 
        0.47254         375.723         192.568 
       0.478662          373.98         187.392 
       0.484765         360.635         182.334 
       0.490885         357.368         177.368 
       0.497035         350.327         172.516 
       0.503198         345.834         167.817 
       0.509342         343.136         163.315 
       0.515458         338.993         159.032 
       0.521598         330.334          154.94 
       0.527764         325.412         151.018 
       0.533884         322.762         147.281 
           0.54         318.152         143.679 
       0.546137          316.52         140.178 
       0.552299         310.015         136.765 
       0.558452         308.124         133.447 
       0.564573         303.631         130.235 
       0.570708         297.956          127.11 
       0.576825         292.149         124.099 
       0.582926         290.147         121.204 
       0.589034         287.329          118.41 
       0.595184         284.711         115.696 
       0.601379         280.203         113.056 
       0.607522         276.143         110.525 
       0.613639         274.562         108.083 
       0.619772         268.789         105.708 
       0.625918          267.55         103.394 
       0.632068         263.019         101.141 
       0.638161         261.913          98.971 
         0.6443         257.579         96.8469 
       0.650464         254.954         94.7786 
       0.656582          252.53         92.7894 
       0.662703         251.826         90.8609 
       0.668861         247.324         88.9794 
       0.675024         244.276         87.1512 
       0.681124         242.639          85.393 
       0.687237         240.038         83.6789 
       0.693381         236.227         82.0027 
       0.699536         233.922         80.3687 
       0.705665         232.072          78.786 
       0.711789         230.293         77.2473 
       0.717957         228.975         75.7396 
        0.72409         226.374         74.2809 
       0.730186         223.634         72.8699 
       0.736317         221.068         71.4882 
       0.742472         219.648         70.1376 
       0.748622         217.827         68.8233 
        0.75476          215.63         67.5457 
       0.760888         213.076         66.3026 
       0.767043         212.972          65.086 
       0.773185         210.485         63.9026 
       0.779291         206.673         62.7555 
       0.785407         206.248         61.6351 
       0.791564         203.958         60.5352 
       0.797719         201.357         59.4628 
       0.803834         199.954         58.4233 
       0.809972         199.165         57.4051 
       0.816124         198.364         56.4091 
       0.822261         196.217         55.4394 
       0.828378         194.178         54.4956 
       0.834502         193.212         53.5729 
       0.840667         190.891         52.6658 
       0.846816         189.443         51.7822 
       0.852925         188.532         50.9244 
       0.859047         186.824         50.0844 
       0.865192         184.447         49.2606 
       0.871341         183.085         48.4548 
       0.877463         181.908         47.6708 
       0.883569         181.331         46.9062 
       0.889708         179.128         46.1544 
       0.895864         177.288         45.4173 
       0.902008         176.267         44.6978 
       0.908149         175.663         43.9944 
       0.914301         173.246         43.3051 
       0.920448         172.248         42.6312 
       0.926574          170.94          41.974 
       0.932687         170.851         41.3321 
       0.938823         168.573         40.7014 
       0.944975         167.425         40.0824 
       0.951105         166.489         39.4785 
       0.957225         165.125         38.8881 
       0.963368         162.857         38.3078 
       0.969511           162.3         37.7393 
       0.975621         160.914         37.1855 
       0.981748         160.719         36.6414 
       0.987916         159.066         36.1048 
        0.99406         157.573         35.5809 
        1.00019         157.453         35.0686 
        1.00632          155.81         34.5668 
        1.01246         154.777         34.0741 
        1.01859         154.498         33.5918 
        1.02471          152.24         33.1195 
        1.03085         151.088         32.6547 
        1.03698         150.411         32.1998 
        1.04314         148.922         31.7517 
        1.04929         148.214         31.3132 
        1.05541         147.841         30.8847 
        1.06154         146.364         30.4632 
        1.06769         146.121          30.049 
        1.07382         144.696         29.6438 
        1.07993         143.587          29.247 
        1.08607         142.918         28.8559 
        1.09222         142.194         28.4715 
        1.09836          141.01         28.0946 
        1.10449         139.502         27.7249 
        1.11063         138.488         27.3615 
        1.11677         138.065         27.0048 
         1.1229         136.981          26.655 
        1.12903         136.392         26.3111 
        1.13518         135.694         25.9731 
        1.14131         134.273         25.6411 
        1.14745         134.056         25.3151 
        1.15359         132.945         24.9947 
        1.15973         132.158         24.6798 
        1.16584         130.955         24.3716 
        1.17197          130.47         24.0683 
        1.17811         129.542         23.7692 
        1.18424         128.997         23.4761 
        1.19038         128.659         23.1871 
        1.19652         127.529          22.903 
        1.20267         126.727         22.6237 
        1.20881         125.756         22.3492 
        1.21495          125.02         22.0796 
        1.22108           124.3         21.8145 
         1.2272         123.278         21.5544 
        1.23334         122.865          21.298 
        1.23949         122.012         21.0451 
        1.24562         121.212          20.797 
        1.25174         120.513         20.5533 
        1.25789         119.736         20.3127 
        1.26402           118.6         20.0765 
        1.27014         117.964         19.8446 
        1.27628          117.64         19.6156 
        1.28244         117.258         19.3899 
        1.28858         116.382          19.168 
        1.29471         115.214           18.95 
        1.30084         115.131         18.7357 
        1.30697           113.9         18.5243 
        1.31312         113.437         18.3159 
        1.31925         112.606         18.1114 
        1.32537         112.222         17.9102 
        1.33151         111.177         17.7113 
        1.33765         110.677         17.5156 
        1.34378         110.162         17.3232 
        1.34992         109.782         17.1335 
        1.35606         109.255         16.9463 
         1.3622           108.1         16.7622 
        1.36833         107.499         16.5813 
        1.37445         107.057         16.4031 
        1.38059         106.275         16.2271 
        1.38675         105.686         16.0531 
        1.39288          105.38         15.8824 
        1.39901         104.881         15.7143 
        1.40515         103.924         15.5482 
         1.4113         103.452         15.3846 
        1.41742         102.805          15.224 
        1.42355         102.169         15.0653 
         1.4297          101.74         14.9085 
        1.43585         100.953         14.7539 
        1.44198         100.508         14.6021 
        1.44809         100.042         14.4527 
        1.45423         99.5166         14.3049 
        1.46036         98.9641         14.1593 
        1.46649         98.1842         14.0158 
        1.47263         97.5384         13.8741 
        1.47877         97.2235         13.7345 
        1.48491         96.3621         13.5965 
        1.49104         96.2163         13.4608 
        1.49718         95.5105         13.3268 
        1.50333         95.0104         13.1944 
        1.50947         94.5502          13.064 
         1.5156         93.9734         12.9356 
        1.52172         93.4383          12.809 
        1.52787         92.8679         12.6838 
          1.534         92.3886         12.5604 
        1.54013         91.9041         12.4387 
        1.54627         91.5039         12.3185 
        1.55241         90.7678         12.1998 
        1.55855         90.2703         12.0829 
        1.56467         90.1019         11.9678 
         1.5708         89.2737         11.8539 
        1.57695         89.1239         11.7413 
        1.58308         88.4601         11.6304 
        1.58922         88.2066         11.5209 
        1.59535         87.6344         11.4128 
         1.6015         87.1396          11.306 
        1.60764         86.6282         11.2006 
        1.61376         86.3205         11.0968 
        1.61989         85.7677         10.9942 
        1.62604         85.3675         10.8927 
        1.63218         85.0993         10.7926 
        1.63831         84.1897         10.6939 
        1.64444         83.9122         10.5964 
        1.65059         83.4577         10.4999 
        1.65673          82.827         10.4047 
        1.66285          82.568          10.311 
        1.66898         82.2688         10.2183 
        1.67512         81.5875         10.1267 
        1.68127         81.3174          10.036 
         1.6874         80.6879         9.94669 
        1.69353          80.306          9.8585 
        1.69967           80.04         9.77117 
        1.70581         79.5717         9.68493 
        1.71193         79.1525         9.60006 
        1.71806         78.8056         9.51602 
        1.72421         78.1795         9.43282 
        1.73035         77.9465         9.35071 
        1.73649         77.5367         9.26959 
        1.74262         76.9634          9.1895 
        1.74876         76.7293          9.1103 
        1.75489         76.1506         9.03219 
        1.76101         75.8071         8.95502 
        1.76715         75.2494         8.87865 
        1.77329          75.071         8.80307 
        1.77943         74.4668         8.72833 
        1.78557         74.3691         8.65458 
        1.79171          73.611         8.58166 
        1.79785         73.3089         8.50956 
        1.80399         72.9802         8.43831 
        1.81012         72.7313         8.36797 
        1.81625         72.3174         8.29846 
        1.82239         71.9698         8.22964 
        1.82853         71.6342         8.16162 
        1.83466         71.1721         8.09444 
        1.84078         70.8123         8.02809 
        1.84692         70.4768         7.96237 
        1.85306         70.0613         7.89731 
         1.8592          69.823         7.83307 
        1.86533         69.3305         7.76958 
        1.87147         68.8835         7.70672 
        1.87761         68.6753         7.64453 
        1.88375         68.2958         7.58309 
        1.88988         67.9339          7.5224 
        1.89601          67.553         7.46233 
        1.90215          67.126         7.40286 
        1.90829         66.8252         7.34408 
        1.91442         66.5146         7.28592 
        1.92056         66.0958         7.22844 
         1.9267         65.8465         7.17152 
        1.93284         65.4681         7.11518 
        1.93897         65.1359         7.05955 
        1.94509         64.9209         7.00464 
        1.95123         64.4836         6.95016 
        1.95737          64.092         6.89623 
        1.96349         63.7347           6.843 
        1.96964         63.4461         6.79018 
        1.97578         63.0967          6.7379 
        1.98192         63.0038         6.68627 
        1.98805         62.3933         6.63517 
        1.99419         62.1933          6.5846 
        2.00033              62         6.53454 
        2.00647         61.5364           6.485 
         2.0126         61.2244         6.43607 
        2.01874         60.7659         6.38756 
        2.02488         60.6302         6.33951 
        2.03101         60.2653         6.29204 
        2.03714         59.8416          6.2451 
        2.04328         59.6599         6.19858 
        2.04941         59.4067         6.15258 
        2.05554         59.1835         6.10707 
        2.06167         58.8422         6.06196 
        2.06781         58.3909          6.0173 
        2.07396         58.1108         5.97302 
        2.08009         57.9193         5.92927 
        2.08622         57.6003           5.886 
        2.09237         57.3379         5.84308 
        2.09851         57.1407         5.80058 
        2.10464         56.7484         5.75857 
        2.11077          56.443         5.71702 
        2.11691         56.1576          5.6758 
        2.12305         55.8644         5.63497 
        2.12918         55.6294         5.59465 
        2.13531         55.2577         5.55471 
        2.14145         55.0076         5.51508 
         2.1476         54.6879         5.47578 
        2.15372         54.5019         5.43706 
        2.15985         54.1917         5.39867 
        2.16599         53.9111         5.36055 
        2.17213         53.6969         5.32283 
        2.17827         53.3694         5.28549 
         2.1844         53.0757         5.24853 
        2.19054         52.8908         5.21192 
        2.19666         52.5627          5.1757 
         2.2028         52.4762         5.13979 
        2.20893         52.0917         5.10421 
        2.21508         51.8718         5.06892 
        2.22122         51.6177         5.03395 
        2.22736         51.3875         4.99939 
        2.23349         51.0781         4.96515 
        2.23962         50.7515         4.93122 
        2.24577         50.4716         4.89758 
         2.2519         50.3352         4.86429 
        2.25802         50.1186         4.83137 
        2.26417         49.7344         4.79865 
        2.27031         49.5199         4.76621 
        2.27644         49.3361         4.73417 
        2.28257         49.0809         4.70242 
        2.28872         48.7674          4.6709 
        2.29486         48.4924         4.63967 
        2.30099         48.2724         4.60879 
        2.30712         48.1359         4.57818 
        2.31326         47.8438         4.54779 
         2.3194         47.5789          4.5177 
        2.32553         47.3537         4.48793 
        2.33166         47.0241         4.45844 
         2.3378         46.8128         4.42917 
        2.34394         46.5941         4.40016 
        2.35007         46.3993         4.37144 
        2.35619         46.1959         4.34302 
        2.36233         45.9422         4.31478 
        2.36848         45.7374         4.28673 
        2.37462         45.4533         4.25899 
        2.38075         45.3351         4.23152 
        2.38689         45.0885         4.20427 
        2.39303          44.848         4.17726 
        2.39916         44.6226         4.15052 
        2.40529         44.4571         4.12401 
        2.41143         44.2545         4.09772 
        2.41757         43.9808         4.07164 
         2.4237          43.802         4.04584 
        2.42983         43.5276         4.02026 
        2.43598         43.3147         3.99483 
        2.44211          43.148         3.96967 
        2.44823         42.9532         3.94478 
        2.45437         42.7063         3.92003 
        2.46052         42.5145         3.89547 
        2.46665         42.3476         3.87117 
        2.47279         42.0545         3.84708 
        2.47892         41.9218         3.82318 
        2.48507         41.6617         3.79946 
         2.4912         41.5225         3.77599 
