# k  (h/Mpc)    P(k)  (Mpc/h)^3    P_linear(k)  (Mpc/h)^3
     0.00783031         5819.42         5883.73 
       0.013688         6631.26         6757.48 
       0.019231         6352.94         6413.27 
      0.0249154         5568.61         5550.93 
      0.0312784         4468.64         4474.72 
      0.0375637         3567.12         3584.83 
      0.0433917         3007.48         2997.85 
      0.0492413         2613.56         2617.99 
      0.0555754         2383.52         2369.73 
      0.0619321         2169.22         2202.15 
       0.067871         2045.74         2052.72 
      0.0738098         1874.93         1875.14 
      0.0800417         1664.18         1655.93 
      0.0862327         1431.84         1428.17 
      0.0921407         1240.27         1230.24 
      0.0982031          1089.7         1067.83 
       0.104506          958.58         949.909 
       0.110769         889.395         877.584 
       0.116806         856.012         835.844 
       0.122832         814.902         805.037 
       0.129052         780.981         769.709 
       0.135211         741.502         722.691 
       0.141259         677.836         664.665 
       0.147318         610.799         600.777 
       0.153489         554.529         538.337 
       0.159709         510.092         485.328 
       0.165845         462.172         446.155 
       0.171974         446.955         419.501 
       0.178125         427.657         401.911 
       0.184229         406.146          388.88 
        0.19034         396.805         375.809 
       0.196428           381.3         359.804 
       0.202534         353.528         339.924 
       0.208729         339.569         317.015 
       0.214876         319.624         293.872 
       0.220989         294.166          272.78 
       0.227147         282.799         255.041 
        0.23329          269.56         241.314 
       0.239377         262.085         231.078 
       0.245482         249.793          222.99 
       0.251667         239.756          215.64 
       0.257832         236.442         208.009 
       0.263955         222.874         199.513 
       0.270079         212.926         190.121 
        0.27624         202.815         180.245 
       0.282372         195.148          170.66 
        0.28843         191.408         162.026 
       0.294538         181.556         154.485 
       0.300721         173.863         148.098 
        0.30691         170.589         142.707 
       0.313033          163.17         137.999 
       0.319153         160.257         133.518 
       0.325316         154.719         128.961 
        0.33145         149.534          124.24 
       0.337538         144.059         119.426 
       0.343633         139.401         114.609 
       0.349808         134.574         109.928 
       0.355968         130.838         105.603 
       0.362074          127.64         101.732 
       0.368217         124.555         98.2484 
       0.374374         121.187         95.0833 
       0.380519         116.094         92.1483 
       0.386598         113.543         89.3523 
       0.392688         109.958         86.5874 
        0.39888         107.941         83.7896 
       0.405048         105.242         81.0202 
       0.411186         103.051         78.3305 
       0.417313         100.276         75.7576 
       0.423458         97.5395         73.3206 
       0.429607           95.31         71.0471 
       0.435692         93.8131          68.952 
       0.441815         90.7563          66.969 
       0.447964         87.9566         65.0762 
       0.454126          86.321         63.2498 
       0.460267         85.4895         61.4745 
       0.466387         83.1761         59.7426 
        0.47254         82.1334         58.0453 
       0.478662         79.2073         56.4076 
       0.484765         77.8642         54.8348 
       0.490885         75.8605         53.3268 
       0.497035          75.135         51.8864 
       0.503198         73.4632         50.5122 
       0.509342         71.4995          49.202 
       0.515458         70.3962         47.9488 
       0.521598         68.5953         46.7345 
       0.527764          67.789         45.5523 
       0.533884         67.0825         44.4106 
           0.54         65.2393          43.302 
       0.546137          63.578         42.2245 
       0.552299         62.3949         41.1802 
       0.558452         61.1989          40.176 
       0.564573         60.8587         39.2135 
       0.570708         59.0749         38.2838 
       0.576825         58.4475         37.3905 
       0.582926         57.6538         36.5302 
       0.589034         56.5187         35.6964 
       0.595184          55.755         34.8819 
       0.601379         54.4042         34.0849 
       0.607522         53.3325         33.3173 
       0.613639         52.8607         32.5758 
       0.619772           51.77         31.8553 
       0.625918         51.1994         31.1564 
       0.632068         50.3892         30.4793 
       0.638161         49.4773         29.8291 
         0.6443         49.0416         29.1938 
       0.650464         47.8436          28.575 
       0.656582         47.6459         27.9786 
       0.662703           46.91         27.3992 
       0.668861         45.8148         26.8328 
       0.675024         45.5634         26.2821 
       0.681124         44.9742         25.7523 
       0.687237         44.1056         25.2359 
       0.693381         43.5108         24.7314 
       0.699536          43.076         24.2399 
       0.705665         42.4228         23.7639 
       0.711789         41.7727         23.3014 
       0.717957         41.1079         22.8483 
        0.72409         40.6659           22.41 
       0.730186         40.3963          21.986 
       0.736317         39.6441         21.5708 
       0.742472         39.1332         21.1648 
       0.748622         38.5838         20.7698 
        0.75476         38.0039         20.3858 
       0.760888          37.902          20.012 
       0.767043         37.0899         19.6462 
       0.773185         36.6074         19.2904 
       0.779291         36.1843         18.9454 
       0.785407         35.7589         18.6085 
       0.791564         35.6702         18.2777 
       0.797719         34.9207         17.9552 
       0.803834         34.7158         17.6426 
       0.809972         34.2222         17.3364 
       0.816124         33.8546         17.0369 
       0.822261         33.3824         16.7453 
       0.828378         33.2082         16.4614 
       0.834502         32.8002          16.184 
       0.840667         32.4847         15.9112 
       0.846816         32.0049         15.6455 
       0.852925          31.724         15.3876 
       0.859047         31.5874          15.135 
       0.865192          31.062         14.8872 
       0.871341         30.6968         14.6449 
       0.877463         30.3746         14.4092 
       0.883569         30.2514         14.1792 
       0.889708         29.8586         13.9531 
       0.895864         29.5306         13.7313 
       0.902008         29.2582         13.5149 
       0.908149         28.8829         13.3033 
       0.914301         28.6558         13.0959 
       0.920448         28.4529         12.8932 
       0.926574         28.0788         12.6954 
       0.932687         27.7837         12.5023 
       0.938823         27.4296         12.3125 
       0.944975         27.2043         12.1262 
       0.951105         27.0227         11.9445 
       0.957225         26.7733         11.7669 
       0.963368         26.5024         11.5922 
       0.969511         26.2545         11.4212 
       0.975621         26.0638         11.2545 
       0.981748          25.759         11.0908 
       0.987916         25.5656         10.9293 
        0.99406         25.2687         10.7716 
        1.00019         25.0976         10.6174 
        1.00632         24.9126         10.4664 
        1.01246         24.6505         10.3181 
        1.01859         24.4453         10.1729 
        1.02471         24.2243         10.0307 
        1.03085         24.0814         9.89079 
        1.03698         23.9335         9.75383 
        1.04314         23.6704         9.61891 
        1.04929          23.371         9.48687 
        1.05541         23.3268         9.35786 
        1.06154         23.1159         9.23094 
        1.06769         22.8007         9.10619 
        1.07382         22.6827         8.98417 
        1.07993           22.51         8.86468 
        1.08607         22.3099         8.74687 
        1.09222         22.1459         8.63109 
        1.09836         21.9271         8.51755 
        1.10449         21.8521          8.4062 
        1.11063         21.6339         8.29672 
        1.11677         21.5782         8.18923 
         1.1229          21.333         8.08385 
        1.12903         21.1408         7.98023 
        1.13518         21.0773         7.87836 
        1.14131         20.8872         7.77832 
        1.14745         20.6663         7.68009 
        1.15359         20.4545         7.58353 
        1.15973         20.3936         7.48861 
        1.16584         20.2044         7.39574 
        1.17197         19.9829         7.30432 
        1.17811         19.8973         7.21416 
        1.18424         19.6684          7.1258 
        1.19038         19.6194         7.03867 
        1.19652         19.4174         6.95303 
        1.20267         19.3531         6.86883 
        1.20881         19.1661         6.78604 
        1.21495          19.089         6.70476 
        1.22108         18.9895         6.62482 
         1.2272         18.8057         6.54638 
        1.23334         18.7159         6.46904 
        1.23949         18.5526         6.39277 
        1.24562         18.3856         6.31795 
        1.25174         18.3211         6.24445 
        1.25789         18.2099         6.17189 
        1.26402         18.0855         6.10062 
        1.27014         17.9751         6.03066 
        1.27628          17.806         5.96159 
        1.28244         17.8058         5.89348 
        1.28858         17.6018         5.82652 
        1.29471         17.4607         5.76076 
        1.30084         17.3523         5.69608 
        1.30697         17.2501          5.6323 
        1.31312         17.1418          5.5694 
        1.31925         17.0259         5.50767 
        1.32537         16.8836         5.44694 
        1.33151         16.7609         5.38691 
        1.33765         16.7526         5.32782 
        1.34378         16.6394         5.26974 
        1.34992         16.5031         5.21248 
        1.35606         16.3569         5.15595 
         1.3622         16.2904         5.10036 
        1.36833         16.2265         5.04573 
        1.37445          16.095         4.99192 
        1.38059         15.9961         4.93874 
        1.38675         15.9226         4.88621 
        1.39288         15.7885         4.83465 
        1.39901         15.6859         4.78386 
        1.40515         15.6336         4.73369 
         1.4113         15.5423         4.68426 
        1.41742         15.4524         4.63573 
        1.42355         15.3305          4.5878 
         1.4297         15.2478          4.5404 
        1.43585         15.1606         4.49369 
        1.44198         15.1247         4.44782 
        1.44809         15.0178         4.40267 
        1.45423         14.9259         4.35799 
        1.46036          14.841         4.31401 
        1.46649         14.7459         4.27063 
        1.47263         14.6667         4.22781 
        1.47877         14.5615         4.18559 
        1.48491          14.516         4.14389 
        1.49104         14.4193         4.10285 
        1.49718         14.3781         4.06233 
        1.50333         14.2948          4.0223 
        1.50947         14.1908         3.98289 
         1.5156         14.1387         3.94407 
        1.52172          14.039         3.90577 
        1.52787         14.0191          3.8679 
          1.534         13.9112         3.83058 
        1.54013          13.863         3.79379 
        1.54627         13.7444         3.75742 
        1.55241         13.6595         3.72152 
        1.55855         13.6001         3.68614 
        1.56467         13.5457         3.65132 
         1.5708         13.4852         3.61686 
        1.57695          13.421         3.58279 
        1.58308          13.318         3.54923 
        1.58922         13.2582         3.51608 
        1.59535         13.1978         3.48337 
         1.6015         13.1129         3.45104 
        1.60764         13.0584         3.41912 
        1.61376         13.0102          3.3877 
        1.61989         12.8866         3.35666 
        1.62604         12.8586         3.32593 
        1.63218         12.7966          3.2956 
        1.63831         12.7128         3.26573 
        1.64444         12.6588         3.23621 
        1.65059         12.6013         3.20699 
        1.65673          12.537         3.17817 
        1.66285         12.4591         3.14977 
        1.66898         12.4205         3.12172 
        1.67512         12.3959         3.09395 
        1.68127         12.3155          3.0665 
         1.6874         12.2704         3.03944 
        1.69353         12.1549         3.01273 
        1.69967         12.1067         2.98627 
        1.70581         12.0685         2.96014 
        1.71193         11.9936         2.93443 
        1.71806          11.938         2.90896 
        1.72421         11.8901         2.88375 
        1.73035         11.8391         2.85887 
        1.73649         11.7823         2.83428 
        1.74262          11.729         2.81001 
        1.74876         11.6722           2.786 
        1.75489         11.6205         2.76233 
        1.76101         11.5335         2.73893 
        1.76715         11.5237         2.71578 
        1.77329         11.4431         2.69286 
        1.77943         11.3977         2.67021 
        1.78557         11.3786         2.64784 
        1.79171         11.2919         2.62573 
        1.79785         11.2299         2.60387 
        1.80399         11.1784         2.58226 
        1.81012         11.1405         2.56092 
        1.81625         11.0947         2.53984 
        1.82239         11.0248         2.51896 
        1.82853         10.9874         2.49833 
        1.83466         10.9214         2.47795 
        1.84078         10.8782         2.45782 
        1.84692         10.8738         2.43788 
        1.85306         10.8145         2.41813 
         1.8592         10.7683         2.39864 
        1.86533          10.698         2.37938 
        1.87147         10.6539          2.3603 
        1.87761          10.619         2.34142 
        1.88375          10.577         2.32278 
        1.88988         10.5095         2.30435 
        1.89601         10.4846         2.28612 
        1.90215         10.4116         2.26807 
        1.90829         10.3658         2.25022 
        1.91442          10.326         2.23257 
        1.92056         10.2893         2.21512 
         1.9267         10.2605         2.19784 
        1.93284         10.2455         2.18073 
        1.93897         10.1575         2.16384 
        1.94509         10.1254         2.14716 
        1.95123         10.0714         2.13062 
        1.95737         10.0208         2.11423 
        1.96349         9.98336         2.09807 
        1.96964         9.97358         2.08202 
        1.97578         9.91968         2.06614 
        1.98192          9.8885         2.05046 
        1.98805         9.81298         2.03493 
        1.99419         9.80403         2.01957 
        2.00033         9.74371         2.00436 
        2.00647         9.69884         1.98931 
         2.0126         9.66361         1.97443 
        2.01874         9.62789         1.95969 
        2.02488         9.57135         1.94509 
        2.03101         9.56305         1.93066 
        2.03714         9.50309         1.91639 
        2.04328         9.47218         1.90225 
        2.04941         9.42022         1.88827 
        2.05554         9.40195         1.87443 
        2.06167         9.37272         1.86072 
        2.06781         9.34377         1.84714 
        2.07396         9.30076         1.83368 
        2.08009         9.23534         1.82037 
        2.08622         9.21301         1.80721 
        2.09237         9.19814         1.79416 
        2.09851         9.13151         1.78123 
        2.10464          9.1116         1.76846 
        2.11077         9.05793         1.75582 
        2.11691         9.02846         1.74328 
        2.12305         8.99394         1.73086 
        2.12918         8.94595         1.71859 
        2.13531         8.93206         1.70644 
        2.14145         8.88119         1.69438 
         2.1476         8.84644         1.68242 
        2.15372         8.83863         1.67064 
        2.15985         8.78014         1.65896 
        2.16599         8.76255         1.64735 
        2.17213         8.74017         1.63587 
        2.17827         8.69948         1.62451 
         2.1844         8.66353         1.61326 
        2.19054         8.63022         1.60211 
        2.19666         8.60282         1.59109 
         2.2028           8.572         1.58016 
        2.20893         8.53299         1.56932 
        2.21508         8.49582         1.55858 
        2.22122         8.45901         1.54793 
        2.22736         8.43388         1.53741 
        2.23349          8.3957         1.52698 
        2.23962         8.37073         1.51665 
        2.24577         8.36476          1.5064 
         2.2519         8.31799         1.49626 
        2.25802         8.27273         1.48623 
        2.26417         8.26037         1.47627 
        2.27031          8.2319         1.46639 
        2.27644         8.21453         1.45662 
        2.28257         8.14719         1.44695 
        2.28872         8.14263         1.43735 
        2.29486         8.11574         1.42783 
        2.30099         8.07267         1.41842 
        2.30712         8.03324          1.4091 
        2.31326         8.01121         1.39984 
         2.3194         7.97433         1.39066 
        2.32553         7.95342         1.38159 
        2.33166         7.90991          1.3726 
         2.3378         7.90385         1.36368 
        2.34394         7.86092         1.35484 
        2.35007         7.84427         1.34608 
        2.35619         7.81552         1.33742 
        2.36233         7.77677         1.32881 
        2.36848         7.74159         1.32026 
        2.37462         7.72034          1.3118 
        2.38075         7.68352         1.30342 
        2.38689         7.67753         1.29511 
        2.39303         7.64371         1.28688 
        2.39916         7.62573         1.27872 
        2.40529         7.60458         1.27064 
        2.41143         7.56471         1.26262 
        2.41757         7.53178         1.25466 
         2.4237         7.50643         1.24679 
        2.42983         7.49286         1.23899 
        2.43598         7.45821         1.23123 
        2.44211         7.42874         1.22355 
        2.44823         7.40151         1.21596 
        2.45437         7.38915          1.2084 
        2.46052         7.36639         1.20091 
        2.46665         7.34052         1.19349 
        2.47279         7.31067         1.18614 
        2.47892         7.27719         1.17885 
        2.48507         7.25604         1.17161 
         2.4912         7.23208         1.16444 
