# k  (h/Mpc)    P(k)  (Mpc/h)^3    P_linear(k)  (Mpc/h)^3
     0.00783031         4601.88         4660.42 
       0.013688         6070.13         6055.14 
       0.019231         6419.99         6420.37 
      0.0249154         6132.05         6211.46 
      0.0312784         5594.38         5630.25 
      0.0375637          4965.5         4967.24 
      0.0433917         4369.23         4416.39 
      0.0492413         3961.65         3978.85 
      0.0555754         3570.19         3633.11 
      0.0619321         3387.99         3381.16 
       0.067871         3136.12            3186 
      0.0738098         2940.86          2992.6 
      0.0800417         2699.75         2769.59 
      0.0862327         2480.55         2526.43 
      0.0921407         2264.83         2288.37 
      0.0982031         2028.63          2058.3 
       0.104506         1863.56         1852.97 
       0.110769         1703.73          1692.7 
       0.116806         1578.42         1578.43 
       0.122832         1504.95         1495.08 
       0.129052         1416.78         1427.92 
       0.135211          1355.8         1366.67 
       0.141259         1303.27         1301.69 
       0.147318         1236.37         1227.48 
       0.153489         1144.36         1143.93 
       0.159709         1071.75         1057.38 
       0.165845         1011.83         976.757 
       0.171974         937.414         906.692 
       0.178125         885.171         849.733 
       0.184229         846.417         806.141 
        0.19034         794.502         772.613 
       0.196428         781.106         745.114 
       0.202534         760.784         719.166 
       0.208729         726.912         691.144 
       0.214876         689.909         660.074 
       0.220989         668.959         626.278 
       0.227147         628.207         591.062 
        0.23329         599.455         557.083 
       0.239377         580.465         526.597 
       0.245482         542.123         500.402 
       0.251667           533.5         478.519 
       0.257832         515.412         460.639 
       0.263955         498.679         445.456 
       0.270079         483.072          431.35 
        0.27624         476.393         417.039 
       0.282372         457.609         401.948 
        0.28843         442.777         386.138 
       0.294538         423.608         369.714 
       0.300721         418.037         353.309 
        0.30691         398.268         337.863 
       0.313033         388.259          324.06 
       0.319153         373.131         311.956 
       0.325316         364.008         301.325 
        0.33145          352.97         291.952 
       0.337538         348.289         283.345 
       0.343633         337.373         274.987 
       0.349808         327.517         266.461 
       0.355968         322.144         257.763 
       0.362074         313.743         249.024 
       0.368217         305.462         240.289 
       0.374374         295.651          231.85 
       0.380519         290.036         223.934 
       0.386598         282.897         216.728 
       0.392688         279.283         210.147 
        0.39888         271.962         204.012 
       0.405048         266.419          198.33 
       0.411186         260.668          192.93 
       0.417313         255.397         187.652 
       0.423458         250.423         182.411 
       0.429607         244.462         177.183 
       0.435692         237.468         172.068 
       0.441815         235.852         167.052 
       0.447964         231.831         162.209 
       0.454126         222.218         157.604 
       0.460267         219.779         153.299 
       0.466387         216.784         149.269 
        0.47254         212.693         145.438 
       0.478662         210.564         141.804 
       0.484765         205.065         138.308 
       0.490885         201.909         134.882 
       0.497035         199.249         131.499 
       0.503198         194.079         128.179 
       0.509342         191.254         124.945 
       0.515458         188.701         121.818 
       0.521598         186.376          118.79 
       0.527764         183.425         115.881 
       0.533884         180.386         113.125 
           0.54         177.758         110.488 
       0.546137         176.435         107.946 
       0.552299         173.589         105.485 
       0.558452         170.185         103.104 
       0.564573         167.164         100.798 
       0.570708         165.129         98.5371 
       0.576825         162.802         96.3366 
       0.582926         160.294          94.201 
       0.589034         157.532         92.1269 
       0.595184         156.045         90.1067 
       0.601379         154.574         88.1399 
       0.607522         150.843         86.2553 
       0.613639         150.682         84.4423 
       0.619772         147.225         82.6847 
       0.625918         145.955         80.9775 
       0.632068         144.294         79.3172 
       0.638161         142.871         77.7141 
         0.6443         140.919         76.1375 
       0.650464         139.256         74.5946 
       0.656582          137.75         73.1038 
       0.662703         135.303         71.6538 
       0.668861         134.018         70.2376 
       0.675024         132.473         68.8617 
       0.681124         131.183         67.5388 
       0.687237         128.912         66.2497 
       0.693381         127.539         64.9891 
       0.699536         126.169         63.7594 
       0.705665          126.77          62.567 
       0.711789         123.358         61.4062 
       0.717957         122.855         60.2668 
        0.72409         121.102         59.1625 
       0.730186         119.109         58.0925 
       0.736317         118.928         57.0429 
       0.742472         117.606         56.0154 
       0.748622         116.752         55.0143 
        0.75476         115.504         54.0402 
       0.760888         113.964         53.0915 
       0.767043         112.901         52.1625 
       0.773185         111.716         51.2582 
       0.779291         110.809         50.3809 
       0.785407         109.976         49.5234 
       0.791564         108.559         48.6806 
       0.797719         107.221         47.8582 
       0.803834         106.806           47.06 
       0.809972         105.062         46.2772 
       0.816124         104.527         45.5106 
       0.822261         103.712         44.7635 
       0.828378         102.731         44.0355 
       0.834502         101.862         43.3231 
       0.840667         100.955         42.6221 
       0.846816          99.907         41.9386 
       0.852925         98.8972         41.2747 
       0.859047          97.731         40.6239 
       0.865192         97.5065         39.9851 
       0.871341         96.6834         39.3598 
       0.877463         95.2673         38.7508 
       0.883569         94.7157         38.1564 
       0.889708         94.2299         37.5715 
       0.895864         93.3528         36.9976 
       0.902008         92.6474         36.4369 
       0.908149         92.0168         35.8883 
       0.914301         91.0551         35.3502 
       0.920448         90.3876         34.8237 
       0.926574         89.7803         34.3099 
       0.932687         89.1942         33.8076 
       0.938823         87.9013         33.3137 
       0.944975         87.6974         32.8286 
       0.951105         86.8349         32.3549 
       0.957225         85.7904         31.8916 
       0.963368         85.5586         31.4357 
       0.969511         85.0471         30.9889 
       0.975621         84.4852         30.5532 
       0.981748         83.6089         30.1249 
       0.987916         83.1302         29.7021 
        0.99406         82.6952         29.2891 
        1.00019         81.5757         28.8848 
        1.00632         81.3573         28.4886 
        1.01246         80.5338         28.0993 
        1.01859          79.658          27.718 
        1.02471         79.9853         27.3442 
        1.03085         79.0278         26.9762 
        1.03698         78.3234         26.6157 
        1.04314         77.5477         26.2603 
        1.04929         77.3116         25.9123 
        1.05541         76.6065          25.572 
        1.06154         76.3691         25.2371 
        1.06769         75.7092         24.9077 
        1.07382          75.349         24.5853 
        1.07993         75.0467         24.2694 
        1.08607         74.2945         23.9577 
        1.09222         73.9624         23.6513 
        1.09836         73.4066         23.3506 
        1.10449         72.9232         23.0555 
        1.11063         72.1981         22.7653 
        1.11677         71.8314         22.4801 
         1.1229         71.5538         22.2004 
        1.12903         70.5868         21.9252 
        1.13518         70.6735         21.6545 
        1.14131         70.3362         21.3886 
        1.14745         69.4182         21.1272 
        1.15359         69.2384         20.8703 
        1.15973         68.6194         20.6175 
        1.16584         68.1787         20.3701 
        1.17197         67.8854         20.1264 
        1.17811         67.4704          19.886 
        1.18424         66.8266         19.6502 
        1.19038         66.7242         19.4176 
        1.19652         66.3303         19.1889 
        1.20267         65.8284         18.9639 
        1.20881         65.3909         18.7426 
        1.21495         64.9377         18.5251 
        1.22108         64.5381         18.3112 
         1.2272         63.9909         18.1012 
        1.23334         63.7673          17.894 
        1.23949         63.5601         17.6896 
        1.24562         63.1993          17.489 
        1.25174         62.8194         17.2918 
        1.25789         62.4673          17.097 
        1.26402         61.9837         16.9056 
        1.27014         61.4981         16.7177 
        1.27628          61.319          16.532 
        1.28244         60.7813         16.3488 
        1.28858         60.5642         16.1687 
        1.29471         60.3586         15.9916 
        1.30084         59.9638         15.8175 
        1.30697         59.4505         15.6456 
        1.31312         59.0811         15.4761 
        1.31925         58.9657         15.3096 
        1.32537         58.6106         15.1458 
        1.33151         58.2108         14.9838 
        1.33765         58.0894         14.8243 
        1.34378         57.7528         14.6674 
        1.34992         57.0237         14.5127 
        1.35606         56.8329         14.3599 
         1.3622         56.4857         14.2095 
        1.36833          56.333         14.0617 
        1.37445          56.165         13.9161 
        1.38059         55.8368         13.7721 
        1.38675         55.4357         13.6298 
        1.39288         55.1649         13.4901 
        1.39901         54.7826         13.3525 
        1.40515         54.5421         13.2164 
         1.4113         54.4012         13.0823 
        1.41742         53.8419         12.9506 
        1.42355         53.7575         12.8205 
         1.4297         53.3438         12.6918 
        1.43585         53.2509         12.5649 
        1.44198         52.9013         12.4402 
        1.44809         52.5843         12.3175 
        1.45423         52.4305          12.196 
        1.46036         52.1114         12.0763 
        1.46649         51.8118         11.9582 
        1.47263         51.5783         11.8416 
        1.47877           51.38         11.7266 
        1.48491         51.0813          11.613 
        1.49104         50.8033         11.5011 
        1.49718         50.4041         11.3907 
        1.50333          50.269         11.2815 
        1.50947         49.9552         11.1739 
         1.5156         49.7015          11.068 
        1.52172         49.4514         10.9634 
        1.52787         49.4186           10.86 
          1.534         49.0106          10.758 
        1.54013         48.7171         10.6574 
        1.54627         48.6492          10.558 
        1.55241         48.3469         10.4598 
        1.55855         48.0344          10.363 
        1.56467         47.7039         10.2677 
         1.5708         47.6195         10.1733 
        1.57695         47.2869           10.08 
        1.58308         47.2659         9.98809 
        1.58922         47.0055         9.89724 
        1.59535         46.6787         9.80757 
         1.6015         46.4505         9.71888 
        1.60764         46.3289         9.63134 
        1.61376         46.0887         9.54512 
        1.61989         45.6517          9.4599 
        1.62604         45.5967         9.37552 
        1.63218         45.3047         9.29223 
        1.63831         45.1214         9.21015 
        1.64444         44.9856         9.12904 
        1.65059         44.5563         9.04871 
        1.65673         44.4416         8.96944 
        1.66285         44.2816         8.89135 
        1.66898          43.984         8.81416 
        1.67512         43.8143         8.73775 
        1.68127          43.519         8.66217 
         1.6874         43.4558         8.58766 
        1.69353         43.1814         8.51407 
        1.69967         43.0326         8.44118 
        1.70581         42.8465         8.36917 
        1.71193         42.5455         8.29828 
        1.71806         42.3718         8.22806 
        1.72421          42.114         8.15852 
        1.73035         41.9808         8.08987 
        1.73649         41.7908         8.02202 
        1.74262         41.5364         7.95501 
        1.74876         41.5253         7.88872 
        1.75489         41.1766         7.82333 
        1.76101         40.9917          7.7587 
        1.76715         40.8078         7.69471 
        1.77329         40.6355         7.63137 
        1.77943         40.5006         7.56872 
        1.78557         40.2757         7.50687 
        1.79171         40.0552         7.44569 
        1.79785          39.893         7.38519 
        1.80399         39.7253         7.32538 
        1.81012         39.5917         7.26631 
        1.81625         39.3397         7.20792 
        1.82239          39.218         7.15008 
        1.82853         38.8878         7.09291 
        1.83466         38.7609         7.03642 
        1.84078          38.504         6.98061 
        1.84692          38.454         6.92531 
        1.85306         38.2155         6.87055 
         1.8592          38.076         6.81647 
        1.86533         37.8198           6.763 
        1.87147         37.7254         6.71004 
        1.87761          37.663         6.65764 
        1.88375         37.3931         6.60585 
        1.88988         37.3253         6.55467 
        1.89601         37.0608         6.50401 
        1.90215         36.9669         6.45385 
        1.90829          36.821         6.40424 
        1.91442         36.5606         6.35515 
        1.92056         36.4817         6.30662 
         1.9267         36.2358         6.25855 
        1.93284         36.0473         6.21095 
        1.93897         35.9594         6.16394 
        1.94509         35.7849         6.11751 
        1.95123         35.5969         6.07145 
        1.95737         35.4419         6.02583 
        1.96349         35.2772          5.9808 
        1.96964         35.0622          5.9361 
        1.97578         35.0164         5.89184 
        1.98192         34.8007         5.84813 
        1.98805         34.6848         5.80485 
        1.99419         34.4594         5.76201 
        2.00033         34.2881         5.71958 
        2.00647         34.1794         5.67759 
         2.0126         33.9924          5.6361 
        2.01874         33.9116         5.59495 
        2.02488         33.8438         5.55419 
        2.03101         33.6198         5.51391 
        2.03714         33.4075         5.47406 
        2.04328         33.2749         5.43457 
        2.04941         33.1532         5.39549 
        2.05554         33.0183         5.35684 
        2.06167         32.8495          5.3185 
        2.06781         32.7142         5.28054 
        2.07396         32.5426          5.2429 
        2.08009         32.5005         5.20569 
        2.08622         32.3149         5.16888 
        2.09237         32.2164         5.13236 
        2.09851         32.0148         5.09618 
        2.10464         31.9262         5.06042 
        2.11077         31.6868         5.02504 
        2.11691         31.6912         4.98992 
        2.12305         31.4718         4.95513 
        2.12918         31.4072         4.92077 
        2.13531         31.2715         4.88672 
        2.14145         31.1405         4.85292 
         2.1476         30.9141         4.81941 
        2.15372         30.8254         4.78637 
        2.15985         30.6939         4.75362 
        2.16599         30.5924         4.72108 
        2.17213          30.474         4.68888 
        2.17827          30.231         4.65698 
         2.1844         30.1393         4.62542 
        2.19054         30.0569         4.59413 
        2.19666         29.9169         4.56318 
         2.2028         29.8227         4.53249 
        2.20893         29.6718         4.50207 
        2.21508         29.5584         4.47189 
        2.22122         29.3694         4.44198 
        2.22736         29.3038         4.41241 
        2.23349         29.1735         4.38311 
        2.23962         29.0438         4.35406 
        2.24577         28.8752         4.32525 
         2.2519         28.7696         4.29675 
        2.25802         28.6868         4.26854 
        2.26417          28.555         4.24051 
        2.27031         28.4591         4.21271 
        2.27644         28.3564         4.18524 
        2.28257         28.2451         4.15801 
        2.28872         28.0463         4.13098 
        2.29486         27.9547         4.10419 
        2.30099         27.8641          4.0777 
        2.30712         27.8019         4.05143 
        2.31326         27.6638         4.02534 
         2.3194         27.5024         3.99951 
        2.32553         27.4054         3.97394 
        2.33166         27.2637          3.9486 
         2.3378         27.1451         3.92346 
        2.34394         27.0521         3.89852 
        2.35007         26.9099         3.87384 
        2.35619         26.7954          3.8494 
        2.36233         26.7167         3.82512 
        2.36848         26.5541           3.801 
        2.37462         26.4762         3.77713 
        2.38075         26.3687         3.75349 
        2.38689         26.2899         3.73004 
        2.39303         26.1324         3.70679 
        2.39916         26.0612         3.68376 
        2.40529         25.9146         3.66093 
        2.41143         25.8488         3.63828 
        2.41757         25.7255         3.61581 
         2.4237         25.6025         3.59357 
        2.42983         25.5311         3.57152 
        2.43598         25.4234          3.5496 
        2.44211         25.2824          3.5279 
        2.44823         25.1747         3.50643 
        2.45437         25.0716         3.48508 
        2.46052         24.9766         3.46389 
        2.46665         24.9393         3.44291 
        2.47279         24.7923         3.42212 
        2.47892         24.6744         3.40148 
        2.48507          24.575         3.38099 
         2.4912         24.5014         3.36072 
