# k  (h/Mpc)    Pcb(k)  (Mpc/h)^3    Pcb_linear(k)  (Mpc/h)^3
     0.00783031         17372.1         17466.6 
       0.013688           20526         21093.6 
       0.019231         20569.6           20905 
      0.0249154         18921.1         18869.6 
      0.0312784         15701.7         15857.9 
      0.0375637         12874.9         13095.2 
      0.0433917         11065.3         11111.8 
      0.0492413         9619.08         9725.97 
      0.0555754         8742.83         8763.46 
      0.0619321         7845.89         8126.93 
       0.067871         7472.43         7625.96 
      0.0738098         6999.21          7079.8 
      0.0800417         6352.58         6404.26 
      0.0862327          5603.7         5661.68 
      0.0921407         4980.12         4962.94 
      0.0982031         4450.71         4334.09 
       0.104506         3898.36         3826.09 
       0.110769         3587.23         3476.84 
       0.116806         3422.86         3260.94 
       0.122832         3237.35         3119.29 
       0.129052         3080.85         2999.37 
       0.135211         3004.16         2864.59 
       0.141259         2780.69         2695.26 
       0.147318         2567.31         2490.46 
       0.153489         2386.43         2265.01 
       0.159709         2258.26         2047.34 
       0.165845         2045.74         1863.94 
       0.171974         1976.56          1722.8 
       0.178125         1899.78         1622.68 
       0.184229         1755.26         1554.93 
        0.19034         1734.19         1504.36 
       0.196428          1686.3         1456.68 
       0.202534         1583.47         1400.74 
       0.208729         1553.02         1330.99 
       0.214876         1476.34         1250.88 
       0.220989         1394.07         1167.02 
       0.227147         1349.05          1086.4 
        0.23329         1289.79         1016.32 
       0.239377         1278.66         960.227 
       0.245482         1213.44         916.972 
       0.251667         1170.15         883.391 
       0.257832         1150.42         855.557 
       0.263955         1096.97          828.91 
       0.270079         1064.67         799.989 
        0.27624         1020.78           767.2 
       0.282372          1005.7         731.524 
        0.28843         987.827          695.25 
       0.294538         939.834         660.005 
       0.300721         919.724         627.792 
        0.30691         896.859         600.083 
       0.313033         859.742         577.206 
       0.319153         849.925         557.888 
       0.325316         837.897         540.679 
        0.33145         818.008         524.292 
       0.337538         789.719         507.738 
       0.343633         771.076         490.332 
       0.349808          754.69         471.998 
       0.355968         740.291         453.514 
       0.362074         714.319         435.737 
       0.368217         711.971         419.068 
       0.374374         700.922         403.921 
       0.380519         674.257         390.482 
       0.386598         669.338         378.552 
       0.392688         651.938         367.577 
        0.39888         637.672         356.975 
       0.405048          623.97         346.558 
       0.411186         623.214         336.165 
       0.417313         617.119         325.735 
       0.423458         599.252         315.327 
       0.429607         582.377           305.2 
       0.435692         576.071         295.656 
       0.441815         564.783         286.635 
       0.447964         556.476         278.237 
       0.454126         549.692          270.43 
       0.460267         541.534         263.112 
       0.466387         530.892         256.151 
        0.47254         523.882         249.373 
       0.478662         514.609         242.747 
       0.484765         508.268         236.227 
       0.490885         503.558         229.812 
       0.497035         492.452          223.54 
       0.503198         492.172         217.476 
       0.509342         482.309         211.691 
       0.515458         472.628         206.224 
       0.521598         470.033          201.02 
       0.527764         459.969         196.033 
       0.533884         455.213         191.276 
           0.54          451.35          186.68 
       0.546137         443.349         182.199 
       0.552299         441.485         177.811 
       0.558452          434.48         173.528 
       0.564573         431.974         169.377 
       0.570708         425.946         165.344 
       0.576825         417.971         161.468 
       0.582926         416.724         157.749 
       0.589034         409.353         154.162 
       0.595184         406.232          150.68 
       0.601379         399.789         147.295 
       0.607522         392.438         144.047 
       0.613639         391.805         140.911 
       0.619772          389.86         137.854 
       0.625918         382.278         134.869 
       0.632068         380.343         131.958 
       0.638161         376.718         129.152 
         0.6443         371.291         126.408 
       0.650464         368.078         123.739 
       0.656582         364.672         121.176 
       0.662703         362.196         118.692 
       0.668861         355.893         116.267 
       0.675024         354.739          113.91 
       0.681124         347.852         111.641 
       0.687237         347.253         109.427 
       0.693381         342.075          107.26 
       0.699536          341.67         105.147 
       0.705665         336.826           103.1 
       0.711789         334.866          101.11 
       0.717957         331.214         99.1603 
        0.72409         327.147         97.2734 
       0.730186         328.237         95.4479 
       0.736317         322.494         93.6599 
       0.742472         320.044         91.9117 
       0.748622         318.188           90.21 
        0.75476          315.33         88.5552 
       0.760888         312.754         86.9447 
       0.767043          309.54         85.3682 
       0.773185         307.106         83.8343 
       0.779291         304.152         82.3471 
       0.785407         302.265         80.8942 
       0.791564         300.269         79.4675 
       0.797719         295.388         78.0763 
       0.803834         296.631         76.7275 
       0.809972         291.911         75.4061 
       0.816124         289.328          74.113 
       0.822261          287.13          72.854 
       0.828378         285.852         71.6281 
       0.834502         281.518         70.4294 
       0.840667         281.654         69.2506 
       0.846816         277.171         68.1021 
       0.852925         277.607          66.987 
       0.859047         274.564         65.8947 
       0.865192         273.385         64.8232 
       0.871341         270.152          63.775 
       0.877463         268.707         62.7549 
       0.883569          266.83         61.7598 
       0.889708         264.478         60.7814 
       0.895864          261.18         59.8218 
       0.902008          260.04          58.885 
       0.908149         257.621          57.969 
       0.914301         256.421         57.0711 
       0.920448         254.334         56.1932 
       0.926574         252.541         55.3369 
       0.932687         252.168         54.5004 
       0.938823         249.191         53.6783 
       0.944975         248.714         52.8713 
       0.951105         246.155         52.0839 
       0.957225         243.721         51.3139 
       0.963368         244.014          50.557 
       0.969511         239.939         49.8154 
       0.975621          237.83         49.0927 
       0.981748         237.687         48.3826 
       0.987916         236.128         47.6822 
        0.99406         234.025         46.9983 
        1.00019         232.246         46.3292 
        1.00632         231.503         45.6739 
        1.01246         229.585         45.0303 
        1.01859         227.266         44.4002 
        1.02471         225.829          43.783 
        1.03085         224.778         43.1755 
        1.03698         223.978         42.5809 
        1.04314         222.636          41.995 
        1.04929          221.16         41.4215 
        1.05541         219.936         40.8611 
        1.06154         217.944         40.3097 
        1.06769          216.38         39.7677 
        1.07382         214.664         39.2375 
        1.07993          213.65         38.7182 
        1.08607         212.659         38.2061 
        1.09222          210.56         37.7029 
        1.09836         209.834         37.2093 
        1.10449         208.511         36.7252 
        1.11063         206.984         36.2492 
        1.11677         205.305         35.7818 
         1.1229         204.955         35.3235 
        1.12903           202.6         34.8728 
        1.13518         201.683         34.4297 
        1.14131         200.819         33.9945 
        1.14745          198.95         33.5671 
        1.15359         197.592          33.147 
        1.15973         196.859          32.734 
        1.16584         195.407         32.3298 
        1.17197         194.714          31.932 
        1.17811         192.827         31.5396 
        1.18424         191.784          31.155 
        1.19038         191.101         30.7757 
        1.19652         188.914         30.4029 
        1.20267          188.23         30.0362 
        1.20881         186.947         29.6758 
        1.21495         186.552         29.3218 
        1.22108         184.984         28.9737 
         1.2272         183.703         28.6321 
        1.23334         182.623         28.2952 
        1.23949         181.719         27.9629 
        1.24562         180.505          27.637 
        1.25174         179.863         27.3167 
        1.25789          178.12         27.0005 
        1.26402         177.634           26.69 
        1.27014         176.739         26.3851 
        1.27628          175.67          26.084 
        1.28244         174.093         25.7871 
        1.28858         173.267         25.4953 
        1.29471         171.956         25.2086 
        1.30084         171.471         24.9266 
        1.30697         170.038         24.6485 
        1.31312         169.249         24.3742 
        1.31925         168.034          24.105 
        1.32537          167.54         23.8401 
        1.33151         166.161         23.5783 
        1.33765         165.331         23.3205 
        1.34378         164.765         23.0671 
        1.34992         163.279         22.8173 
        1.35606         162.707         22.5707 
         1.3622         161.344         22.3282 
        1.36833         160.753         22.0898 
        1.37445         160.198          21.855 
        1.38059         158.523          21.623 
        1.38675         157.685         21.3937 
        1.39288         156.903         21.1687 
        1.39901         155.588          20.947 
        1.40515         155.139         20.7281 
         1.4113         154.331         20.5123 
        1.41742         153.296         20.3004 
        1.42355         152.494         20.0912 
         1.4297         151.579         19.8842 
        1.43585         151.142         19.6803 
        1.44198         149.632           19.48 
        1.44809          149.23         19.2829 
        1.45423         148.363         19.0878 
        1.46036         147.328         18.8957 
        1.46649         146.277         18.7063 
        1.47263         145.834         18.5193 
        1.47877         144.904         18.3349 
        1.48491         143.897         18.1527 
        1.49104          142.69         17.9734 
        1.49718         142.408         17.7964 
        1.50333         140.985         17.6216 
        1.50947         140.734         17.4494 
         1.5156         139.711         17.2798 
        1.52172         138.938         17.1124 
        1.52787         138.455         16.9469 
          1.534         137.756         16.7838 
        1.54013         136.699         16.6231 
        1.54627          136.06         16.4641 
        1.55241         135.402         16.3072 
        1.55855         134.648         16.1526 
        1.56467         133.869         16.0004 
         1.5708         132.911         15.8497 
        1.57695         132.522         15.7008 
        1.58308         131.322         15.5541 
        1.58922         130.676         15.4092 
        1.59535         130.145         15.2661 
         1.6015         129.247         15.1248 
        1.60764         128.428         14.9852 
        1.61376         127.833         14.8478 
        1.61989         127.263         14.7121 
        1.62604         126.377         14.5777 
        1.63218         125.796         14.4451 
        1.63831         125.034         14.3144 
        1.64444         124.056         14.1853 
        1.65059         123.666         14.0575 
        1.65673         123.008         13.9314 
        1.66285         122.491         13.8072 
        1.66898           121.7         13.6845 
        1.67512         120.613         13.5631 
        1.68127         120.416          13.443 
         1.6874         119.698         13.3246 
        1.69353         118.995         13.2077 
        1.69967         118.273          13.092 
        1.70581         117.764         12.9776 
        1.71193         117.173         12.8651 
        1.71806          116.11         12.7537 
        1.72421         115.597         12.6434 
        1.73035         115.112         12.5345 
        1.73649         114.416         12.4269 
        1.74262         113.721         12.3207 
        1.74876         113.088         12.2156 
        1.75489         112.989          12.112 
        1.76101         111.908         12.0096 
        1.76715         111.251         11.9083 
        1.77329         110.642          11.808 
        1.77943         110.012         11.7088 
        1.78557         109.493         11.6109 
        1.79171         108.764         11.5141 
        1.79785         108.141         11.4184 
        1.80399         107.615         11.3238 
        1.81012         106.969         11.2304 
        1.81625         106.386         11.1381 
        1.82239         106.095         11.0467 
        1.82853         105.113         10.9564 
        1.83466         104.366         10.8672 
        1.84078         104.261          10.779 
        1.84692          103.81         10.6917 
        1.85306         103.095         10.6052 
         1.8592         102.626         10.5199 
        1.86533          101.95         10.4355 
        1.87147         101.396          10.352 
        1.87761         100.824         10.2693 
        1.88375         100.271         10.1876 
        1.88988         99.7336          10.107 
        1.89601         99.2566         10.0271 
        1.90215         98.8682         9.94804 
        1.90829         98.0426         9.86987 
        1.91442         97.3535         9.79253 
        1.92056         97.0754          9.7161 
         1.9267         96.4601          9.6404 
        1.93284         95.8527         9.56546 
        1.93897         95.5398         9.49145 
        1.94509          95.067          9.4184 
        1.95123         94.4492         9.34592 
        1.95737         93.9532         9.27416 
        1.96349         93.5458         9.20333 
        1.96964         92.9723         9.13304 
        1.97578          92.522         9.06345 
        1.98192         92.0613         8.99473 
        1.98805         91.6417         8.92672 
        1.99419         91.1232          8.8594 
        2.00033          90.533         8.79275 
        2.00647         90.1034          8.7268 
         2.0126         89.6207         8.66163 
        2.01874         89.0416         8.59704 
        2.02488         88.6373         8.53304 
        2.03101         88.2488         8.46981 
        2.03714         87.7225         8.40729 
        2.04328         87.4404         8.34532 
        2.04941         86.8275         8.28403 
        2.05554         86.5757          8.2234 
        2.06167         85.7961         8.16329 
        2.06781         85.6058         8.10377 
        2.07396         84.8987         8.04477 
        2.08009         84.4735         7.98645 
        2.08622         84.0947         7.92877 
        2.09237          83.619         7.87156 
        2.09851         83.1444         7.81489 
        2.10464         82.9631         7.75888 
        2.11077         82.2875         7.70349 
        2.11691         81.8772         7.64851 
        2.12305         81.4362         7.59407 
        2.12918         81.0183         7.54029 
        2.13531         80.6968         7.48702 
        2.14145         80.3139         7.43415 
         2.1476         79.8549         7.38173 
        2.15372         79.3857         7.33007 
        2.15985         78.9609         7.27886 
        2.16599         78.5275         7.22799 
        2.17213         78.1059         7.17766 
        2.17827         77.6651         7.12782 
         2.1844           77.35          7.0785 
        2.19054         76.7917         7.02963 
        2.19666         76.2968         6.98129 
         2.2028         76.2661         6.93336 
        2.20893         75.8147         6.88585 
        2.21508         75.3491         6.83874 
        2.22122         74.9677         6.79205 
        2.22736         74.6011          6.7459 
        2.23349         74.1067         6.70018 
        2.23962         73.8247         6.65487 
        2.24577         73.4641         6.60993 
         2.2519         73.0287         6.56547 
        2.25802         72.6624         6.52149 
        2.26417         72.2346          6.4778 
        2.27031         71.7692         6.43446 
        2.27644         71.5282         6.39164 
        2.28257         71.2255         6.34922 
        2.28872         70.7746          6.3071 
        2.29486         70.5327         6.26537 
        2.30099         70.0433          6.2241 
        2.30712         69.8726         6.18319 
        2.31326         69.3262         6.14258 
         2.3194         69.0668         6.10235 
        2.32553         68.6887         6.06255 
        2.33166         68.3774         6.02313 
         2.3378          67.945           5.984 
        2.34394         67.7828          5.9452 
        2.35007         67.2914          5.9068 
        2.35619         66.9009         5.86879 
        2.36233         66.5037         5.83102 
        2.36848         66.3249         5.79351 
        2.37462         65.9526         5.75641 
        2.38075         65.6065         5.71966 
        2.38689         65.2789         5.68321 
        2.39303         65.0167         5.64708 
        2.39916         64.6156          5.6113 
        2.40529         64.3528         5.57583 
        2.41143         63.9459         5.54064 
        2.41757         63.5589         5.50574 
         2.4237         63.3373         5.47121 
        2.42983         62.9739         5.43698 
        2.43598         62.7642         5.40294 
        2.44211         62.4085         5.36926 
        2.44823         62.0313         5.33594 
        2.45437         61.7898          5.3028 
        2.46052         61.4379         5.26993 
        2.46665         61.0049         5.23739 
        2.47279         60.7792         5.20513 
        2.47892         60.5698         5.17312 
        2.48507         60.2446         5.14136 
         2.4912         59.9593         5.10992 
