# k  (h/Mpc)    Pcb(k)  (Mpc/h)^3    Pcb_linear(k)  (Mpc/h)^3
     0.00783031         12926.6         12988.1 
       0.013688         16164.7         16578.6 
       0.019231         17008.8         17271.8 
      0.0249154         16433.6         16441.6 
      0.0312784         14490.9         14682.7 
      0.0375637           12544         12815.8 
      0.0433917         11205.9         11324.3 
      0.0492413         9972.87         10168.9 
      0.0555754         9148.59         9266.67 
      0.0619321         8228.95         8601.96 
       0.067871         7829.02         8070.89 
      0.0738098         7361.15            7533 
      0.0800417         6767.61         6915.45 
      0.0862327         6099.19          6258.3 
      0.0921407         5528.51         5635.17 
      0.0982031         5038.92         5052.84 
       0.104506         4492.03         4550.04 
       0.110769         4149.59         4168.22 
       0.116806         3958.69          3899.2 
       0.122832         3718.49         3699.03 
       0.129052         3534.41          3527.7 
       0.135211         3433.87         3360.63 
       0.141259         3199.38          3179.4 
       0.147318         2971.48         2976.67 
       0.153489         2801.31         2757.69 
       0.159709          2677.4         2541.27 
       0.165845         2439.67         2348.48 
       0.171974         2368.15         2187.04 
       0.178125          2281.3         2058.79 
       0.184229         2106.22         1960.29 
        0.19034          2075.4         1881.15 
       0.196428         2017.74         1811.02 
       0.202534         1900.15         1740.34 
       0.208729         1865.27         1662.82 
       0.214876         1786.21         1579.28 
       0.220989         1693.01         1492.68 
       0.227147         1647.36         1406.98 
        0.23329         1582.02         1327.99 
       0.239377         1567.98         1259.41 
       0.245482         1492.63         1201.29 
       0.251667         1438.02         1152.12 
       0.257832         1417.29         1110.05 
       0.263955         1353.29         1071.91 
       0.270079         1318.06         1034.56 
        0.27624         1264.19         996.004 
       0.282372         1248.26         956.241 
        0.28843         1229.62         916.246 
       0.294538         1172.19         876.573 
       0.300721         1148.21         838.554 
        0.30691         1122.75         803.755 
       0.313033         1078.99         772.988 
       0.319153         1066.63          745.64 
       0.325316         1053.25         720.831 
        0.33145         1031.31         697.907 
       0.337538         997.224         676.023 
       0.343633         973.742         654.376 
       0.349808         954.966         632.449 
       0.355968          936.96         610.688 
       0.362074         908.108          589.53 
       0.368217         905.519         569.093 
       0.374374         891.808         549.773 
       0.380519         860.012         531.845 
       0.386598         854.797          515.43 
       0.392688         834.732          500.12 
        0.39888         815.795         485.473 
       0.405048          801.29         471.509 
       0.411186         798.961         458.013 
       0.417313         795.063         444.834 
       0.423458         770.294         431.864 
       0.429607          749.46         419.206 
       0.435692         742.852         407.099 
       0.441815         729.103         395.412 
       0.447964         719.602         384.242 
       0.454126         710.539         373.642 
       0.460267         700.758         363.614 
       0.466387         689.804         354.086 
        0.47254         678.232         344.898 
       0.478662         668.569          336.07 
       0.484765         661.936         327.515 
       0.490885         654.569          319.17 
       0.497035         642.486          311.02 
       0.503198           641.9         303.102 
       0.509342         629.476         295.472 
       0.515458         617.412         288.161 
       0.521598         613.913         281.113 
       0.527764         600.853         274.314 
       0.533884          596.27          267.82 
           0.54         590.681         261.563 
       0.546137          581.52         255.495 
       0.552299         579.179         249.589 
       0.558452         571.552         243.862 
       0.564573         566.416         238.324 
       0.570708         561.095         232.936 
       0.576825         549.912         227.729 
       0.582926         548.127         222.698 
       0.589034         540.256         217.821 
       0.595184         535.395         213.068 
       0.601379         527.304         208.436 
       0.607522         518.904         203.989 
       0.613639         517.993         199.697 
       0.619772         515.202          195.52 
       0.625918         506.005         191.451 
       0.632068         503.044         187.491 
       0.638161         497.697         183.676 
         0.6443         492.257         179.939 
       0.650464         487.724         176.293 
       0.656582         483.919         172.778 
       0.662703         479.099          169.36 
       0.668861          472.95         166.018 
       0.675024         470.196         162.766 
       0.681124         462.846         159.636 
       0.687237         461.711         156.583 
       0.693381         454.902         153.598 
       0.699536         453.672         150.686 
       0.705665         448.216         147.863 
       0.711789         446.984         145.116 
       0.717957         440.443         142.419 
        0.72409         436.338         139.806 
       0.730186         437.431         137.275 
       0.736317          430.08         134.794 
       0.742472         425.927         132.366 
       0.748622         423.289         130.001 
        0.75476          419.84         127.701 
       0.760888         416.819         125.461 
       0.767043         413.916         123.266 
       0.773185         411.119          121.13 
       0.779291         405.925         119.057 
       0.785407          403.63          117.03 
       0.791564         400.675         115.038 
       0.797719           394.7         113.094 
       0.803834         396.874         111.207 
       0.809972         390.554         109.357 
       0.816124         387.026         107.546 
       0.822261         384.272         105.782 
       0.828378         382.689         104.062 
       0.834502         376.712         102.381 
       0.840667         376.894         100.725 
       0.846816         371.071         99.1121 
       0.852925         371.585         97.5447 
       0.859047         368.078         96.0083 
       0.865192         366.261         94.5004 
       0.871341         361.355         93.0242 
       0.877463         359.412         91.5866 
       0.883569         356.635         90.1834 
       0.889708         353.338         88.8026 
       0.895864         350.228         87.4475 
       0.902008         348.803         86.1239 
       0.908149          345.78         84.8287 
       0.914301         344.139         83.5583 
       0.920448         341.297         82.3154 
       0.926574         339.209         81.1024 
       0.932687         337.662         79.9166 
       0.938823         333.797         78.7505 
       0.944975         332.864         77.6053 
       0.951105         329.854         76.4872 
       0.957225          325.81         75.3932 
       0.963368         326.508         74.3172 
       0.969511         320.547         73.2624 
       0.975621         320.048          72.234 
       0.981748         318.417         71.2229 
       0.987916         316.479          70.225 
        0.99406         313.512         69.2501 
        1.00019         310.629          68.296 
        1.00632         310.417         67.3609 
        1.01246         307.716         66.4421 
        1.01859         304.222         65.5421 
        1.02471         302.463         64.6601 
        1.03085         301.602         63.7915 
        1.03698         299.715         62.9409 
        1.04314         298.558         62.1023 
        1.04929         296.515         61.2811 
        1.05541         293.122         60.4783 
        1.06154         291.687          59.688 
        1.06769         289.004         58.9108 
        1.07382         287.923         58.1501 
        1.07993         285.661         57.4047 
        1.08607         284.003         56.6695 
        1.09222         281.875         55.9465 
        1.09836         280.991         55.2371 
        1.10449         278.843         54.5409 
        1.11063         276.643         53.8561 
        1.11677         274.134         53.1833 
         1.1229         273.569         52.5234 
        1.12903         271.352         51.8741 
        1.13518         269.371         51.2354 
        1.14131          268.63         50.6078 
        1.14745           265.4         49.9912 
        1.15359         263.545         49.3849 
        1.15973         262.644         48.7884 
        1.16584         261.119         48.2046 
        1.17197         259.397         47.6295 
        1.17811         257.082         47.0621 
        1.18424         255.771         46.5058 
        1.19038         254.533         45.9568 
        1.19652         251.635         45.4171 
        1.20267         251.217          44.886 
        1.20881         249.252         44.3637 
        1.21495         248.562         43.8505 
        1.22108          246.62         43.3457 
         1.2272         243.758           42.85 
        1.23334         243.132          42.361 
        1.23949         241.929         41.8786 
        1.24562         240.308          41.405 
        1.25174         238.726         40.9396 
        1.25789         236.631           40.48 
        1.26402          236.42         40.0283 
        1.27014         235.276         39.5847 
        1.27628         232.806         39.1466 
        1.28244         231.581         38.7143 
        1.28858         230.181         38.2891 
        1.29471         228.997         37.8714 
        1.30084         227.862         37.4603 
        1.30697           225.5         37.0548 
        1.31312         224.257         36.6547 
        1.31925         223.035         36.2618 
        1.32537         222.258         35.8752 
        1.33151         220.608         35.4928 
        1.33765         218.966         35.1163 
        1.34378          217.85          34.746 
        1.34992         216.155         34.3809 
        1.35606         215.249         34.0203 
         1.3622         213.764         33.6655 
        1.36833         212.353         33.3167 
        1.37445         212.024          32.973 
        1.38059         209.695         32.6331 
        1.38675         208.342         32.2973 
        1.39288         207.375         31.9675 
        1.39901         205.776         31.6426 
        1.40515         205.101         31.3214 
         1.4113         203.423         31.0049 
        1.41742         201.773         30.6939 
        1.42355          202.01         30.3867 
         1.4297         200.144         30.0828 
        1.43585         199.047         29.7832 
        1.44198         197.256         29.4888 
        1.44809         196.616          29.199 
        1.45423         195.463         28.9121 
        1.46036         194.172         28.6295 
        1.46649         193.065         28.3507 
        1.47263         192.287         28.0754 
        1.47877         190.773         27.8038 
        1.48491         189.254         27.5355 
        1.49104         187.697         27.2713 
        1.49718         187.188         27.0104 
        1.50333         185.619         26.7526 
        1.50947         184.925         26.4986 
         1.5156         183.818         26.2484 
        1.52172         182.846         26.0014 
        1.52787         181.665         25.7571 
          1.534         180.875         25.5163 
        1.54013         179.593         25.2788 
        1.54627         178.635          25.044 
        1.55241          177.73         24.8121 
        1.55855         176.878         24.5835 
        1.56467          175.59         24.3584 
         1.5708         174.133         24.1355 
        1.57695         173.529         23.9151 
        1.58308         172.233          23.698 
        1.58922         171.396         23.4835 
        1.59535         169.985         23.2717 
         1.6015         169.386         23.0622 
        1.60764         168.237         22.8554 
        1.61376         166.978         22.6518 
        1.61989         166.204         22.4504 
        1.62604         165.069         22.2511 
        1.63218         164.325         22.0544 
        1.63831         163.527         21.8604 
        1.64444         162.179         21.6688 
        1.65059          161.48          21.479 
        1.65673         160.361         21.2917 
        1.66285         159.706         21.1072 
        1.66898         158.623         20.9248 
        1.67512         157.673         20.7442 
        1.68127         156.887         20.5657 
         1.6874         155.851         20.3896 
        1.69353         155.305         20.2157 
        1.69967         153.958         20.0434 
        1.70581         153.554         19.8733 
        1.71193         152.303         19.7057 
        1.71806         151.112         19.5398 
        1.72421         150.568         19.3754 
        1.73035         149.591         19.2132 
        1.73649         148.551         19.0528 
        1.74262          148.11         18.8944 
        1.74876         147.231         18.7377 
        1.75489         146.516         18.5831 
        1.76101         145.211         18.4304 
        1.76715          144.36         18.2791 
        1.77329         143.522         18.1294 
        1.77943         142.598         17.9813 
        1.78557         142.081         17.8351 
        1.79171         141.284         17.6904 
        1.79785         140.192         17.5474 
        1.80399         139.524          17.406 
        1.81012         138.631         17.2664 
        1.81625         137.958         17.1283 
        1.82239         137.082         16.9916 
        1.82853          136.35         16.8564 
        1.83466          135.28         16.7229 
        1.84078         134.908         16.5909 
        1.84692         134.265         16.4602 
        1.85306         133.204         16.3307 
         1.8592         132.716         16.2028 
        1.86533          131.51         16.0764 
        1.87147          131.04         15.9511 
        1.87761         130.116         15.8272 
        1.88375         129.151         15.7047 
        1.88988         128.715         15.5837 
        1.89601          128.32         15.4639 
        1.90215         127.697         15.3452 
        1.90829         126.316         15.2279 
        1.91442         125.593         15.1118 
        1.92056         124.995          14.997 
         1.9267         124.305         14.8833 
        1.93284         123.504         14.7707 
        1.93897         122.884         14.6595 
        1.94509         122.166         14.5497 
        1.95123         121.569         14.4407 
        1.95737         120.942         14.3328 
        1.96349         120.154         14.2262 
        1.96964         119.465         14.1205 
        1.97578         118.787         14.0158 
        1.98192         118.326         13.9123 
        1.98805         117.619         13.8099 
        1.99419         116.536         13.7086 
        2.00033         116.235         13.6082 
        2.00647         115.711         13.5088 
         2.0126         114.891         13.4106 
        2.01874          114.42         13.3133 
        2.02488         113.477         13.2168 
        2.03101         113.112         13.1215 
        2.03714         112.277         13.0272 
        2.04328         111.919         12.9337 
        2.04941         111.387         12.8412 
        2.05554         110.715         12.7497 
        2.06167         109.826          12.659 
        2.06781         109.245         12.5691 
        2.07396         108.736           12.48 
        2.08009         107.933          12.392 
        2.08622         107.504         12.3048 
        2.09237         106.683         12.2184 
        2.09851         106.342         12.1328 
        2.10464         105.774         12.0481 
        2.11077         105.111         11.9643 
        2.11691         104.682         11.8812 
        2.12305         104.069         11.7989 
        2.12918         103.405         11.7175 
        2.13531         102.802         11.6369 
        2.14145         102.294         11.5569 
         2.1476         101.694         11.4775 
        2.15372         101.092         11.3993 
        2.15985         100.535         11.3217 
        2.16599         99.8726         11.2447 
        2.17213         99.4025         11.1684 
        2.17827         98.7441         11.0929 
         2.1844         98.5284         11.0181 
        2.19054         97.7582          10.944 
        2.19666         97.1236         10.8707 
         2.2028         96.7905          10.798 
        2.20893         96.3621          10.726 
        2.21508         95.6645         10.6545 
        2.22122          95.209         10.5837 
        2.22736         94.8331         10.5136 
        2.23349         94.1449         10.4442 
        2.23962         93.5924         10.3754 
        2.24577         93.1933         10.3071 
         2.2519         92.5589         10.2396 
        2.25802         92.1702         10.1728 
        2.26417          91.538         10.1064 
        2.27031         90.9503         10.0405 
        2.27644         90.6564         9.97545 
        2.28257         90.1127         9.91094 
        2.28872          89.711         9.84689 
        2.29486         89.4937         9.78342 
        2.30099         88.5946         9.72064 
        2.30712         88.3523         9.65839 
        2.31326         87.8543         9.59658 
         2.3194         87.2812         9.53535 
        2.32553         86.7911         9.47476 
        2.33166         86.3106         9.41473 
         2.3378         86.0097         9.35513 
        2.34394          85.439         9.29603 
        2.35007         84.7876         9.23753 
        2.35619         84.5367         9.17961 
        2.36233         84.0875         9.12205 
        2.36848         83.5245         9.06487 
        2.37462          83.262          9.0083 
        2.38075         82.6923         8.95227 
        2.38689          82.345         8.89667 
        2.39303         81.9084         8.84156 
        2.39916          81.482         8.78697 
        2.40529         81.1074         8.73285 
        2.41143         80.6934         8.67915 
        2.41757         80.1223         8.62588 
         2.4237         79.6628         8.57315 
        2.42983         79.2349         8.52088 
        2.43598         79.0005          8.4689 
        2.44211         78.6118         8.41745 
        2.44823         78.1127         8.36654 
        2.45437          77.733         8.31591 
        2.46052         77.2611         8.26567 
        2.46665         76.7293         8.21592 
        2.47279         76.5114         8.16661 
        2.47892         76.1124         8.11767 
        2.48507         75.7463         8.06909 
         2.4912         75.1668         8.02099 
