# k  (h/Mpc)    P(k)  (Mpc/h)^3    P_linear(k)  (Mpc/h)^3
     0.00783031         5106.86         5151.64 
       0.013688         6439.21         6562.53 
       0.019231         6762.65         6832.21 
      0.0249154         6501.68         6501.49 
      0.0312784         5768.84          5804.6 
      0.0375637         5011.76         5065.84 
      0.0433917          4464.7         4475.89 
      0.0492413         3984.88         4018.96 
      0.0555754         3655.32          3662.2 
      0.0619321         3321.26         3399.38 
       0.067871         3151.29         3189.42 
      0.0738098         2951.32         2976.79 
      0.0800417         2717.36         2732.71 
      0.0862327            2449         2472.99 
      0.0921407         2210.11         2226.73 
      0.0982031         2001.45         1996.61 
       0.104506          1784.8         1797.91 
       0.110769         1642.34         1647.02 
       0.116806         1559.88         1540.72 
       0.122832         1463.84         1461.61 
       0.129052         1400.27         1393.91 
       0.135211         1348.46         1327.89 
       0.141259         1263.31         1256.27 
       0.147318         1171.06         1176.16 
       0.153489         1097.17         1089.63 
       0.159709         1031.34         1004.12 
       0.165845         938.196         927.942 
       0.171974         903.218         864.152 
       0.178125         857.945         813.473 
       0.184229         801.683         774.554 
        0.19034         782.314         743.281 
       0.196428         756.267         715.571 
       0.202534         711.282         687.646 
       0.208729         695.501         657.014 
       0.214876         667.385         624.005 
       0.220989         622.024         589.786 
       0.227147         604.613         555.924 
        0.23329         578.454         524.714 
       0.239377         561.562         497.614 
       0.245482         532.239         474.649 
       0.251667         510.371         455.221 
       0.257832         504.148         438.599 
       0.263955         477.684          423.53 
       0.270079         461.841         408.774 
        0.27624         442.684         393.537 
       0.282372         431.265         377.826 
        0.28843         427.126         362.023 
       0.294538          405.84         346.348 
       0.300721         390.278         331.326 
        0.30691         383.468         317.576 
       0.313033         366.969         305.419 
       0.319153         360.363         294.613 
       0.325316         350.434         284.811 
        0.33145         341.508         275.754 
       0.337538         330.256         267.106 
       0.343633         320.286         258.554 
       0.349808         311.435          249.89 
       0.355968         304.431         241.291 
       0.362074         296.949         232.932 
       0.368217         292.125         224.857 
       0.374374         285.361         217.223 
       0.380519         273.639          210.14 
       0.386598             269         203.654 
       0.392688         262.401         197.604 
        0.39888         256.625         191.817 
       0.405048          251.75           186.3 
       0.411186         248.703         180.967 
       0.417313         243.378          175.76 
       0.423458         237.064         170.635 
       0.429607         232.077         165.634 
       0.435692         227.894          160.85 
       0.441815         222.855         156.232 
       0.447964         216.736         151.819 
       0.454126         213.144         147.631 
       0.460267         210.988         143.669 
       0.466387         206.672         139.904 
        0.47254         204.272         136.274 
       0.478662         197.861         132.785 
       0.484765         195.397         129.405 
       0.490885         192.068         126.108 
       0.497035         190.282         122.888 
       0.503198         186.958         119.759 
       0.509342         182.087         116.745 
       0.515458         180.166         113.856 
       0.521598         175.945         111.071 
       0.527764         174.071         108.385 
       0.533884         173.393         105.819 
           0.54         168.972         103.347 
       0.546137         165.229         100.949 
       0.552299         163.544         98.6157 
       0.558452         160.646         96.3529 
       0.564573         159.914         94.1649 
       0.570708         155.801          92.036 
       0.576825          153.98         89.9783 
       0.582926         152.353         87.9908 
       0.589034         150.121         86.0639 
       0.595184         148.693         84.1858 
       0.601379         145.216         82.3556 
       0.607522         143.023         80.5988 
       0.613639         141.875         78.9029 
       0.619772         139.926         77.2523 
       0.625918         138.801         75.6447 
       0.632068         136.003         74.0801 
       0.638161         134.172         72.5726 
         0.6443         133.564         71.0959 
       0.650464         131.046         69.6555 
       0.656582          130.49         68.2665 
       0.662703         128.956         66.9161 
       0.668861         126.286         65.5956 
       0.675024         126.326         64.3107 
       0.681124         124.263          63.074 
       0.687237         122.097          61.868 
       0.693381         121.529         60.6885 
       0.699536         119.996          59.538 
       0.705665         118.322         58.4226 
       0.711789         116.899         57.3369 
       0.717957         115.622         56.2714 
        0.72409          114.85          55.239 
       0.730186         114.157          54.239 
       0.736317         112.121         53.2586 
       0.742472         110.867         52.2993 
       0.748622         109.242         51.3651 
        0.75476         108.923         50.4562 
       0.760888         108.229          49.571 
       0.767043         106.291          48.704 
       0.773185          105.11         47.8599 
       0.779291         103.969         47.0408 
       0.785407         102.772           46.24 
       0.791564         102.616         45.4529 
       0.797719         101.384         44.6847 
       0.803834         100.563         43.9393 
       0.809972         99.9141         43.2084 
       0.816124         98.7259         42.4928 
       0.822261         97.5061         41.7956 
       0.828378         97.2934         41.1163 
       0.834502         95.7887         40.4517 
       0.840667         95.3256         39.7978 
       0.846816         94.4345         39.1603 
       0.852925         93.4498          38.541 
       0.859047         93.0929          37.934 
       0.865192         91.7971         37.3382 
       0.871341         90.8232          36.755 
       0.877463         90.2939          36.187 
       0.883569         90.0554         35.6325 
       0.889708         89.2521          35.087 
       0.895864         88.4334         34.5515 
       0.902008         87.6611         34.0286 
       0.908149         86.6428         33.5168 
       0.914301         86.3961         33.0149 
       0.920448          85.983         32.5238 
       0.926574          84.371         32.0445 
       0.932687         84.1279          31.576 
       0.938823         83.4489         31.1152 
       0.944975         82.5032         30.6627 
       0.951105         81.8891          30.221 
       0.957225         81.7908         29.7887 
       0.963368         80.9166         29.3636 
       0.969511          80.223         28.9468 
       0.975621         79.6818         28.5405 
       0.981748         78.9047          28.141 
       0.987916         78.3782         27.7467 
        0.99406         77.9912         27.3615 
        1.00019         77.1283         26.9845 
        1.00632         76.6548         26.6151 
        1.01246         76.1369          26.252 
        1.01859         75.8298         25.8964 
        1.02471         74.9689          25.548 
        1.03085          74.501         25.2048 
        1.03698         74.0647         24.8687 
        1.04314         73.5499         24.5373 
        1.04929         73.0209         24.2129 
        1.05541         72.5796         23.8957 
        1.06154         72.1915         23.5834 
        1.06769          71.337         23.2763 
        1.07382         70.9281         22.9758 
        1.07993         70.6409         22.6813 
        1.08607         70.0639         22.3908 
        1.09222         69.8314         22.1051 
        1.09836         69.1865         21.8248 
        1.10449         68.8121         21.5497 
        1.11063         68.2452         21.2792 
        1.11677         68.0692         21.0134 
         1.1229         67.3682         20.7526 
        1.12903         67.2093         20.4961 
        1.13518              67         20.2437 
        1.14131         66.2785         19.9957 
        1.14745         65.7111         19.7521 
        1.15359         65.1158         19.5125 
        1.15973         65.0535         19.2769 
        1.16584         64.5956         19.0462 
        1.17197         63.9154          18.819 
        1.17811         63.6967         18.5948 
        1.18424         62.9491          18.375 
        1.19038         62.8952         18.1581 
        1.19652         62.6121         17.9448 
        1.20267         62.1559          17.735 
        1.20881         61.7374         17.5286 
        1.21495         61.4967         17.3259 
        1.22108         61.2364         17.1264 
         1.2272         60.6896         16.9305 
        1.23334         60.3797         16.7373 
        1.23949         60.0311         16.5467 
        1.24562         59.5782         16.3596 
        1.25174         59.2273         16.1757 
        1.25789         59.2532         15.9941 
        1.26402         58.7145         15.8157 
        1.27014         58.4232         15.6404 
        1.27628         57.8829         15.4673 
        1.28244         57.7641         15.2964 
        1.28858         57.3791         15.1285 
        1.29471         57.1119         14.9634 
        1.30084         56.6124          14.801 
        1.30697         56.5787         14.6408 
        1.31312         56.0477         14.4827 
        1.31925         55.6542         14.3275 
        1.32537         55.4388         14.1747 
        1.33151          55.119         14.0236 
        1.33765         54.8669         13.8749 
        1.34378         54.6585         13.7286 
        1.34992         54.2592         13.5843 
        1.35606         53.9283         13.4418 
         1.3622          53.627         13.3016 
        1.36833         53.3484         13.1638 
        1.37445         52.9168          13.028 
        1.38059         52.8424         12.8937 
        1.38675         52.2786          12.761 
        1.39288         52.2881         12.6307 
        1.39901         51.8755         12.5023 
        1.40515         51.6583         12.3755 
         1.4113         51.6177         12.2504 
        1.41742         51.2565         12.1275 
        1.42355         50.8145         12.0061 
         1.4297         50.5747         11.8861 
        1.43585         50.2458         11.7677 
        1.44198         49.9853         11.6514 
        1.44809         49.7305         11.5369 
        1.45423         49.5706         11.4235 
        1.46036         49.3192         11.3118 
        1.46649         49.1259         11.2017 
        1.47263         48.7728         11.0929 
        1.47877          48.612         10.9856 
        1.48491         48.4208         10.8796 
        1.49104         48.0145         10.7752 
        1.49718         47.8455         10.6721 
        1.50333         47.6913         10.5703 
        1.50947         47.3352         10.4699 
         1.5156         47.1524          10.371 
        1.52172         46.8017         10.2734 
        1.52787         46.6256         10.1769 
          1.534         46.4028         10.0818 
        1.54013         46.2914         9.98795 
        1.54627         45.8571         9.89515 
        1.55241         45.6691         9.80353 
        1.55855         45.5872         9.71321 
        1.56467         45.3072         9.62428 
         1.5708         45.1489         9.53622 
        1.57695         44.8837         9.44914 
        1.58308         44.5293         9.36336 
        1.58922         44.3585         9.27859 
        1.59535         44.2177          9.1949 
         1.6015         44.1217         9.11214 
        1.60764         43.8466         9.03044 
        1.61376         43.5607         8.94997 
        1.61989         43.3214         8.87042 
        1.62604         43.1498         8.79167 
        1.63218         42.9214         8.71393 
        1.63831         42.8237         8.63731 
        1.64444         42.5514         8.56159 
        1.65059         42.3677          8.4866 
        1.65673         42.1202          8.4126 
        1.66285         42.0616          8.3397 
        1.66898         41.6595         8.26763 
        1.67512         41.6145         8.19629 
        1.68127         41.3848         8.12573 
         1.6874         41.1665         8.05616 
        1.69353         41.0778         7.98745 
        1.69967         40.8952         7.91939 
        1.70581         40.5263         7.85215 
        1.71193         40.3602         7.78596 
        1.71806         40.2613         7.72039 
        1.72421         40.0881         7.65545 
        1.73035         39.8607         7.59134 
        1.73649           39.59         7.52798 
        1.74262         39.3587          7.4654 
        1.74876         39.2564         7.40349 
        1.75489         39.0772         7.34241 
        1.76101         38.9467         7.28205 
        1.76715         38.8134         7.22229 
        1.77329         38.5003         7.16313 
        1.77943         38.4807         7.10461 
        1.78557         38.2612         7.04684 
        1.79171         38.1132          6.9897 
        1.79785         37.9026         6.93319 
        1.80399         37.7532         6.87732 
        1.81012         37.6199         6.82214 
        1.81625         37.2979          6.7676 
        1.82239         37.1914         6.71357 
        1.82853         37.0599         6.66017 
        1.83466         36.8577          6.6074 
        1.84078          36.684         6.55526 
        1.84692         36.5466          6.5036 
        1.85306         36.3099         6.45244 
         1.8592         36.2481         6.40191 
        1.86533         36.0539         6.35196 
        1.87147         35.8871         6.30248 
        1.87761         35.6847         6.25351 
        1.88375         35.6469         6.20512 
        1.88988         35.4104          6.1573 
        1.89601         35.2023         6.10996 
        1.90215         35.1193         6.06308 
        1.90829         34.9677         6.01672 
        1.91442         34.7574         5.97084 
        1.92056         34.6354         5.92549 
         1.9267         34.5394         5.88056 
        1.93284         34.3371         5.83607 
        1.93897         34.2254         5.79213 
        1.94509         34.0705         5.74874 
        1.95123         33.9371         5.70569 
        1.95737          33.744         5.66305 
        1.96349         33.6104         5.62096 
        1.96964         33.5698         5.57917 
        1.97578         33.2821          5.5378 
        1.98192         33.1686         5.49693 
        1.98805          32.949         5.45647 
        1.99419         32.9156         5.41642 
        2.00033         32.7184         5.37675 
        2.00647         32.6402         5.33749 
         2.0126         32.4394          5.2987 
        2.01874         32.2857         5.26023 
        2.02488         32.1646         5.22211 
        2.03101         31.9733         5.18444 
        2.03714         31.8886         5.14719 
        2.04328          31.767         5.11025 
        2.04941         31.6014         5.07371 
        2.05554         31.5222         5.03756 
        2.06167         31.3229         5.00172 
        2.06781         31.2481         4.96621 
        2.07396         31.1405         4.93101 
        2.08009         30.9677         4.89621 
        2.08622         30.8142         4.86178 
        2.09237         30.7431         4.82763 
        2.09851         30.5028         4.79379 
        2.10464         30.3735         4.76034 
        2.11077          30.367         4.72725 
        2.11691         30.1746          4.6944 
        2.12305         30.0456         4.66186 
        2.12918         29.9226         4.62972 
        2.13531         29.8136         4.59787 
        2.14145         29.6757         4.56625 
         2.1476         29.4949          4.5349 
        2.15372         29.4123         4.50399 
        2.15985          29.305         4.47335 
        2.16599         29.1273          4.4429 
        2.17213         29.0774         4.41277 
        2.17827         28.8884         4.38293 
         2.1844         28.8172         4.35339 
        2.19054         28.7284         4.32412 
        2.19666         28.5422         4.29515 
         2.2028         28.4925         4.26643 
        2.20893         28.3102         4.23796 
        2.21508         28.2226         4.20972 
        2.22122         28.0784         4.18172 
        2.22736         27.9907         4.15405 
        2.23349         27.8153         4.12662 
        2.23962         27.7771         4.09944 
        2.24577          27.625         4.07248 
         2.2519         27.5363         4.04579 
        2.25802         27.3587         4.01939 
        2.26417         27.2438         3.99316 
        2.27031         27.1955         3.96713 
        2.27644         27.1315         3.94142 
        2.28257         26.9782         3.91593 
        2.28872          26.885         3.89062 
        2.29486         26.7409         3.86555 
        2.30099         26.5993         3.84074 
        2.30712          26.544         3.81614 
        2.31326         26.3834         3.79172 
         2.3194         26.3138         3.76753 
        2.32553         26.2072         3.74359 
        2.33166         26.0646         3.71987 
         2.3378         26.0314         3.69632 
        2.34394         25.8826         3.67297 
        2.35007         25.8188         3.64986 
        2.35619         25.6903         3.62697 
        2.36233         25.5541         3.60423 
        2.36848         25.4348         3.58164 
        2.37462         25.3775         3.55928 
        2.38075         25.2453         3.53715 
        2.38689         25.1234         3.51518 
        2.39303          25.094          3.4934 
        2.39916         24.9283         3.47183 
        2.40529         24.8147         3.45045 
        2.41143         24.7522         3.42923 
        2.41757          24.594         3.40819 
         2.4237         24.5245         3.38735 
        2.42983         24.4459          3.3667 
        2.43598         24.3245         3.34616 
        2.44211         24.2596         3.32583 
        2.44823         24.1411         3.30572 
        2.45437         24.0926         3.28572 
        2.46052         23.9388         3.26586 
        2.46665         23.8992         3.24621 
        2.47279         23.7306         3.22672 
        2.47892         23.6651         3.20739 
        2.48507         23.5861         3.18819 
         2.4912         23.4967         3.16919 
