# k  (h/Mpc)    P(k)  (Mpc/h)^3    P_linear(k)  (Mpc/h)^3
     0.00783031           20877         21069.5 
       0.013688         23226.2         23956.5 
       0.019231         22316.3         22726.5 
      0.0249154         19891.5         19808.2 
      0.0312784         16095.9         16238.5 
      0.0375637         13113.1         13321.1 
      0.0433917         11360.9         11392.8 
      0.0492413         10010.7         10104.7 
      0.0555754         9157.79         9173.81 
      0.0619321         8151.51         8429.55 
       0.067871          7584.9         7716.61 
      0.0738098         6900.83         6922.39 
      0.0800417         6076.73         6043.66 
      0.0862327          5260.1         5222.89 
      0.0921407         4678.22          4569.7 
      0.0982031         4247.22         4068.24 
       0.104506         3813.53            3715 
       0.110769         3594.83         3482.86 
       0.116806         3455.18         3309.88 
       0.122832         3246.42         3135.05 
       0.129052         3020.75         2922.23 
       0.135211         2873.97         2678.44 
       0.141259         2598.98         2428.18 
       0.147318         2372.11         2194.49 
       0.153489            2205          1995.8 
       0.159709         2112.81         1844.17 
       0.165845         1946.03         1737.08 
       0.171974         1902.55         1657.98 
       0.178125         1841.11         1589.48 
       0.184229         1695.98         1518.39 
        0.19034         1659.89         1437.21 
       0.196428         1596.56         1347.24 
       0.202534         1483.43         1254.24 
       0.208729         1446.32         1165.33 
       0.214876         1368.29         1088.87 
       0.220989         1298.11         1026.98 
       0.227147         1260.37         977.556 
        0.23329         1210.66         937.161 
       0.239377          1203.5         901.156 
       0.245482         1142.36         865.094 
       0.251667         1099.48         826.425 
       0.257832         1076.14         785.799 
       0.263955         1022.98         745.051 
       0.270079         989.383         706.064 
        0.27624         947.967         670.537 
       0.282372         933.839         639.672 
        0.28843         915.056         613.386 
       0.294538         872.073         590.113 
       0.300721         854.227         568.479 
        0.30691         831.523         547.534 
       0.313033         797.508         526.767 
       0.319153         787.822         505.864 
       0.325316         775.785         484.981 
        0.33145         755.646         464.958 
       0.337538         728.757         446.346 
       0.343633         711.379         429.255 
       0.349808         696.079         413.533 
       0.355968         682.341         399.166 
       0.362074         657.832         385.883 
       0.368217         654.585          373.09 
       0.374374         644.812         360.599 
       0.380519         619.919         348.369 
       0.386598         614.845         336.529 
       0.392688          598.57         325.075 
        0.39888         585.775         313.969 
       0.405048         572.122         303.537 
       0.411186         571.694          293.82 
       0.417313         564.547         284.699 
       0.423458         549.285          276.04 
       0.429607         533.052         267.763 
       0.435692         526.908         259.859 
       0.441815         516.712         252.136 
       0.447964         508.567          244.62 
       0.454126         502.225         237.342 
       0.460267         494.771         230.364 
       0.466387         483.804         223.712 
        0.47254         478.703          217.34 
       0.478662         469.445          211.29 
       0.484765         462.734          205.52 
       0.490885         459.452         199.967 
       0.497035         448.291         194.591 
       0.503198         447.717         189.386 
       0.509342          438.84          184.36 
       0.515458         430.053         179.523 
       0.521598         427.772         174.835 
       0.527764         418.561         170.301 
       0.533884         413.514         165.967 
           0.54         410.223         161.798 
       0.546137         402.775          157.77 
       0.552299         400.411         153.871 
       0.558452         394.152         150.114 
       0.564573          392.32         146.498 
       0.570708         385.996         142.986 
       0.576825         379.085         139.595 
       0.582926         378.027         136.321 
       0.589034         370.878         133.148 
       0.595184         368.163         130.059 
       0.601379         361.951         127.049 
       0.607522         355.369         124.161 
       0.613639         354.651         121.376 
       0.619772         352.819          118.67 
       0.625918         345.645         116.043 
       0.632068         344.271         113.494 
       0.638161         340.417         111.045 
         0.6443         335.372         108.649 
       0.650464         332.784         106.316 
       0.656582         329.252         104.067 
       0.662703         327.486         101.883 
       0.668861         321.473         99.7494 
       0.675024         320.587         97.6761 
       0.681124         313.824         95.6833 
       0.687237         313.524         93.7429 
       0.693381         308.722         91.8477 
       0.699536         308.406          90.002 
       0.705665         303.903         88.2152 
       0.711789         301.686         86.4785 
       0.717957         298.979         84.7767 
        0.72409         295.186         83.1302 
       0.730186         295.749         81.5374 
       0.736317          290.79         79.9778 
       0.742472         288.516         78.4535 
       0.748622         287.118         76.9704 
        0.75476         283.952         75.5291 
       0.760888         281.773          74.127 
       0.767043         278.706         72.7551 
       0.773185         276.223         71.4209 
       0.779291         274.035         70.1279 
       0.785407         272.043         68.8651 
       0.791564         270.532         67.6256 
       0.797719         266.239         66.4173 
       0.803834         266.536         65.2463 
       0.809972         262.441         64.0993 
       0.816124         260.383         62.9776 
       0.822261         258.413         61.8857 
       0.828378         257.068         60.8231 
       0.834502         253.361         59.7846 
       0.840667          253.21         58.7637 
       0.846816         249.496         57.7695 
       0.852925         249.766         56.8046 
       0.859047          246.47         55.8598 
       0.865192         245.486         54.9335 
       0.871341         242.955         54.0276 
       0.877463         241.574         53.1462 
       0.883569         240.164         52.2868 
       0.889708         238.043         51.4421 
       0.895864         234.838         50.6139 
       0.902008         233.759         49.8057 
       0.908149         231.407         49.0156 
       0.914301         230.604         48.2415 
       0.920448         228.371         47.4849 
       0.926574         226.651         46.7471 
       0.932687         226.471         46.0267 
       0.938823         223.868         45.3188 
       0.944975         223.564         44.6243 
       0.951105         221.238         43.9468 
       0.957225          219.05         43.2846 
       0.963368         219.188         42.6338 
       0.969511         216.025         41.9964 
       0.975621         213.563         41.3755 
       0.981748         213.569         40.7656 
       0.987916         212.202         40.1641 
        0.99406         210.234          39.577 
        1.00019         208.705         39.0029 
        1.00632         207.846         38.4407 
        1.01246         206.355         37.8887 
        1.01859         204.183         37.3485 
        1.02471         202.832         36.8194 
        1.03085          201.81         36.2988 
        1.03698         201.087         35.7894 
        1.04314         199.982         35.2875 
        1.04929         198.415         34.7965 
        1.05541         197.859         34.3168 
        1.06154         195.794         33.8449 
        1.06769         194.503         33.3812 
        1.07382         192.627         32.9278 
        1.07993          192.07         32.4838 
        1.08607         191.111         32.0461 
        1.09222         189.295         31.6161 
        1.09836         188.322         31.1944 
        1.10449         187.395          30.781 
        1.11063         185.955         30.3745 
        1.11677         184.351         29.9756 
         1.1229         184.304         29.5845 
        1.12903         181.932         29.2001 
        1.13518         181.167         28.8221 
        1.14131         180.289         28.4511 
        1.14745         178.758         28.0868 
        1.15359         177.774         27.7289 
        1.15973         176.989          27.377 
        1.16584         175.822         27.0328 
        1.17197         175.168          26.694 
        1.17811         173.224           26.36 
        1.18424         172.472         26.0327 
        1.19038         171.755         25.7101 
        1.19652         169.868          25.393 
        1.20267         169.117         25.0812 
        1.20881         168.192         24.7748 
        1.21495         167.524         24.4739 
        1.22108         166.311         24.1781 
         1.2272         165.403         23.8879 
        1.23334          164.02         23.6018 
        1.23949         163.463         23.3197 
        1.24562         162.322         23.0429 
        1.25174         161.836         22.7711 
        1.25789         160.306         22.5028 
        1.26402         159.688         22.2394 
        1.27014         158.777         21.9807 
        1.27628         158.109         21.7254 
        1.28244         156.655         21.4737 
        1.28858         155.823         21.2262 
        1.29471         154.635         20.9833 
        1.30084         154.273         20.7443 
        1.30697         153.117         20.5087 
        1.31312         152.457         20.2764 
        1.31925         151.327         20.0484 
        1.32537         150.876         19.8242 
        1.33151          149.37         19.6026 
        1.33765          148.99         19.3845 
        1.34378         148.264         19.1701 
        1.34992         147.055         18.9589 
        1.35606         146.487         18.7503 
         1.3622          145.33         18.5453 
        1.36833         144.884         18.3438 
        1.37445         144.116         18.1454 
        1.38059         142.845         17.9494 
        1.38675         141.987         17.7557 
        1.39288         141.401         17.5657 
        1.39901         140.347         17.3786 
        1.40515         139.582         17.1937 
         1.4113         139.194         17.0116 
        1.41742         138.242         16.8329 
        1.42355         137.128         16.6564 
         1.4297         136.602         16.4818 
        1.43585         136.177         16.3099 
        1.44198         134.962          16.141 
        1.44809         134.559         15.9748 
        1.45423         133.783         15.8104 
        1.46036         132.983         15.6486 
        1.46649         131.893         15.4889 
        1.47263         131.583         15.3314 
        1.47877         130.736         15.1761 
        1.48491         129.776         15.0228 
        1.49104          128.93         14.8718 
        1.49718         128.409         14.7228 
        1.50333         127.303         14.5757 
        1.50947         127.055         14.4308 
         1.5156         126.121         14.2881 
        1.52172         125.455         14.1474 
        1.52787         124.966         14.0082 
          1.534         124.324         13.8711 
        1.54013         123.596         13.7359 
        1.54627         122.879         13.6024 
        1.55241         122.276         13.4705 
        1.55855         121.466         13.3406 
        1.56467         120.837         13.2128 
         1.5708         120.227         13.0862 
        1.57695         119.705         12.9612 
        1.58308         118.623          12.838 
        1.58922         118.131         12.7164 
        1.59535         117.588         12.5963 
         1.6015         116.777         12.4777 
        1.60764         116.122         12.3606 
        1.61376          115.72         12.2454 
        1.61989         115.045         12.1315 
        1.62604         114.447         12.0188 
        1.63218         113.709         11.9076 
        1.63831         113.193         11.7981 
        1.64444         112.318         11.6899 
        1.65059         111.895         11.5828 
        1.65673         111.289         11.4772 
        1.66285         110.971         11.3731 
        1.66898         110.138         11.2704 
        1.67512         109.111         11.1687 
        1.68127         109.043         11.0681 
         1.6874         108.444          10.969 
        1.69353         107.723         10.8712 
        1.69967         107.245         10.7743 
        1.70581         106.599         10.6787 
        1.71193          106.19         10.5846 
        1.71806         105.217         10.4914 
        1.72421         104.707         10.3991 
        1.73035         104.366          10.308 
        1.73649         103.911         10.2181 
        1.74262         103.024         10.1293 
        1.74876         102.472         10.0415 
        1.75489         102.452         9.95492 
        1.76101         101.609         9.86938 
        1.76715          100.95         9.78472 
        1.77329         100.481         9.70095 
        1.77943         99.8295         9.61812 
        1.78557         99.3306         9.53638 
        1.79171         98.7319         9.45557 
        1.79785         98.1734         9.37568 
        1.80399         97.5772         9.29673 
        1.81012         97.2227         9.21879 
        1.81625         96.5161         9.14177 
        1.82239         96.2896         9.06552 
        1.82853         95.4711         8.99016 
        1.83466         94.8663         8.91574 
        1.84078         94.7183         8.84223 
        1.84692         94.1337         8.76943 
        1.85306         93.6123         8.69736 
         1.8592         93.1657         8.62621 
        1.86533         92.6193         8.55589 
        1.87147         92.0942         8.48627 
        1.87761         91.6439          8.4174 
        1.88375         91.1599         8.34937 
        1.88988         90.6311         8.28216 
        1.89601          90.255         8.21565 
        1.90215         89.8243         8.14982 
        1.90829         89.2056         8.08473 
        1.91442         88.6698         8.02035 
        1.92056         88.4107         7.95673 
         1.9267         87.7463         7.89373 
        1.93284         87.2485         7.83138 
        1.93897         87.0408         7.76981 
        1.94509         86.5205         7.70903 
        1.95123         85.8996         7.64875 
        1.95737         85.5171         7.58907 
        1.96349         85.2078         7.53017 
        1.96964         84.8472         7.47173 
        1.97578         84.2414         7.41388 
        1.98192         83.7636         7.35675 
        1.98805         83.4301         7.30022 
        1.99419         83.1167         7.24428 
        2.00033         82.4868          7.1889 
        2.00647           82.17         7.13411 
         2.0126          81.721         7.07998 
        2.01874         81.0838         7.02633 
        2.02488         80.8157         6.97318 
        2.03101         80.4433         6.92069 
        2.03714         79.9954         6.86878 
        2.04328         79.6813         6.81734 
        2.04941         79.0386         6.76647 
        2.05554         79.0112         6.71615 
        2.06167         78.3809         6.66628 
        2.06781         78.1533          6.6169 
        2.07396         77.4354         6.56795 
        2.08009         77.1891         6.51958 
        2.08622         76.7773         6.47175 
        2.09237          76.377          6.4243 
        2.09851         75.9671         6.37732 
        2.10464         75.6835         6.33089 
        2.11077         75.2336         6.28497 
        2.11691         74.7274          6.2394 
        2.12305         74.3291         6.19428 
        2.12918          74.005         6.14972 
        2.13531         73.8157         6.10559 
        2.14145         73.3837         6.06178 
         2.1476         72.9335         6.01836 
        2.15372         72.5715         5.97558 
        2.15985         72.1961         5.93316 
        2.16599         71.7833         5.89104 
        2.17213         71.4825         5.84937 
        2.17827         71.0907         5.80812 
         2.1844         70.6924         5.76729 
        2.19054         70.2706         5.72684 
        2.19666         69.9162         5.68684 
         2.2028         69.7329         5.64718 
        2.20893         69.3039         5.60788 
        2.21508         68.9037         5.56891 
        2.22122         68.6063         5.53029 
        2.22736         68.1855         5.49212 
        2.23349         67.8472         5.45432 
        2.23962         67.6117         5.41685 
        2.24577         67.2877          5.3797 
         2.2519         66.8666         5.34295 
        2.25802         66.4911         5.30659 
        2.26417         66.2125         5.27048 
        2.27031           65.81         5.23466 
        2.27644         65.4899         5.19928 
        2.28257          65.269         5.16423 
        2.28872         64.9196         5.12944 
        2.29486         64.5227         5.09497 
        2.30099         64.2341         5.06088 
        2.30712         64.0553          5.0271 
        2.31326         63.5609         4.99356 
         2.3194         63.2511         4.96034 
        2.32553         62.9652         4.92749 
        2.33166         62.7322         4.89494 
         2.3378         62.3771         4.86264 
        2.34394         62.1319         4.83063 
        2.35007         61.6966         4.79894 
        2.35619         61.3358         4.76758 
        2.36233         61.0053         4.73642 
        2.36848         60.9392         4.70548 
        2.37462         60.4533         4.67487 
        2.38075         60.1938         4.64457 
        2.38689         59.9858         4.61451 
        2.39303         59.6723         4.58472 
        2.39916         59.2913         4.55522 
        2.40529          59.095         4.52598 
        2.41143         58.7347         4.49698 
        2.41757         58.3518         4.46821 
         2.4237         58.2014         4.43975 
        2.42983         57.8808         4.41154 
        2.43598         57.7048          4.3835 
        2.44211         57.3258         4.35575 
        2.44823          56.979          4.3283 
        2.45437         56.7718         4.30101 
        2.46052         56.4913         4.27393 
        2.46665         56.1375         4.24713 
        2.47279         55.8003         4.22057 
        2.47892         55.6589         4.19422 
        2.48507          55.389         4.16807 
         2.4912         55.1749         4.14219 
