# k  (h/Mpc)    P(k)  (Mpc/h)^3    P_linear(k)  (Mpc/h)^3
     0.00783031         4862.92         4933.25 
       0.013688         6004.63          5995.5 
       0.019231         5971.11         5968.24 
      0.0249154         5365.07         5425.52 
      0.0312784         4615.12         4631.74 
      0.0375637         3935.12         3924.27 
      0.0433917          3408.3         3430.42 
      0.0492413         3084.29         3087.54 
      0.0555754         2794.77         2833.21 
      0.0619321         2641.67         2628.16 
       0.067871         2405.24         2431.41 
      0.0738098         2186.39         2209.94 
      0.0800417          1929.6         1959.92 
      0.0862327         1709.26         1720.08 
      0.0921407         1527.72         1523.47 
      0.0982031         1365.12         1367.71 
       0.104506          1274.6         1254.38 
       0.110769         1193.24          1178.2 
       0.116806         1126.31            1122 
       0.122832         1077.15         1067.17 
       0.129052         999.569         1001.82 
       0.135211         928.577         926.653 
       0.141259         863.031         848.079 
       0.147318         795.287         772.844 
       0.153489         724.932          707.02 
       0.159709          678.88         655.289 
       0.165845         649.294         617.873 
       0.171974         613.938         590.135 
       0.178125         589.948         566.751 
       0.184229         567.413          543.32 
        0.19034         530.055          516.94 
       0.196428         511.431         487.489 
       0.202534         487.896         456.472 
       0.208729          456.53         426.113 
       0.214876         428.009         399.372 
       0.220989         411.936         377.274 
       0.227147         389.552         359.436 
        0.23329         374.685         344.957 
       0.239377         365.224         332.339 
       0.245482         343.387         319.965 
       0.251667         337.257         306.814 
       0.257832         324.237         292.905 
       0.263955         310.509         278.714 
       0.270079         297.376         264.888 
        0.27624         290.183         252.054 
       0.282372         278.331         240.766 
        0.28843         267.907         231.122 
       0.294538         256.824         222.629 
       0.300721         253.238         214.852 
        0.30691         241.792         207.411 
       0.313033         235.452         200.081 
       0.319153          225.29         192.652 
       0.325316         220.073         185.162 
        0.33145         211.938         177.873 
       0.337538         207.931         171.021 
       0.343633         200.599         164.677 
       0.349808         194.299         158.828 
       0.355968         190.424         153.507 
       0.362074         184.975         148.618 
       0.368217         179.861          143.95 
       0.374374         174.314         139.398 
       0.380519         170.699         134.932 
       0.386598         166.097         130.584 
       0.392688         163.232         126.336 
        0.39888           158.8         122.189 
       0.405048         154.951         118.275 
       0.411186         151.474         114.613 
       0.417313         147.706         111.189 
       0.423458         144.468         107.946 
       0.429607         140.932         104.853 
       0.435692         136.357         101.908 
       0.441815         135.228         99.0285 
       0.447964         132.893          96.211 
       0.454126         127.024         93.4716 
       0.460267         125.546         90.8355 
       0.466387         123.334         88.3112 
        0.47254         120.922         85.8844 
       0.478662         119.464         83.5841 
       0.484765         116.039         81.3929 
       0.490885         113.978         79.2842 
       0.497035         112.547         77.2421 
       0.503198          109.39         75.2652 
       0.509342         107.207         73.3555 
       0.515458         105.595         71.5104 
       0.521598         104.108         69.7161 
       0.527764         102.422         67.9758 
       0.533884         100.749         66.3117 
           0.54         98.8005         64.7101 
       0.546137         97.8239         63.1606 
       0.552299         96.3034         61.6597 
       0.558452         93.9731         60.2128 
       0.564573         92.2884         58.8203 
       0.570708         91.0968          57.468 
       0.576825         89.6859         56.1597 
       0.582926         87.9051         54.8934 
       0.589034         86.2437         53.6639 
       0.595184         85.2218         52.4645 
       0.601379          84.147         51.2956 
       0.607522         82.1067         50.1737 
       0.613639         81.9073         49.0915 
       0.619772         79.9892         48.0395 
       0.625918         79.2596         47.0166 
       0.632068         78.2743         46.0228 
       0.638161         77.2039         45.0666 
         0.6443          76.082         44.1309 
       0.650464         75.0741         43.2184 
       0.656582         74.1845         42.3386 
       0.662703         72.7367         41.4834 
       0.668861         71.9192         40.6473 
       0.675024         71.0206         39.8338 
       0.681124         70.0107         39.0512 
       0.687237         68.7908         38.2883 
       0.693381         68.1663         37.5426 
       0.699536         67.0882         36.8157 
       0.705665         67.3753         36.1114 
       0.711789         65.5377         35.4265 
       0.717957         65.0127         34.7548 
        0.72409         64.1328         34.1044 
       0.730186         63.0841         33.4748 
       0.736317         62.8851         32.8579 
       0.742472         61.9741         32.2543 
       0.748622         61.3989         31.6667 
        0.75476         60.6739         31.0951 
       0.760888         59.7892         30.5385 
       0.767043         59.1773         29.9936 
       0.773185          58.436         29.4632 
       0.779291         58.1077         28.9487 
       0.785407           57.54         28.4459 
       0.791564         56.7163         27.9521 
       0.797719          55.803         27.4703 
       0.803834         55.6478         27.0031 
       0.809972          54.724         26.5451 
       0.816124         54.0996         26.0969 
       0.822261         53.7218         25.6604 
       0.828378          53.324         25.2352 
       0.834502         52.6895         24.8195 
       0.840667         52.2179         24.4105 
       0.846816         51.4982          24.012 
       0.852925         51.0699          23.625 
       0.859047         50.4008         23.2458 
       0.865192         50.0969         22.8737 
       0.871341         49.8623         22.5096 
       0.877463         48.8708         22.1552 
       0.883569         48.5512         21.8094 
       0.889708         48.2698         21.4692 
       0.895864         47.8027         21.1355 
       0.902008         47.3767         20.8097 
       0.908149         46.9753          20.491 
       0.914301         46.6818         20.1785 
       0.920448         46.0875         19.8729 
       0.926574         45.7099         19.5748 
       0.932687         45.3414         19.2834 
       0.938823         44.6675          18.997 
       0.944975         44.5489         18.7158 
       0.951105          44.105         18.4414 
       0.957225         43.5558         18.1729 
       0.963368          43.515          17.909 
       0.969511         43.1219         17.6503 
       0.975621         42.7626         17.3982 
       0.981748         42.2365         17.1504 
       0.987916         42.0113         16.9059 
        0.99406         41.7234         16.6671 
        1.00019         41.2057         16.4334 
        1.00632         41.0111         16.2045 
        1.01246         40.7213         15.9796 
        1.01859         40.1539         15.7594 
        1.02471          40.194         15.5436 
        1.03085         39.7835         15.3312 
        1.03698         39.2974         15.1232 
        1.04314         38.9787         14.9182 
        1.04929         38.7693         14.7175 
        1.05541         38.3431         14.5214 
        1.06154          38.277         14.3283 
        1.06769         37.9296         14.1385 
        1.07382         37.6577         13.9528 
        1.07993         37.5101         13.7709 
        1.08607         37.0366         13.5915 
        1.09222         36.9233         13.4151 
        1.09836         36.5822         13.2421 
        1.10449         36.3251         13.0724 
        1.11063         35.8795         12.9055 
        1.11677         35.7375         12.7416 
         1.1229         35.6047         12.5808 
        1.12903         35.1087         12.4227 
        1.13518         35.0479         12.2672 
        1.14131         34.9223         12.1144 
        1.14745         34.4974         11.9644 
        1.15359          34.442         11.8169 
        1.15973         34.0278         11.6719 
        1.16584         33.7611         11.5299 
        1.17197         33.7457         11.3902 
        1.17811          33.369         11.2523 
        1.18424         33.0786         11.1171 
        1.19038         33.0312         10.9838 
        1.19652         32.8461         10.8527 
        1.20267         32.6056         10.7238 
        1.20881         32.3415          10.597 
        1.21495         32.1185         10.4725 
        1.22108         31.9258           10.35 
         1.2272         31.5837         10.2298 
        1.23334         31.4975         10.1112 
        1.23949         31.3444         9.99419 
        1.24562         31.1409         9.87939 
        1.25174         31.0009         9.76658 
        1.25789         30.7554          9.6552 
        1.26402         30.5906         9.54577 
        1.27014         30.2798         9.43831 
        1.27628         30.1479         9.33219 
        1.28244         29.9877         9.22751 
        1.28858         29.8757         9.12459 
        1.29471         29.6935         9.02347 
        1.30084         29.5102         8.92399 
        1.30697         29.2821         8.82586 
        1.31312         29.0238         8.72908 
        1.31925         28.9471         8.63406 
        1.32537         28.8171         8.54056 
        1.33151         28.5911         8.44811 
        1.33765          28.539          8.3571 
        1.34378         28.3644         8.26762 
        1.34992         28.0093         8.17939 
        1.35606         27.9216         8.09227 
         1.3622         27.7631         8.00658 
        1.36833          27.605         7.92234 
        1.37445          27.602         7.83936 
        1.38059         27.3869         7.75733 
        1.38675         27.1097         7.67628 
        1.39288         27.0695         7.59672 
        1.39901         26.8349         7.51833 
        1.40515         26.7405         7.44088 
         1.4113         26.6101         7.36455 
        1.41742         26.3406         7.28959 
        1.42355         26.3114         7.21554 
         1.4297         26.1512          7.1423 
        1.43585         26.1019         7.07011 
        1.44198         25.8382          6.9992 
        1.44809         25.7313          6.9294 
        1.45423         25.6359         6.86031 
        1.46036         25.5501         6.79228 
        1.46649         25.3552         6.72516 
        1.47263         25.2035         6.65889 
        1.47877         25.1151         6.59355 
        1.48491         24.9774         6.52899 
        1.49104         24.9095         6.46543 
        1.49718         24.6727         6.40268 
        1.50333         24.6267         6.34066 
        1.50947         24.5197         6.27959 
         1.5156         24.3253         6.21941 
        1.52172         24.1611         6.16004 
        1.52787         24.1724         6.10132 
          1.534         23.9568         6.04344 
        1.54013         23.7806         5.98637 
        1.54627         23.7464         5.92994 
        1.55241         23.5861         5.87423 
        1.55855         23.4552         5.81932 
        1.56467         23.3632         5.76527 
         1.5708         23.2972         5.71176 
        1.57695         23.0549         5.65884 
        1.58308         23.1106         5.60672 
        1.58922         22.9284         5.55523 
        1.59535         22.7855         5.50441 
         1.6015         22.6885         5.45415 
        1.60764         22.6411         5.40455 
        1.61376         22.4719          5.3557 
        1.61989         22.3041         5.30742 
        1.62604         22.2942         5.25963 
        1.63218         22.1354         5.21247 
        1.63831         22.0914         5.16599 
        1.64444          21.932         5.12006 
        1.65059         21.8179         5.07459 
        1.65673         21.7377         5.02972 
        1.66285         21.6301         4.98552 
        1.66898         21.5547         4.94184 
        1.67512         21.4793         4.89861 
        1.68127         21.3222         4.85585 
         1.6874         21.2294          4.8137 
        1.69353         21.1706         4.77208 
        1.69967         21.0111         4.73085 
        1.70581         20.9372         4.69013 
        1.71193         20.8365         4.65004 
        1.71806         20.7465         4.61034 
        1.72421          20.648         4.57103 
        1.73035          20.564         4.53222 
        1.73649         20.4722         4.49387 
        1.74262          20.413           4.456 
        1.74876         20.3128         4.41854 
        1.75489         20.2038         4.38158 
        1.76101         20.1245         4.34507 
        1.76715         20.0501         4.30892 
        1.77329         19.9695         4.27314 
        1.77943          19.844         4.23775 
        1.78557          19.788         4.20282 
        1.79171         19.7211         4.16827 
        1.79785         19.5737         4.13411 
        1.80399         19.4925         4.10034 
        1.81012         19.4781           4.067 
        1.81625         19.3587         4.03404 
        1.82239         19.3321          4.0014 
        1.82853         19.1547         3.96913 
        1.83466         19.0587         3.93726 
        1.84078         18.9509         3.90577 
        1.84692         18.9552         3.87457 
        1.85306         18.8361         3.84368 
         1.8592         18.7638         3.81318 
        1.86533         18.6886         3.78302 
        1.87147         18.5996         3.75316 
        1.87761         18.5746         3.72361 
        1.88375         18.4496         3.69441 
        1.88988         18.4024         3.66556 
        1.89601         18.2828           3.637 
        1.90215         18.2158         3.60872 
        1.90829         18.1768         3.58076 
        1.91442         18.0897          3.5531 
        1.92056          18.013         3.52575 
         1.9267         17.9382         3.49867 
        1.93284         17.8371         3.47185 
        1.93897         17.7845         3.44537 
        1.94509         17.7116         3.41922 
        1.95123         17.6125         3.39327 
        1.95737         17.5639         3.36758 
        1.96349         17.4862         3.34222 
        1.96964          17.406         3.31705 
        1.97578         17.3583         3.29213 
        1.98192         17.2422         3.26752 
        1.98805         17.2129         3.24316 
        1.99419         17.1262         3.21904 
        2.00033         17.0384         3.19516 
        2.00647         16.9863         3.17152 
         2.0126         16.8913         3.14817 
        2.01874         16.8268         3.12502 
        2.02488         16.7895         3.10208 
        2.03101         16.7416         3.07941 
        2.03714         16.6654           3.057 
        2.04328         16.5639         3.03478 
        2.04941         16.4888          3.0128 
        2.05554         16.4894         2.99105 
        2.06167          16.405         2.96949 
        2.06781         16.3445         2.94814 
        2.07396         16.2811         2.92698 
        2.08009         16.2144         2.90605 
        2.08622          16.121         2.88536 
        2.09237         16.0719         2.86482 
        2.09851         16.0126         2.84449 
        2.10464         15.9475         2.82438 
        2.11077         15.8595          2.8045 
        2.11691         15.8374         2.78476 
        2.12305         15.7517         2.76521 
        2.12918         15.6854          2.7459 
        2.13531         15.6471         2.72677 
        2.14145         15.5554         2.70778 
         2.1476          15.522         2.68895 
        2.15372         15.4665         2.67039 
        2.15985         15.3692         2.65199 
        2.16599         15.3431         2.63371 
        2.17213         15.2863         2.61563 
        2.17827         15.2366         2.59772 
         2.1844         15.1667         2.57999 
        2.19054         15.0942         2.56242 
        2.19666         15.0719         2.54504 
         2.2028         15.0215         2.52781 
        2.20893           14.93         2.51073 
        2.21508         14.8734         2.49379 
        2.22122         14.8042         2.47699 
        2.22736         14.7602         2.46039 
        2.23349         14.6926         2.44395 
        2.23962         14.6337         2.42765 
        2.24577         14.5696         2.41148 
         2.2519         14.5632         2.39548 
        2.25802         14.5067         2.37966 
        2.26417         14.4581         2.36393 
        2.27031          14.379         2.34833 
        2.27644           14.33         2.33292 
        2.28257         14.2694         2.31765 
        2.28872         14.2168         2.30249 
        2.29486         14.1851         2.28746 
        2.30099          14.129          2.2726 
        2.30712         14.0898         2.25787 
        2.31326         14.0318         2.24324 
         2.3194          13.972         2.22875 
        2.32553         13.9174         2.21442 
        2.33166         13.8275         2.20021 
         2.3378         13.8035         2.18611 
        2.34394         13.7558         2.17213 
        2.35007         13.6879          2.1583 
        2.35619         13.6302          2.1446 
        2.36233          13.597         2.13098 
        2.36848         13.5719         2.11746 
        2.37462         13.5476         2.10409 
        2.38075         13.4555         2.09084 
        2.38689         13.4249          2.0777 
        2.39303         13.3671         2.06467 
        2.39916         13.3244         2.05176 
        2.40529         13.2721         2.03897 
        2.41143          13.228         2.02628 
        2.41757         13.1885          2.0137 
         2.4237         13.1281         2.00124 
        2.42983         13.0827         1.98889 
        2.43598         13.0438         1.97661 
        2.44211         12.9802         1.96445 
        2.44823         12.9305         1.95243 
        2.45437         12.9181         1.94047 
        2.46052         12.8599          1.9286 
        2.46665         12.7954         1.91686 
        2.47279         12.7445         1.90521 
        2.47892         12.7236         1.89366 
        2.48507         12.6918         1.88219 
         2.4912         12.6385         1.87084 
