# k  (h/Mpc)    P(k)  (Mpc/h)^3    P_linear(k)  (Mpc/h)^3
     0.00783031         5024.17         5092.05 
       0.013688         6225.29         6209.68 
       0.019231         6279.41         6274.99 
      0.0249154         5753.73          5821.4 
      0.0312784         5051.45         5074.32 
      0.0375637         4354.38         4346.11 
      0.0433917          3763.4         3791.79 
      0.0492413         3371.33            3376 
      0.0555754         3015.04         3057.32 
      0.0619321         2837.88          2821.7 
       0.067871         2599.83         2629.33 
      0.0738098         2403.15         2431.97 
      0.0800417         2167.76         2207.43 
      0.0862327          1955.5         1974.62 
      0.0921407         1759.69         1761.08 
      0.0982031         1561.02         1568.59 
       0.104506          1430.5         1408.48 
       0.110769         1310.65          1290.9 
       0.116806         1219.42         1209.44 
       0.122832         1163.77         1147.68 
       0.129052         1091.74         1091.53 
       0.135211         1035.24         1033.43 
       0.141259         982.317         969.352 
       0.147318         918.725         899.029 
       0.153489         840.529         825.886 
       0.159709         780.709         756.848 
       0.165845          734.45         698.198 
       0.171974         682.315         651.165 
       0.178125         647.741         614.911 
       0.184229         621.051         587.064 
        0.19034         583.648         563.622 
       0.196428         571.085         541.199 
       0.202534         552.552         517.249 
       0.208729         522.798          490.62 
       0.214876         492.086         462.556 
       0.220989         472.488         434.629 
       0.227147         442.973         408.281 
        0.23329          421.89          385.12 
       0.239377         408.311          365.79 
       0.245482         382.216         349.746 
       0.251667          376.29         336.048 
       0.257832         363.536          323.83 
       0.263955          350.68         312.077 
       0.270079         337.784         300.032 
        0.27624         331.067         287.419 
       0.282372         317.274         274.564 
        0.28843         304.988         262.038 
       0.294538         291.219         250.073 
       0.300721         286.369         239.046 
        0.30691         272.742         229.246 
       0.313033          265.65         220.705 
       0.319153         254.656         213.061 
       0.325316         248.935          205.94 
        0.33145         240.487         199.115 
       0.337538         236.506         192.405 
       0.343633         228.391         185.665 
       0.349808         221.158         178.874 
       0.355968          216.68         172.244 
       0.362074         210.356         165.967 
       0.368217         204.422         160.051 
       0.374374         197.924         154.574 
       0.380519         193.877         149.547 
       0.386598         188.769         144.929 
       0.392688         185.795         140.571 
        0.39888         180.846         136.319 
       0.405048         176.639          132.19 
       0.411186         172.624         128.165 
       0.417313         168.519         124.223 
       0.423458         164.862         120.379 
       0.429607         160.764         116.679 
       0.435692         155.655          113.19 
       0.441815         154.382         109.864 
       0.447964          151.66         106.714 
       0.454126         145.035         103.723 
       0.460267         143.347          100.88 
       0.466387         141.004         98.1589 
        0.47254          138.24          95.511 
       0.478662         136.643         92.9469 
       0.484765         132.714         90.4612 
       0.490885         130.436         88.0443 
       0.497035         128.726         85.6962 
       0.503198         125.164         83.4314 
       0.509342         122.814         81.2662 
       0.515458         121.024         79.2036 
       0.521598          119.32         77.2171 
       0.527764         117.427         75.2983 
       0.533884          115.46         73.4612 
           0.54          113.35          71.686 
       0.546137          112.29         69.9588 
       0.552299          110.49         68.2743 
       0.558452         107.954         66.6422 
       0.564573         106.008         65.0691 
       0.570708         104.634         63.5444 
       0.576825         103.063          62.076 
       0.582926         101.089          60.661 
       0.589034         99.2561         59.2913 
       0.595184         98.0988         57.9579 
       0.601379         96.9202         56.6585 
       0.607522         94.5357           55.41 
       0.613639         94.3251         54.2035 
       0.619772         92.1391         53.0282 
       0.625918         91.2739         51.8837 
       0.632068          90.154         50.7714 
       0.638161         89.0129         49.7015 
         0.6443         87.7652         48.6557 
       0.650464         86.6206         47.6374 
       0.656582         85.5405         46.6566 
       0.662703         83.9031         45.7037 
       0.668861         82.9896         44.7724 
       0.675024         81.9868         43.8664 
       0.681124         80.9034         42.9946 
       0.687237         79.4722         42.1448 
       0.693381         78.7062          41.314 
       0.699536          77.577         40.5041 
       0.705665         77.9232         39.7195 
       0.711789          75.767         38.9565 
       0.717957         75.2543         38.2083 
        0.72409         74.1937         37.4841 
       0.730186         72.9645         36.7831 
       0.736317         72.7724         36.0965 
       0.742472          71.791          35.425 
       0.748622         71.1339         34.7715 
        0.75476         70.3162          34.136 
       0.760888         69.2888         33.5174 
       0.767043         68.6119         32.9119 
       0.773185         67.7728         32.3226 
       0.779291          67.337         31.7512 
       0.785407         66.7051         31.1928 
       0.791564         65.7871         30.6444 
       0.797719         64.8067         30.1095 
       0.803834         64.5865         29.5908 
       0.809972         63.4794         29.0825 
       0.816124         62.8913         28.5852 
       0.822261         62.4312         28.1008 
       0.828378         61.9371         27.6292 
       0.834502         61.2342         27.1681 
       0.840667         60.6898         26.7146 
       0.846816         59.8891         26.2728 
       0.852925         59.3725         25.8438 
       0.859047         58.5914         25.4235 
       0.865192         58.2868         25.0112 
       0.871341          57.968         24.6078 
       0.877463         56.8712         24.2152 
       0.883569         56.5185         23.8322 
       0.889708           56.21         23.4555 
       0.895864         55.6688         23.0861 
       0.902008          55.171         22.7254 
       0.908149         54.7417         22.3726 
       0.914301         54.3149         22.0268 
       0.920448         53.7214         21.6886 
       0.926574         53.2747         21.3588 
       0.932687         52.8853         21.0365 
       0.938823         52.0736         20.7197 
       0.944975         51.9498         20.4088 
       0.951105         51.4223         20.1054 
       0.957225         50.7862         19.8087 
       0.963368         50.7246          19.517 
       0.969511         50.3072         19.2311 
       0.975621         49.8871         18.9526 
       0.981748          49.302         18.6789 
       0.987916         49.0275         18.4089 
        0.99406         48.7183         18.1453 
        1.00019         48.0987         17.8873 
        1.00632         47.8898         17.6347 
        1.01246         47.4937         17.3865 
        1.01859         46.8807         17.1436 
        1.02471         46.9628         16.9056 
        1.03085         46.4502         16.6713 
        1.03698         45.9509          16.442 
        1.04314         45.5372         16.2161 
        1.04929         45.3231         15.9949 
        1.05541         44.8298         15.7787 
        1.06154         44.7656          15.566 
        1.06769         44.3342          15.357 
        1.07382         44.0563         15.1524 
        1.07993         43.8781         14.9521 
        1.08607         43.3596         14.7546 
        1.09222         43.2052         14.5604 
        1.09836         42.8401           14.37 
        1.10449          42.524         14.1832 
        1.11063         42.0203         13.9995 
        1.11677         41.8273         13.8191 
         1.1229         41.6809         13.6423 
        1.12903         41.0848         13.4684 
        1.13518         41.0869         13.2973 
        1.14131         40.9181         13.1294 
        1.14745         40.3894         12.9644 
        1.15359         40.3281         12.8023 
        1.15973         39.8507         12.6428 
        1.16584         39.5732         12.4868 
        1.17197         39.4905         12.3332 
        1.17811         39.1333         12.1817 
        1.18424          38.763         12.0333 
        1.19038         38.7174         11.8868 
        1.19652         38.4933         11.7429 
        1.20267         38.2012         11.6013 
        1.20881         37.9015         11.4621 
        1.21495         37.6377         11.3255 
        1.22108         37.4175          11.191 
         1.2272         37.0121         11.0591 
        1.23334         36.9183          10.929 
        1.23949         36.7825         10.8007 
        1.24562         36.5201         10.6748 
        1.25174         36.3505         10.5512 
        1.25789         36.0857         10.4291 
        1.26402         35.8505         10.3091 
        1.27014         35.5185         10.1914 
        1.27628         35.3939         10.0751 
        1.28244          35.151         9.96041 
        1.28858         35.0279         9.84768 
        1.29471          34.854         9.73693 
        1.30084         34.6389           9.628 
        1.30697         34.3538         9.52057 
        1.31312          34.066         9.41462 
        1.31925         33.9842         9.31062 
        1.32537         33.8174         9.20829 
        1.33151         33.5669         9.10714 
        1.33765         33.5162         9.00757 
        1.34378         33.3025         8.90968 
        1.34992         32.8806         8.81319 
        1.35606         32.7567         8.71791 
         1.3622         32.5819         8.62421 
        1.36833         32.4092         8.53212 
        1.37445         32.4013         8.44141 
        1.38059         32.1725         8.35175 
        1.38675         31.8612         8.26317 
        1.39288         31.7937         8.17623 
        1.39901         31.5091         8.09058 
        1.40515         31.3936         8.00596 
         1.4113         31.2762         7.92258 
        1.41742         30.9479         7.84071 
        1.42355         30.9071         7.75985 
         1.4297         30.6944         7.67988 
        1.43585         30.6501         7.60107 
        1.44198         30.3588         7.52366 
        1.44809         30.2249         7.44749 
        1.45423         30.1212         7.37208 
        1.46036          30.011         7.29786 
        1.46649         29.7719         7.22463 
        1.47263         29.6248         7.15235 
        1.47877         29.5207         7.08109 
        1.48491         29.3522         7.01069 
        1.49104         29.2379         6.94139 
        1.49718         28.9621         6.87298 
        1.50333         28.9231         6.80539 
        1.50947         28.7776         6.73884 
         1.5156         28.5795         6.67328 
        1.52172         28.3858         6.60859 
        1.52787         28.4066         6.54463 
          1.534         28.1462          6.4816 
        1.54013         27.9564         6.41946 
        1.54627         27.9151         6.35802 
        1.55241         27.7277         6.29738 
        1.55855         27.5763         6.23762 
        1.56467         27.4342         6.17879 
         1.5708         27.3725         6.12056 
        1.57695         27.0887         6.06299 
        1.58308         27.1515         6.00629 
        1.58922         26.9536         5.95027 
        1.59535         26.7745         5.89499 
         1.6015         26.6562         5.84034 
        1.60764          26.596          5.7864 
        1.61376         26.3974         5.73329 
        1.61989         26.1995         5.68081 
        1.62604         26.1891         5.62886 
        1.63218         25.9971         5.57759 
        1.63831         25.9351         5.52708 
        1.64444         25.7839         5.47717 
        1.65059         25.6149         5.42776 
        1.65673         25.5194         5.37902 
        1.66285         25.4093         5.33101 
        1.66898         25.2945         5.28357 
        1.67512         25.2189         5.23661 
        1.68127         25.0163         5.19018 
         1.6874         24.9305         5.14442 
        1.69353         24.8529         5.09923 
        1.69967         24.6741         5.05448 
        1.70581         24.5856         5.01029 
        1.71193         24.4711         4.96679 
        1.71806         24.3536         4.92372 
        1.72421         24.2224         4.88107 
        1.73035         24.1355         4.83898 
        1.73649         24.0341         4.79739 
        1.74262         23.9215         4.75632 
        1.74876         23.8531          4.7157 
        1.75489         23.6974         4.67564 
        1.76101         23.6107         4.63606 
        1.76715         23.5078         4.59689 
        1.77329         23.4364         4.55811 
        1.77943         23.2897         4.51977 
        1.78557         23.1993         4.48193 
        1.79171         23.1106         4.44451 
        1.79785         22.9699         4.40751 
        1.80399         22.8659         4.37094 
        1.81012         22.8349         4.33483 
        1.81625         22.7058         4.29915 
        1.82239         22.6726         4.26382 
        1.82853          22.459         4.22889 
        1.83466         22.3496          4.1944 
        1.84078         22.2122         4.16032 
        1.84692         22.2132         4.12656 
        1.85306         22.0757         4.09314 
         1.8592          21.976         4.06014 
        1.86533         21.8824         4.02752 
        1.87147         21.7879         3.99522 
        1.87761         21.7699         3.96326 
        1.88375         21.6327         3.93169 
        1.88988         21.5726         3.90049 
        1.89601         21.4087         3.86962 
        1.90215         21.3521         3.83905 
        1.90829          21.297         3.80883 
        1.91442         21.1702         3.77893 
        1.92056         21.0987         3.74938 
         1.9267              21         3.72011 
        1.93284         20.8862         3.69114 
        1.93897         20.8343         3.66253 
        1.94509         20.7408         3.63428 
        1.95123         20.6133         3.60627 
        1.95737         20.5578         3.57852 
        1.96349         20.4678         3.55114 
        1.96964         20.3648         3.52397 
        1.97578         20.3248         3.49706 
        1.98192         20.1727          3.4705 
        1.98805         20.1481          3.4442 
        1.99419          20.041         3.41818 
        2.00033         19.9233         3.39241 
        2.00647         19.8575         3.36691 
         2.0126         19.7496         3.34172 
        2.01874         19.6899         3.31675 
        2.02488         19.6684         3.29201 
        2.03101         19.5758         3.26757 
        2.03714         19.4736         3.24339 
        2.04328         19.3733         3.21944 
        2.04941         19.2931         3.19575 
        2.05554         19.2664         3.17231 
        2.06167         19.1812         3.14907 
        2.06781         19.1016         3.12607 
        2.07396         19.0203         3.10326 
        2.08009         18.9566         3.08072 
        2.08622         18.8534         3.05842 
        2.09237         18.7849         3.03631 
        2.09851         18.6986          3.0144 
        2.10464         18.6448         2.99275 
        2.11077         18.5166         2.97134 
        2.11691         18.5098         2.95009 
        2.12305         18.3971         2.92905 
        2.12918         18.3366         2.90826 
        2.13531         18.2731         2.88767 
        2.14145         18.1838         2.86723 
         2.1476         18.1076         2.84697 
        2.15372         18.0527           2.827 
        2.15985         17.9414          2.8072 
        2.16599         17.9051         2.78754 
        2.17213          17.846         2.76809 
        2.17827         17.7587         2.74882 
         2.1844         17.6761         2.72976 
        2.19054          17.613         2.71087 
        2.19666         17.5716         2.69218 
         2.2028         17.5175         2.67365 
        2.20893         17.3939         2.65529 
        2.21508         17.3447         2.63708 
        2.22122          17.244         2.61904 
        2.22736         17.2091          2.6012 
        2.23349         17.1295         2.58353 
        2.23962         17.0593         2.56601 
        2.24577         16.9726         2.54864 
         2.2519         16.9538         2.53146 
        2.25802         16.9044         2.51446 
        2.26417         16.8323         2.49757 
        2.27031         16.7519         2.48082 
        2.27644         16.6959         2.46427 
        2.28257         16.6163         2.44788 
        2.28872         16.5392          2.4316 
        2.29486         16.4943         2.41547 
        2.30099         16.4215         2.39952 
        2.30712         16.4056         2.38371 
        2.31326         16.3179         2.36801 
         2.3194          16.249         2.35246 
        2.32553         16.1804         2.33708 
        2.33166         16.0902         2.32185 
         2.3378         16.0413         2.30672 
        2.34394         15.9897         2.29173 
        2.35007         15.9174         2.27689 
        2.35619         15.8344          2.2622 
        2.36233         15.8021          2.2476 
        2.36848          15.752         2.23311 
        2.37462           15.73         2.21877 
        2.38075         15.6369         2.20457 
        2.38689         15.6042         2.19048 
        2.39303         15.5141         2.17652 
        2.39916         15.4629         2.16269 
        2.40529         15.4005         2.14899 
        2.41143         15.3506         2.13539 
        2.41757         15.2988          2.1219 
         2.4237         15.2262         2.10856 
        2.42983         15.1799         2.09533 
        2.43598         15.1222         2.08218 
        2.44211         15.0507         2.06916 
        2.44823          14.991         2.05629 
        2.45437         14.9665         2.04349 
        2.46052         14.9058         2.03078 
        2.46665         14.8481         2.01821 
        2.47279         14.7767         2.00575 
        2.47892         14.7467         1.99338 
        2.48507         14.6998         1.98111 
         2.4912         14.6343         1.96896 
