# k  (h/Mpc)    Pcb(k)  (Mpc/h)^3    Pcb_linear(k)  (Mpc/h)^3
     0.00783031         5297.23         5359.65 
       0.013688         6740.16         6716.71 
       0.019231         6876.27         6868.75 
      0.0249154         6339.83         6416.22 
      0.0312784          5606.5         5633.64 
      0.0375637         4885.31         4878.14 
      0.0433917          4278.7         4317.51 
      0.0492413         3895.18         3906.79 
      0.0555754         3530.63         3590.28 
      0.0619321         3348.52         3337.58 
       0.067871         3061.91         3106.02 
      0.0738098         2810.74         2852.51 
      0.0800417         2511.53         2565.28 
      0.0862327         2254.76         2281.97 
      0.0921407         2034.41         2039.66 
      0.0982031         1824.19         1837.32 
       0.104506          1701.8         1681.01 
       0.110769         1586.34         1570.92 
       0.116806         1492.51         1490.98 
       0.122832         1428.83         1419.54 
       0.129052         1332.12         1341.04 
       0.135211         1249.14         1252.99 
       0.141259          1173.1         1159.15 
       0.147318         1089.99         1065.34 
       0.153489         996.883         978.435 
       0.159709         934.473         905.575 
       0.165845         892.367         849.646 
       0.171974         840.822         807.114 
       0.178125          805.68         772.865 
       0.184229         776.134         741.836 
        0.19034         727.305         709.565 
       0.196428         707.387         674.346 
       0.202534         679.148          636.46 
       0.208729         639.292         597.619 
       0.214876         601.009         561.357 
       0.220989         579.683         529.577 
       0.227147         547.106         502.708 
        0.23329         525.706           480.6 
       0.239377          513.01          462.02 
       0.245482         481.821         445.082 
       0.251667         475.227         428.207 
       0.257832         458.295         410.844 
       0.263955         440.816         392.982 
       0.270079         423.846         374.967 
        0.27624          415.32         357.472 
       0.282372          397.97          341.36 
        0.28843         384.322         327.105 
       0.294538         367.853         314.427 
       0.300721         363.759         303.021 
        0.30691         347.368          292.57 
       0.313033         339.216         282.697 
       0.319153         325.979          272.97 
       0.325316         318.014          263.17 
        0.33145         307.418         253.485 
       0.337538         302.607         244.105 
       0.343633         292.341         235.157 
       0.349808         283.198         226.699 
       0.355968         278.408         218.918 
       0.362074         271.048         211.819 
       0.368217          263.88          205.16 
       0.374374         255.449         198.837 
       0.380519         250.877         192.744 
       0.386598         244.506         186.852 
       0.392688         241.131         181.078 
        0.39888         234.741         175.352 
       0.405048         229.456         169.853 
       0.411186         224.452         164.635 
       0.417313         219.626         159.698 
       0.423458         215.182         155.025 
       0.429607         210.123         150.604 
       0.435692         203.769         146.433 
       0.441815         202.374         142.401 
       0.447964         198.934         138.489 
       0.454126           190.5         134.681 
       0.460267         188.439         130.996 
       0.466387         185.768         127.442 
        0.47254         182.041         123.999 
       0.478662         180.255         120.707 
       0.484765         175.279         117.563 
       0.490885         172.515         114.546 
       0.497035         170.323         111.637 
       0.503198         165.737          108.83 
       0.509342         163.148         106.128 
       0.515458         160.903         103.525 
       0.521598         158.775         100.993 
       0.527764         156.309         98.5273 
       0.533884         153.795         96.1571 
           0.54         151.283         93.8681 
       0.546137         150.092         91.6509 
       0.552299         147.653         89.5029 
       0.558452         144.682          87.432 
       0.564573         142.135         85.4404 
       0.570708         140.243         83.5088 
       0.576825         138.321         81.6436 
       0.582926         135.947           79.84 
       0.589034         133.669         78.0871 
       0.595184         132.266         76.3738 
       0.601379         130.875         74.6996 
       0.607522         127.751         73.0896 
       0.613639         127.534         71.5356 
       0.619772         124.629         70.0253 
       0.625918         123.464         68.5576 
       0.632068          122.08         67.1323 
       0.638161         120.761         65.7608 
         0.6443         119.109          64.418 
       0.650464         117.722         63.1078 
       0.656582         116.297         61.8436 
       0.662703         114.236         60.6141 
       0.668861         113.048         59.4114 
       0.675024          111.76          58.241 
       0.681124         110.577         57.1145 
       0.687237         108.648          56.016 
       0.693381         107.484         54.9418 
       0.699536         106.281         53.8943 
       0.705665         106.729          52.879 
       0.711789         103.846         51.8912 
       0.717957          103.34         50.9222 
        0.72409         101.881         49.9837 
       0.730186           100.2         49.0749 
       0.736317         100.019          48.184 
       0.742472         98.8856         47.3123 
       0.748622         98.0431         46.4632 
        0.75476         96.9832          45.637 
       0.760888         95.6769         44.8324 
       0.767043         94.8021         44.0443 
       0.773185         93.7488          43.277 
       0.779291         93.0106         42.5326 
       0.785407         92.2434         41.8048 
       0.791564         91.1164         41.0897 
       0.797719         89.8729         40.3918 
       0.803834         89.5526         39.7148 
       0.809972         88.0576         39.0511 
       0.816124         87.5159         38.4013 
       0.822261         86.8541         37.7682 
       0.828378         86.0807         37.1515 
       0.834502         85.2635         36.5481 
       0.840667         84.5133         35.9545 
       0.846816          83.533         35.3758 
       0.852925         82.7914         34.8137 
       0.859047         81.7657         34.2628 
       0.865192         81.4775         33.7222 
       0.871341         80.8997          33.193 
       0.877463         79.5947         32.6776 
       0.883569         79.1365         32.1747 
       0.889708         78.7325         31.6799 
       0.895864         78.0172         31.1943 
       0.902008         77.3592         30.7201 
       0.908149         76.8282         30.2561 
       0.914301         76.0961          29.801 
       0.920448         75.4787         29.3559 
       0.926574         74.8841         28.9215 
       0.932687         74.4533         28.4969 
       0.938823         73.3247         28.0794 
       0.944975         73.1282         27.6694 
       0.951105         72.4291         27.2692 
       0.957225         71.5385         26.8776 
       0.963368         71.4136         26.4925 
       0.969511         70.9328          26.115 
       0.975621         70.4387          25.747 
       0.981748         69.6817         25.3852 
       0.987916         69.2733         25.0282 
        0.99406         68.8866         24.6794 
        1.00019          68.014          24.338 
        1.00632         67.7839         24.0035 
        1.01246         67.1538         23.6748 
        1.01859         66.3389         23.3529 
        1.02471         66.5953         23.0374 
        1.03085         65.8059         22.7267 
        1.03698         65.2294         22.4224 
        1.04314         64.5969         22.1225 
        1.04929         64.3593         21.8288 
        1.05541         63.7023         21.5417 
        1.06154         63.6089         21.2591 
        1.06769         63.0216         20.9812 
        1.07382         62.7094         20.7092 
        1.07993         62.4447         20.4427 
        1.08607         61.7886         20.1798 
        1.09222         61.5377         19.9213 
        1.09836         61.0776         19.6677 
        1.10449         60.6451         19.4189 
        1.11063         60.0349         19.1741 
        1.11677         59.7324         18.9336 
         1.1229          59.475         18.6978 
        1.12903         58.6509         18.4658 
        1.13518         58.7814         18.2376 
        1.14131         58.4943         18.0134 
        1.14745         57.7123         17.7931 
        1.15359         57.6294         17.5765 
        1.15973         57.0291         17.3635 
        1.16584         56.6836          17.155 
        1.17197         56.4572         16.9496 
        1.17811         56.1137          16.747 
        1.18424         55.5451         16.5484 
        1.19038         55.4465         16.3524 
        1.19652         55.1645         16.1597 
        1.20267         54.7462         15.9701 
        1.20881          54.388         15.7836 
        1.21495         53.9789         15.6005 
        1.22108         53.6684         15.4203 
         1.2272         53.1636         15.2434 
        1.23334         53.0057         15.0688 
        1.23949         52.8715         14.8967 
        1.24562         52.4952         14.7277 
        1.25174         52.2421         14.5616 
        1.25789           51.92         14.3975 
        1.26402         51.5107         14.2364 
        1.27014         51.0943         14.0781 
        1.27628         50.9601         13.9217 
        1.28244         50.5528         13.7675 
        1.28858         50.3887         13.6158 
        1.29471         50.1907         13.4667 
        1.30084         49.8855           13.32 
        1.30697         49.4707         13.1754 
        1.31312         49.1102         13.0326 
        1.31925         49.0424         12.8925 
        1.32537         48.7627         12.7546 
        1.33151          48.393         12.6182 
        1.33765          48.334         12.4839 
        1.34378         48.0276         12.3518 
        1.34992         47.4629         12.2216 
        1.35606         47.2649         12.0929 
         1.3622          47.017         11.9664 
        1.36833         46.8267          11.842 
        1.37445         46.7521         11.7194 
        1.38059         46.4718         11.5983 
        1.38675         46.0984         11.4785 
        1.39288         45.9298          11.361 
        1.39901         45.5702         11.2451 
        1.40515         45.3834         11.1306 
         1.4113         45.2705         11.0178 
        1.41742         44.8188          10.907 
        1.42355         44.7012         10.7975 
         1.4297         44.4063         10.6892 
        1.43585         44.3379         10.5824 
        1.44198         44.0012         10.4775 
        1.44809         43.7882         10.3742 
        1.45423         43.6505          10.272 
        1.46036         43.4281         10.1713 
        1.46649         43.1274          10.072 
        1.47263         42.9362         9.97386 
        1.47877         42.8065         9.87713 
        1.48491         42.5749         9.78154 
        1.49104         42.3382         9.68743 
        1.49718          41.965         9.59449 
        1.50333          41.897         9.50263 
        1.50947         41.6771         9.41217 
         1.5156         41.4285         9.32303 
        1.52172         41.1952         9.23505 
        1.52787          41.195         9.14804 
          1.534         40.8417         9.06226 
        1.54013         40.6026         8.97767 
        1.54627         40.5379         8.89402 
        1.55241         40.2863         8.81143 
        1.55855         40.0453            8.73 
        1.56467         39.7765         8.64984 
         1.5708         39.7486         8.57046 
        1.57695         39.3987         8.49197 
        1.58308         39.4259         8.41464 
        1.58922         39.2163         8.33824 
        1.59535         38.9317         8.26281 
         1.6015         38.7348         8.18822 
        1.60764         38.6217         8.11459 
        1.61376         38.4189         8.04208 
        1.61989         38.0909          7.9704 
        1.62604         38.0626         7.89944 
        1.63218         37.8045          7.8294 
        1.63831          37.678         7.76037 
        1.64444         37.5395         7.69215 
        1.65059         37.2166          7.6246 
        1.65673          37.094         7.55793 
        1.66285         36.9647         7.49226 
        1.66898         36.7397         7.42735 
        1.67512         36.6268         7.36308 
        1.68127         36.3577         7.29953 
         1.6874         36.2849         7.23687 
        1.69353         36.0877         7.17499 
        1.69967         35.9331         7.11369 
        1.70581         35.7995         7.05314 
        1.71193         35.5911         6.99353 
        1.71806         35.4215         6.93448 
        1.72421         35.2094           6.876 
        1.73035         35.0874         6.81827 
        1.73649         34.9503         6.76122 
        1.74262         34.7434         6.70487 
        1.74876         34.7372         6.64913 
        1.75489         34.4566         6.59414 
        1.76101          34.302         6.53979 
        1.76715         34.1549         6.48598 
        1.77329         34.0365         6.43271 
        1.77943         33.8878         6.38003 
        1.78557         33.7155         6.32801 
        1.79171         33.5649         6.27657 
        1.79785         33.4109         6.22569 
        1.80399         33.2626         6.17539 
        1.81012         33.1906         6.12572 
        1.81625         32.9803         6.07661 
        1.82239         32.9029         6.02798 
        1.82853         32.6182          5.9799 
        1.83466         32.5032          5.9324 
        1.84078         32.2871         5.88547 
        1.84692         32.2601         5.83897 
        1.85306         32.0762         5.79292 
         1.8592         31.9362         5.74745 
        1.86533         31.7521         5.70249 
        1.87147         31.6599         5.65796 
        1.87761         31.6309         5.61389 
        1.88375         31.4139         5.57034 
        1.88988         31.3434         5.52731 
        1.89601         31.1151          5.4847 
        1.90215         31.0479         5.44252 
        1.90829         30.9473          5.4008 
        1.91442         30.7242         5.35952 
        1.92056          30.666         5.31871 
         1.9267         30.4744         5.27829 
        1.93284         30.3233         5.23826 
        1.93897         30.2498         5.19873 
        1.94509         30.1107         5.15969 
        1.95123         29.9386         5.12096 
        1.95737         29.8386          5.0826 
        1.96349         29.6998         5.04473 
        1.96964         29.5285         5.00714 
        1.97578         29.5031         4.96992 
        1.98192         29.2882         4.93316 
        1.98805         29.2256         4.89677 
        1.99419          29.059         4.86074 
        2.00033         28.8947         4.82506 
        2.00647         28.7999         4.78975 
         2.0126         28.6461         4.75486 
        2.01874         28.5961         4.72026 
        2.02488         28.5675         4.68597 
        2.03101         28.3487          4.6521 
        2.03714         28.2036         4.61859 
        2.04328         28.0773         4.58537 
        2.04941         28.0005         4.55251 
        2.05554         27.8952            4.52 
        2.06167         27.7572         4.48776 
        2.06781         27.6493         4.45583 
        2.07396         27.5305         4.42417 
        2.08009         27.4792         4.39288 
        2.08622         27.3202         4.36192 
        2.09237         27.2241         4.33121 
        2.09851         27.0813         4.30078 
        2.10464         27.0188          4.2707 
        2.11077         26.8082         4.24094 
        2.11691         26.8038         4.21141 
        2.12305         26.6488         4.18215 
        2.12918         26.6008         4.15325 
        2.13531         26.4696         4.12462 
        2.14145         26.3757         4.09619 
         2.1476         26.2015           4.068 
        2.15372         26.1214         4.04021 
        2.15985         25.9999         4.01266 
        2.16599         25.9191         3.98529 
        2.17213         25.8402         3.95821 
        2.17827         25.6486         3.93138 
         2.1844         25.5504         3.90483 
        2.19054         25.4769         3.87852 
        2.19666         25.3887         3.85248 
         2.2028         25.3183         3.82667 
        2.20893         25.1737         3.80108 
        2.21508         25.0878         3.77569 
        2.22122         24.9228         3.75053 
        2.22736         24.8996         3.72565 
        2.23349         24.7852         3.70101 
        2.23962         24.6684         3.67657 
        2.24577          24.534         3.65234 
         2.2519         24.4672         3.62836 
        2.25802         24.3849         3.60463 
        2.26417         24.2841         3.58105 
        2.27031         24.2048         3.55766 
        2.27644          24.123         3.53455 
        2.28257         24.0058         3.51165 
        2.28872         23.8679         3.48891 
        2.29486         23.8042         3.46637 
        2.30099          23.704         3.44408 
        2.30712         23.6786         3.42198 
        2.31326         23.5539         3.40004 
         2.3194         23.4196          3.3783 
        2.32553         23.3356         3.35679 
        2.33166         23.2183         3.33547 
         2.3378          23.118         3.31432 
        2.34394         23.0606         3.29334 
        2.35007         22.9586         3.27257 
        2.35619         22.8328         3.25201 
        2.36233         22.7872         3.23158 
        2.36848         22.6562         3.21128 
        2.37462         22.6003          3.1912 
        2.38075         22.5101         3.17131 
        2.38689         22.4569         3.15157 
        2.39303         22.3082         3.13201 
        2.39916         22.2443         3.11263 
        2.40529         22.1372         3.09342 
        2.41143         22.0964         3.07436 
        2.41757         21.9876         3.05545 
         2.4237         21.8872         3.03674 
        2.42983         21.8208         3.01819 
        2.43598         21.7373         2.99974 
        2.44211         21.6196         2.98148 
        2.44823         21.5275         2.96341 
        2.45437         21.4651         2.94544 
        2.46052         21.3943         2.92761 
        2.46665         21.3446         2.90995 
        2.47279         21.2284         2.89245 
        2.47892         21.1554         2.87509 
        2.48507         21.0634         2.85784 
         2.4912         20.9946         2.84078 
