# k  (h/Mpc)    P(k)  (Mpc/h)^3    P_linear(k)  (Mpc/h)^3
     0.00783031         4958.65         4992.24 
       0.013688         6442.93         6562.62 
       0.019231          6914.2         6983.74 
      0.0249154         6759.25         6761.99 
      0.0312784         6088.31         6130.81 
      0.0375637         5354.22         5418.07 
      0.0433917         4818.11         4835.79 
      0.0492413         4337.13         4381.78 
      0.0555754         4010.85         4027.82 
      0.0619321         3670.03         3766.89 
       0.067871         3500.81         3554.78 
      0.0738098         3293.57         3333.46 
      0.0800417          3043.6         3072.49 
      0.0862327         2752.91         2790.18 
      0.0921407         2490.93         2520.58 
      0.0982031         2263.65         2268.51 
       0.104506          2027.8         2051.93 
       0.110769         1873.67         1889.11 
       0.116806         1788.09         1775.83 
       0.122832         1683.84         1692.11 
       0.129052         1615.42         1619.52 
       0.135211         1559.36         1546.46 
       0.141259          1462.4         1464.93 
       0.147318         1355.97         1372.36 
       0.153489         1272.19         1272.04 
       0.159709          1197.8         1173.38 
       0.165845         1091.44         1086.46 
       0.171974         1053.68         1014.82 
       0.178125         1005.25         958.995 
       0.184229         941.029         916.836 
        0.19034         921.211         883.016 
       0.196428         892.611         852.325 
       0.202534         840.642          820.19 
       0.208729         822.236         783.828 
       0.214876         789.534         744.049 
       0.220989         735.832         702.768 
       0.227147         716.134         662.282 
        0.23329          686.23         625.575 
       0.239377         667.679         594.375 
       0.245482         634.089         568.525 
       0.251667         609.444         547.038 
       0.257832         603.196         528.691 
       0.263955         572.436         511.717 
       0.270079         554.535         494.544 
        0.27624         531.396         476.256 
       0.282372         518.474         457.041 
        0.28843         513.733         437.623 
       0.294538         488.188          418.47 
       0.300721         470.225         400.385 
        0.30691         462.515         384.146 
       0.313033         443.344          370.09 
       0.319153         435.768         357.777 
       0.325316         424.672         346.658 
        0.33145         414.823         336.265 
       0.337538         401.253         326.133 
       0.343633         389.262         315.867 
       0.349808         378.987         305.287 
       0.355968         370.792          294.69 
       0.362074         361.639         284.401 
       0.368217         356.389         274.551 
       0.374374         348.647          265.36 
       0.380519         334.674         256.968 
       0.386598         329.424         249.369 
       0.392688         322.028         242.319 
        0.39888         314.626         235.551 
       0.405048         309.123         229.021 
       0.411186           305.9         222.618 
       0.417313         299.757         216.283 
       0.423458         291.907         209.989 
       0.429607         285.971         203.836 
       0.435692         280.629          197.97 
       0.441815         275.153         192.346 
       0.447964         267.919         187.021 
       0.454126         263.696         182.012 
       0.460267         260.894         177.292 
       0.466387         255.971         172.807 
        0.47254         252.992         168.464 
       0.478662         245.423         164.259 
       0.484765         242.571         160.147 
       0.490885         238.992         156.112 
       0.497035          236.53         152.159 
       0.503198          232.94         148.317 
       0.509342         226.843         144.623 
       0.515458         224.667           141.1 
       0.521598         219.552         137.721 
       0.527764         217.165         134.472 
       0.533884          216.63         131.369 
           0.54         211.401         128.376 
       0.546137         206.766         125.465 
       0.552299         205.194         122.621 
       0.558452         201.642          119.85 
       0.564573          200.57         117.163 
       0.570708         195.886         114.545 
       0.576825         193.399         112.017 
       0.582926          191.39          109.58 
       0.589034          188.86         107.221 
       0.595184         187.313         104.924 
       0.601379         183.012         102.688 
       0.607522         180.379         100.541 
       0.613639         178.929         98.4672 
       0.619772         176.844          96.446 
       0.625918         175.444         94.4731 
       0.632068          171.79         92.5487 
       0.638161         169.648         90.6917 
         0.6443         169.017         88.8717 
       0.650464         166.016         87.0969 
       0.656582         165.218         85.3873 
       0.662703          163.46         83.7267 
       0.668861         160.249         82.1034 
       0.675024         160.327         80.5236 
       0.681124          157.76         79.0019 
       0.687237          155.22         77.5165 
       0.693381         154.583         76.0622 
       0.699536         152.596         74.6427 
       0.705665         150.512         73.2658 
       0.711789         148.802         71.9252 
       0.717957         147.287         70.6093 
        0.72409         146.441         69.3341 
       0.730186         145.602         68.0987 
       0.736317         143.068         66.8871 
       0.742472         141.515         65.7011 
       0.748622         139.455         64.5456 
        0.75476         139.319          63.421 
       0.760888         138.299         62.3254 
       0.767043         136.009         61.2518 
       0.773185         134.529         60.2062 
       0.779291         133.105         59.1914 
       0.785407          131.66         58.1989 
       0.791564         131.341         57.2231 
       0.797719         129.911         56.2704 
       0.803834         128.978         55.3458 
       0.809972         128.344         54.4389 
       0.816124         126.753         53.5506 
       0.822261          125.26         52.6848 
       0.828378         125.051          51.841 
       0.834502         122.991         51.0153 
       0.840667         122.541         50.2024 
       0.846816         121.482         49.4098 
       0.852925         120.242         48.6395 
       0.859047         119.563         47.8843 
       0.865192         118.182         47.1429 
       0.871341         116.948         46.4169 
       0.877463         116.302         45.7097 
       0.883569         116.016         45.0192 
       0.889708         115.064         44.3397 
       0.895864         113.952         43.6727 
       0.902008         113.058         43.0209 
       0.908149         111.689         42.3831 
       0.914301          111.59         41.7573 
       0.920448         110.902         41.1449 
       0.926574         109.001         40.5471 
       0.932687         108.745         39.9626 
       0.938823          107.85         39.3877 
       0.944975         106.667         38.8229 
       0.951105         105.902         38.2714 
       0.957225         105.909         37.7317 
       0.963368         104.672         37.2007 
       0.969511         103.773           36.68 
       0.975621         103.091         36.1722 
       0.981748         102.175         35.6729 
       0.987916         101.486         35.1799 
        0.99406         101.081         34.6983 
        1.00019         99.9457         34.2267 
        1.00632         99.4234         33.7645 
        1.01246         98.7138         33.3101 
        1.01859         98.3186          32.865 
        1.02471         97.3014         32.4287 
        1.03085         96.6014         31.9989 
        1.03698         96.0686         31.5779 
        1.04314         95.4118         31.1627 
        1.04929         94.9226         30.7561 
        1.05541         94.2804         30.3585 
        1.06154         93.7536          29.967 
        1.06769         92.7484         29.5819 
        1.07382         92.1517         29.2049 
        1.07993         91.8318         28.8353 
        1.08607         91.0321         28.4708 
        1.09222          90.802         28.1122 
        1.09836         89.8895         27.7603 
        1.10449         89.4279         27.4149 
        1.11063         88.7168         27.0751 
        1.11677         88.3974         26.7412 
         1.1229         87.6008         26.4136 
        1.12903         87.4285         26.0913 
        1.13518         87.0696         25.7741 
        1.14131          86.279         25.4625 
        1.14745         85.4933         25.1562 
        1.15359         84.7454          24.855 
        1.15973         84.6357         24.5586 
        1.16584         84.0499         24.2685 
        1.17197         83.2711         23.9826 
        1.17811         82.9255         23.7006 
        1.18424         82.1131          23.424 
        1.19038         82.0778          23.151 
        1.19652         81.6318         22.8825 
        1.20267          80.988         22.6184 
        1.20881         80.4545         22.3585 
        1.21495         80.1531         22.1031 
        1.22108          79.703         21.8518 
         1.2272         79.0614         21.6051 
        1.23334         78.6968         21.3617 
        1.23949         78.2559         21.1214 
        1.24562         77.6495         20.8856 
        1.25174         77.2017         20.6537 
        1.25789         77.2943         20.4247 
        1.26402         76.5345         20.1996 
        1.27014         76.1299         19.9785 
        1.27628         75.4805         19.7601 
        1.28244         75.2505         19.5446 
        1.28858         74.8372         19.3326 
        1.29471         74.4889         19.1242 
        1.30084         73.8448         18.9191 
        1.30697         73.8181         18.7168 
        1.31312         73.1161         18.5172 
        1.31925         72.6828         18.3211 
        1.32537         72.3419         18.1281 
        1.33151         72.0282         17.9372 
        1.33765         71.5642         17.7492 
        1.34378          71.356         17.5642 
        1.34992         70.8551         17.3818 
        1.35606         70.4106         17.2017 
         1.3622         70.0138         17.0244 
        1.36833         69.5877         16.8501 
        1.37445         69.0827         16.6783 
        1.38059         68.9713         16.5084 
        1.38675         68.2503         16.3405 
        1.39288          68.255         16.1757 
        1.39901         67.6917         16.0132 
        1.40515         67.4354         15.8526 
         1.4113         67.2895         15.6942 
        1.41742         66.8757         15.5387 
        1.42355         66.3183          15.385 
         1.4297         65.9823          15.233 
        1.43585         65.5493          15.083 
        1.44198         65.2083         14.9357 
        1.44809         64.8929         14.7907 
        1.45423         64.6325          14.647 
        1.46036         64.2506         14.5056 
        1.46649         64.1321          14.366 
        1.47263           63.66         14.2281 
        1.47877         63.4223         14.0921 
        1.48491         63.1509         13.9577 
        1.49104         62.6239         13.8253 
        1.49718         62.3582         13.6946 
        1.50333         62.1472         13.5654 
        1.50947         61.7089         13.4381 
         1.5156         61.4735         13.3127 
        1.52172         61.0463         13.1888 
        1.52787          60.745         13.0663 
          1.534         60.5394         12.9456 
        1.54013         60.2921         12.8265 
        1.54627         59.7733         12.7086 
        1.55241         59.4916         12.5923 
        1.55855         59.3742         12.4776 
        1.56467         58.9581         12.3646 
         1.5708         58.7848         12.2528 
        1.57695         58.4584         12.1421 
        1.58308         58.0136         12.0331 
        1.58922         57.8016         11.9254 
        1.59535         57.6256          11.819 
         1.6015         57.5048         11.7139 
        1.60764         57.1197           11.61 
        1.61376         56.7511         11.5077 
        1.61989         56.4279         11.4066 
        1.62604         56.2055         11.3064 
        1.63218         55.9163         11.2076 
        1.63831         55.7944         11.1101 
        1.64444           55.39         11.0138 
        1.65059         55.2235         10.9184 
        1.65673         54.7939         10.8243 
        1.66285         54.7344         10.7315 
        1.66898         54.1723         10.6398 
        1.67512         54.1329          10.549 
        1.68127         53.8268         10.4592 
         1.6874          53.531         10.3707 
        1.69353         53.3638         10.2832 
        1.69967         53.1774         10.1965 
        1.70581         52.7189         10.1109 
        1.71193         52.5162         10.0266 
        1.71806         52.3319         9.94312 
        1.72421          52.098         9.86041 
        1.73035         51.8129         9.77874 
        1.73649         51.4812         9.69802 
        1.74262         51.1641         9.61828 
        1.74876         50.9655         9.53939 
        1.75489         50.7561         9.46156 
        1.76101         50.5584         9.38462 
        1.76715         50.4391         9.30844 
        1.77329         49.9902         9.23302 
        1.77943              50          9.1584 
        1.78557         49.6923         9.08473 
        1.79171         49.4638         9.01186 
        1.79785         49.1811         8.93978 
        1.80399         48.9698         8.86851 
        1.81012         48.7847         8.79812 
        1.81625         48.4128         8.72853 
        1.82239          48.235          8.6596 
        1.82853         48.1217         8.59145 
        1.83466         47.8043          8.5241 
        1.84078         47.5781         8.45755 
        1.84692         47.3279         8.39161 
        1.85306         47.1006          8.3263 
         1.8592         46.9753         8.26179 
        1.86533         46.7471         8.19801 
        1.87147         46.5089         8.13483 
        1.87761         46.2132          8.0723 
        1.88375         46.1668          8.0105 
        1.88988         45.8886         7.94942 
        1.89601         45.6195         7.88895 
        1.90215         45.4885         7.82906 
        1.90829         45.2338         7.76983 
        1.91442         45.0163         7.71121 
        1.92056          44.806         7.65326 
         1.9267         44.6764         7.59584 
        1.93284         44.3921         7.53898 
        1.93897         44.2457         7.48282 
        1.94509         43.9958         7.42736 
        1.95123         43.8305         7.37232 
        1.95737         43.5577          7.3178 
        1.96349         43.3968         7.26398 
        1.96964         43.2843         7.21055 
        1.97578         43.0388         7.15764 
        1.98192          42.828         7.10537 
        1.98805         42.5826         7.05362 
        1.99419         42.5003         7.00238 
        2.00033         42.2799         6.95164 
        2.00647         42.1172         6.90141 
         2.0126         41.8701         6.85177 
        2.01874         41.6226         6.80254 
        2.02488         41.5229         6.75376 
        2.03101         41.2585         6.70555 
        2.03714         41.1158         6.65786 
        2.04328          40.969         6.61058 
        2.04941         40.7308          6.5638 
        2.05554         40.6204         6.51751 
        2.06167         40.3945         6.47161 
        2.06781         40.2428         6.42615 
        2.07396         40.0966         6.38106 
        2.08009         39.9042         6.33648 
        2.08622         39.6725         6.29239 
        2.09237         39.5476         6.24863 
        2.09851         39.2894         6.20528 
        2.10464         39.0871         6.16242 
        2.11077         39.0225         6.12002 
        2.11691         38.7963         6.07792 
        2.12305         38.6292         6.03622 
        2.12918         38.4458         5.99502 
        2.13531          38.292          5.9542 
        2.14145         38.1504         5.91367 
         2.1476         37.8977         5.87347 
        2.15372          37.794         5.83385 
        2.15985         37.5961         5.79456 
        2.16599         37.4234         5.75552 
        2.17213         37.2921         5.71688 
        2.17827         37.0866         5.67862 
         2.1844          36.933         5.64073 
        2.19054         36.8055         5.60318 
        2.19666         36.5819         5.56603 
         2.2028         36.4972         5.52919 
        2.20893         36.2772         5.49266 
        2.21508         36.1621         5.45643 
        2.22122         35.9618         5.42051 
        2.22736         35.7811         5.38499 
        2.23349         35.6203          5.3498 
        2.23962         35.5531         5.31491 
        2.24577         35.3661          5.2803 
         2.2519         35.2041         5.24605 
        2.25802         35.0307         5.21216 
        2.26417         34.8459         5.17848 
        2.27031         34.7855         5.14506 
        2.27644         34.6598         5.11204 
        2.28257          34.445         5.07932 
        2.28872         34.3238         5.04682 
        2.29486         34.1346         5.01461 
        2.30099         33.9514         4.98276 
        2.30712         33.8849         4.95116 
        2.31326         33.6986         4.91979 
         2.3194         33.5963         4.88871 
        2.32553         33.4153         4.85796 
        2.33166         33.2588         4.82748 
         2.3378         33.2044         4.79723 
        2.34394         32.9734         4.76722 
        2.35007          32.891         4.73752 
        2.35619         32.7182         4.70811 
        2.36233         32.5736         4.67887 
        2.36848         32.4215         4.64983 
        2.37462          32.319          4.6211 
        2.38075         32.1525         4.59264 
        2.38689         31.9945          4.5644 
        2.39303         31.9777          4.5364 
        2.39916         31.7084         4.50866 
        2.40529          31.534         4.48117 
        2.41143         31.5083         4.45388 
        2.41757         31.3112         4.42681 
         2.4237         31.1923         4.40001 
        2.42983         31.0804         4.37345 
        2.43598         30.9674         4.34703 
        2.44211           30.83         4.32087 
        2.44823         30.6494         4.29499 
        2.45437         30.5862         4.26926 
        2.46052         30.4136         4.24371 
        2.46665         30.2774         4.21842 
        2.47279         30.0916         4.19335 
        2.47892         30.0426         4.16846 
        2.48507         29.8916         4.14375 
         2.4912         29.8228          4.1193 
