# k  (h/Mpc)    P(k)  (Mpc/h)^3    P_linear(k)  (Mpc/h)^3
     0.00783031         2986.97         3015.25 
       0.013688         3597.94          3654.1 
       0.019231         3596.27          3622.7 
      0.0249154         3284.76         3279.36 
      0.0312784         2785.08         2789.33 
      0.0375637         2348.73         2359.55 
      0.0433917         2066.89         2063.53 
      0.0492413         1854.83         1859.92 
      0.0555754         1712.39         1708.56 
      0.0619321         1563.05         1583.84 
       0.067871         1455.54         1461.74 
      0.0738098         1322.47         1324.04 
      0.0800417         1174.04         1170.26 
      0.0862327         1026.25         1025.26 
      0.0921407         910.863          908.65 
      0.0982031         825.786         818.009 
       0.104506         752.284          753.02 
       0.110769         709.546         709.143 
       0.116806         682.043         675.491 
       0.122832         641.779          641.13 
       0.129052         603.337         599.616 
       0.135211         561.297         552.512 
       0.141259         510.587         504.453 
       0.147318         462.989          459.65 
       0.153489         428.165         421.458 
       0.159709         402.422         392.074 
       0.165845         374.569         370.961 
       0.171974          365.43         354.943 
       0.178125         350.513         340.718 
       0.184229          331.35         325.859 
        0.19034         318.329         309.036 
       0.196428         300.922         290.606 
       0.202534         277.983         271.737 
       0.208729          265.36         253.797 
       0.214876         251.993         238.384 
       0.220989         235.067          225.84 
       0.227147         228.971         215.693 
        0.23329          220.63         207.247 
       0.239377         214.174          199.58 
       0.245482         204.373         191.829 
       0.251667         194.855         183.545 
       0.257832         189.964         174.904 
       0.263955          178.63         166.297 
       0.270079         170.607         158.116 
        0.27624         162.434         150.668 
       0.282372         156.746         144.187 
        0.28843         154.187         138.624 
       0.294538          147.61         133.639 
       0.300721         141.512         128.953 
        0.30691          138.72         124.377 
       0.313033         132.957         119.836 
       0.319153         130.132         115.271 
       0.325316         124.424         110.734 
        0.33145         120.022         106.398 
       0.337538         115.982         102.375 
       0.343633         112.458         98.6799 
       0.349808         108.718         95.2621 
       0.355968         105.569          92.124 
       0.362074         103.485         89.1961 
       0.368217         100.626         86.3643 
       0.374374          98.229         83.5894 
       0.380519         94.0502          80.869 
       0.386598         91.4987         78.2433 
       0.392688         88.6791         75.7031 
        0.39888          86.984         73.2435 
       0.405048         84.8311         70.9358 
       0.411186         82.7524         68.7758 
       0.417313          80.473         66.7448 
       0.423458         78.2637         64.8097 
       0.429607         76.8267         62.9496 
       0.435692         75.5459         61.1691 
       0.441815         72.8013           59.43 
       0.447964         70.5486         57.7336 
       0.454126         69.2823         56.0905 
       0.460267         68.5942         54.5176 
       0.466387         66.7247         53.0178 
        0.47254         65.7866         51.5761 
       0.478662         63.5493         50.2059 
       0.484765         62.3632         48.8975 
       0.490885         60.6448         47.6347 
       0.497035         59.9214         46.4079 
       0.503198         58.5249         45.2182 
       0.509342         56.9542         44.0701 
       0.515458         56.2029         42.9642 
       0.521598         54.8448          41.891 
       0.527764         54.1137         40.8511 
       0.533884         53.1905          39.857 
           0.54         51.9743         38.9006 
       0.546137         50.4853         37.9748 
       0.552299         49.6357         37.0767 
       0.558452         48.6242          36.209 
       0.564573         48.2733         35.3728 
       0.570708         46.8995         34.5608 
       0.576825          46.368         33.7763 
       0.582926         45.6554          33.018 
       0.589034         44.7441         32.2821 
       0.595184         44.1545         31.5642 
       0.601379          42.984         30.8642 
       0.607522         42.2994         30.1921 
       0.613639         41.7635         29.5436 
       0.619772         40.9781         28.9131 
       0.625918         40.2693         28.3001 
       0.632068         39.8969         27.7044 
       0.638161          39.077          27.131 
         0.6443         38.5774         26.5697 
       0.650464         37.6369         26.0223 
       0.656582         37.4279         25.4946 
       0.662703         36.9488         24.9817 
       0.668861         36.0138         24.4804 
       0.675024         35.6712         23.9928 
       0.681124         35.3692         23.5237 
       0.687237         34.6524         23.0663 
       0.693381         34.0702         22.6191 
       0.699536         33.8498         22.1831 
       0.705665         33.2339         21.7605 
       0.711789         32.6885         21.3494 
       0.717957         32.0892         20.9463 
        0.72409         31.7791         20.5559 
       0.730186         31.6264          20.178 
       0.736317         30.9988         19.8077 
       0.742472          30.634         19.4455 
       0.748622         30.1544         19.0928 
        0.75476         29.4772         18.7498 
       0.760888         29.4292         18.4158 
       0.767043         28.9023         18.0887 
       0.773185         28.6025         17.7703 
       0.779291         28.2596         17.4615 
       0.785407         27.8382         17.1596 
       0.791564         27.7266          16.863 
       0.797719         27.1241         16.5737 
       0.803834         26.9939         16.2931 
       0.809972          26.516         16.0181 
       0.816124         26.2406         15.7489 
       0.822261         25.9533         15.4866 
       0.828378         25.7234         15.2312 
       0.834502         25.4492         14.9814 
       0.840667         25.1854         14.7357 
       0.846816         24.6656         14.4962 
       0.852925         24.5991         14.2637 
       0.859047         24.3556         14.0358 
       0.865192         23.9951         13.8122 
       0.871341         23.7085         13.5934 
       0.877463         23.4541         13.3803 
       0.883569         23.3347         13.1725 
       0.889708         22.9859          12.968 
       0.895864         22.7029         12.7674 
       0.902008         22.4589         12.5715 
       0.908149         22.2024         12.3799 
       0.914301         22.0775          12.192 
       0.920448         21.7803         12.0082 
       0.926574         21.5792         11.8289 
       0.932687         21.3275         11.6537 
       0.938823         21.0557         11.4815 
       0.944975         20.9091         11.3123 
       0.951105         20.7115         11.1472 
       0.957225         20.5731         10.9858 
       0.963368         20.2615          10.827 
       0.969511         20.0856         10.6714 
       0.975621         19.9215         10.5197 
       0.981748         19.6744         10.3706 
       0.987916         19.5569         10.2235 
        0.99406         19.3058         10.0798 
        1.00019         19.1858         9.93916 
        1.00632         19.0326         9.80138 
        1.01246         18.8434         9.66603 
        1.01859         18.6355         9.53347 
        1.02471          18.463         9.40359 
        1.03085         18.3798         9.27571 
        1.03698         18.2228          9.1505 
        1.04314         18.0005         9.02709 
        1.04929         17.7952         8.90626 
        1.05541         17.7213         8.78815 
        1.06154         17.5832         8.67191 
        1.06769           17.39         8.55762 
        1.07382         17.1962         8.44578 
        1.07993         17.0611         8.33621 
        1.08607         16.9693         8.22815 
        1.09222         16.7845         8.12191 
        1.09836         16.6597         8.01769 
        1.10449         16.5298         7.91545 
        1.11063         16.4308         7.81488 
        1.11677         16.3421         7.71612 
         1.1229         16.1685         7.61926 
        1.12903         16.0316         7.52398 
        1.13518         15.8852         7.43028 
        1.14131         15.7937         7.33824 
        1.14745         15.5793         7.24782 
        1.15359         15.4514         7.15892 
        1.15973         15.3513          7.0715 
        1.16584          15.225         6.98594 
        1.17197         15.0808         6.90168 
        1.17811         14.9949         6.81857 
        1.18424         14.8845         6.73708 
        1.19038         14.8148          6.6567 
        1.19652         14.6526         6.57768 
        1.20267         14.5841         6.49995 
        1.20881         14.4124          6.4235 
        1.21495         14.3311         6.34841 
        1.22108         14.2735         6.27454 
         1.2272         14.1491         6.20203 
        1.23334         14.0686          6.1305 
        1.23949         13.9461         6.05994 
        1.24562         13.8144          5.9907 
        1.25174         13.7643         5.92265 
        1.25789         13.6412         5.85546 
        1.26402         13.5716         5.78944 
        1.27014         13.5049          5.7246 
        1.27628         13.3412         5.66057 
        1.28244         13.3322         5.59741 
        1.28858         13.1847          5.5353 
        1.29471         13.0412         5.47428 
        1.30084         12.9637         5.41425 
        1.30697          12.939         5.35503 
        1.31312         12.8172         5.29661 
        1.31925         12.7507         5.23926 
        1.32537         12.6462         5.18282 
        1.33151         12.5686         5.12702 
        1.33765         12.4969         5.07208 
        1.34378         12.4512         5.01806 
        1.34992         12.3364         4.96479 
        1.35606         12.2189         4.91219 
         1.3622         12.1387         4.86044 
        1.36833         12.1149         4.80958 
        1.37445         12.0357         4.75947 
        1.38059         11.9524         4.70993 
        1.38675         11.8798         4.66098 
        1.39288         11.7701         4.61293 
        1.39901         11.7103         4.56558 
        1.40515         11.6362          4.5188 
         1.4113         11.5579         4.47269 
        1.41742         11.5155         4.42741 
        1.42355         11.4056         4.38268 
         1.4297         11.3527         4.33843 
        1.43585         11.2965         4.29481 
        1.44198         11.2515         4.25197 
        1.44809         11.1614         4.20979 
        1.45423         11.0849         4.16804 
        1.46036         11.0188         4.12693 
        1.46649         10.9543         4.08636 
        1.47263         10.9072         4.04632 
        1.47877         10.8306         4.00683 
        1.48491         10.7826         3.96781 
        1.49104         10.7026         3.92939 
        1.49718         10.6602         3.89146 
        1.50333         10.5971         3.85397 
        1.50947         10.5369         3.81705 
         1.5156         10.4902         3.78068 
        1.52172         10.4104         3.74478 
        1.52787         10.3786         3.70928 
          1.534         10.3105         3.67428 
        1.54013         10.2615         3.63977 
        1.54627         10.1859         3.60565 
        1.55241         10.1091         3.57196 
        1.55855         10.0892         3.53876 
        1.56467         10.0424         3.50607 
         1.5708         9.98403          3.4737 
        1.57695         9.91722         3.44169 
        1.58308         9.85192         3.41017 
        1.58922         9.81903         3.37902 
        1.59535         9.76735         3.34827 
         1.6015         9.67065         3.31787 
        1.60764         9.64093         3.28786 
        1.61376         9.61078         3.25831 
        1.61989         9.53485          3.2291 
        1.62604         9.51617         3.20018 
        1.63218         9.46883         3.17164 
        1.63831         9.39683         3.14351 
        1.64444         9.33213         3.11572 
        1.65059         9.28541          3.0882 
        1.65673         9.26895         3.06104 
        1.66285          9.2036         3.03429 
        1.66898          9.1809         3.00785 
        1.67512         9.13257         2.98168 
        1.68127         9.04774          2.9558 
         1.6874         9.03645         2.93028 
        1.69353         8.95683         2.90508 
        1.69967         8.93644         2.88012 
        1.70581         8.88702         2.85547 
        1.71193         8.85176          2.8312 
        1.71806         8.80408         2.80716 
        1.72421         8.75318         2.78336 
        1.73035         8.72345         2.75986 
        1.73649         8.69098         2.73664 
        1.74262         8.59998          2.7137 
        1.74876         8.60732         2.69102 
        1.75489         8.56098         2.66864 
        1.76101          8.4895         2.64652 
        1.76715         8.48467         2.62463 
        1.77329         8.43353         2.60296 
        1.77943         8.37058         2.58152 
        1.78557         8.37653         2.56036 
        1.79171         8.31739         2.53943 
        1.79785         8.29198         2.51874 
        1.80399         8.22619         2.49828 
        1.81012         8.20009         2.47807 
        1.81625         8.14742          2.4581 
        1.82239         8.11963         2.43832 
        1.82853         8.06632         2.41877 
        1.83466         8.01772         2.39946 
        1.84078         8.00268         2.38038 
        1.84692         7.97643         2.36147 
        1.85306         7.93876         2.34275 
         1.8592         7.91035         2.32426 
        1.86533         7.86797         2.30598 
        1.87147         7.83132         2.28788 
        1.87761         7.80464         2.26997 
        1.88375          7.7635         2.25227 
        1.88988         7.72196         2.23478 
        1.89601         7.69992         2.21747 
        1.90215         7.65303         2.20032 
        1.90829         7.62452         2.18337 
        1.91442         7.58621          2.1666 
        1.92056         7.58495         2.15001 
         1.9267         7.52853         2.13359 
        1.93284         7.51161         2.11733 
        1.93897         7.45947         2.10127 
        1.94509         7.41596         2.08541 
        1.95123         7.40946         2.06968 
        1.95737         7.38156         2.05409 
        1.96349         7.32205         2.03871 
        1.96964         7.29348         2.02345 
        1.97578         7.27749         2.00833 
        1.98192         7.24363          1.9934 
        1.98805         7.21431         1.97862 
        1.99419         7.19076         1.96399 
        2.00033         7.15316          1.9495 
        2.00647          7.1319         1.93517 
         2.0126         7.10368           1.921 
        2.01874          7.0559         1.90695 
        2.02488         7.04205         1.89303 
        2.03101         7.01134         1.87928 
        2.03714         6.96875         1.86568 
        2.04328          6.9398          1.8522 
        2.04941         6.91263         1.83886 
        2.05554         6.89613         1.82566 
        2.06167         6.87605         1.81258 
        2.06781         6.83355         1.79962 
        2.07396          6.8103         1.78677 
        2.08009         6.76704         1.77407 
        2.08622         6.77037         1.76151 
        2.09237         6.74113         1.74905 
        2.09851         6.69431          1.7367 
        2.10464         6.68245          1.7245 
        2.11077          6.6397         1.71242 
        2.11691         6.63402         1.70044 
        2.12305         6.59866         1.68857 
        2.12918         6.56796         1.67685 
        2.13531         6.54981         1.66523 
        2.14145         6.52279          1.6537 
         2.1476          6.5032         1.64227 
        2.15372         6.46944           1.631 
        2.15985         6.44944         1.61983 
        2.16599         6.43017         1.60873 
        2.17213         6.42305         1.59774 
        2.17827         6.37701         1.58687 
         2.1844         6.36275          1.5761 
        2.19054         6.34258         1.56543 
        2.19666         6.30945         1.55487 
         2.2028         6.28182          1.5444 
        2.20893         6.26607         1.53403 
        2.21508         6.24047         1.52374 
        2.22122         6.20025         1.51354 
        2.22736         6.18242         1.50345 
        2.23349         6.16224         1.49346 
        2.23962         6.14901         1.48356 
        2.24577          6.1235         1.47373 
         2.2519         6.11888         1.46401 
        2.25802         6.04936          1.4544 
        2.26417         6.05195         1.44484 
        2.27031         6.02849         1.43536 
        2.27644         6.01224           1.426 
        2.28257         5.97581         1.41672 
        2.28872         5.96337          1.4075 
        2.29486         5.94054         1.39837 
        2.30099         5.93054         1.38934 
        2.30712         5.89429         1.38038 
        2.31326         5.87682         1.37149 
         2.3194         5.85201         1.36268 
        2.32553         5.83169         1.35397 
        2.33166         5.81164         1.34533 
         2.3378         5.79463         1.33676 
        2.34394          5.7727         1.32827 
        2.35007         5.74866         1.31985 
        2.35619         5.73704         1.31152 
        2.36233         5.70463         1.30325 
        2.36848         5.69169         1.29503 
        2.37462         5.67249         1.28689 
        2.38075         5.65729         1.27884 
        2.38689         5.64277         1.27085 
        2.39303          5.6057         1.26292 
        2.39916          5.5978         1.25508 
        2.40529          5.5734          1.2473 
        2.41143         5.56031         1.23958 
        2.41757         5.53596         1.23192 
         2.4237         5.52239         1.22435 
        2.42983         5.50328         1.21683 
        2.43598         5.48813         1.20937 
        2.44211         5.46444         1.20197 
        2.44823         5.43762         1.19466 
        2.45437          5.4249         1.18738 
        2.46052         5.41467         1.18016 
        2.46665         5.39284         1.17302 
        2.47279         5.37326         1.16594 
        2.47892         5.34887         1.15891 
        2.48507         5.33606         1.15193 
         2.4912         5.31676         1.14502 
