# k  (h/Mpc)    Pcb(k)  (Mpc/h)^3    Pcb_linear(k)  (Mpc/h)^3
     0.00783031         15571.7         15664.5 
       0.013688         17370.2         17812.1 
       0.019231         16505.5         16733.9 
      0.0249154         14410.9         14323.5 
      0.0312784         11401.2           11445 
      0.0375637            9081         9169.72 
      0.0433917         7751.33         7736.41 
      0.0492413         6815.07         6842.94 
      0.0555754         6273.23          6252.7 
      0.0619321         5652.69         5797.66 
       0.067871         5276.25         5331.35 
      0.0738098         4769.78         4770.13 
      0.0800417         4158.15         4120.57 
      0.0862327         3542.93         3505.96 
      0.0921407         3096.86         3023.46 
      0.0982031         2782.32         2667.62 
       0.104506         2497.81         2436.32 
       0.110769         2368.27         2302.92 
       0.116806         2296.38         2212.19 
       0.122832         2167.26         2112.92 
       0.129052         2025.57         1974.43 
       0.135211         1905.47          1801.2 
       0.141259         1708.47         1616.59 
       0.147318         1537.41         1443.66 
       0.153489         1413.75         1300.41 
       0.159709         1342.47         1197.48 
       0.165845         1237.77         1131.91 
       0.171974         1218.33          1089.2 
       0.178125         1178.64         1053.53 
       0.184229         1095.83         1012.36 
        0.19034         1065.24         959.034 
       0.196428         1017.25         895.071 
       0.202534         933.303         826.691 
       0.208729         904.801         761.391 
       0.214876         853.447         706.996 
       0.220989         800.252         665.597 
       0.227147          779.56         635.333 
        0.23329         749.981         612.629 
       0.239377         742.527         592.725 
       0.245482         703.585         571.349 
       0.251667         675.184         546.219 
       0.257832         661.412         517.927 
       0.263955         623.008          488.54 
       0.270079         597.131         460.411 
        0.27624         570.657         435.411 
       0.282372         557.959         414.762 
        0.28843         550.296         398.256 
       0.294538         522.098         384.381 
       0.300721         508.168         371.692 
        0.30691         497.303          358.96 
       0.313033         473.884         345.624 
       0.319153         465.991         331.457 
       0.325316         456.792         316.895 
        0.33145          444.19         302.817 
       0.337538         426.728          289.94 
       0.343633          414.54         278.493 
       0.349808         403.577         268.371 
       0.355968         395.604         259.449 
       0.362074         380.614         251.288 
       0.368217         377.696         243.355 
       0.374374         370.322         235.359 
       0.380519         354.711         227.272 
       0.386598         350.323         219.272 
       0.392688         340.566         211.439 
        0.39888         332.129         203.898 
       0.405048         324.203         196.948 
       0.411186         323.101         190.599 
       0.417313         317.703          184.78 
       0.423458         309.018          179.32 
       0.429607         299.347         174.073 
       0.435692         294.896         169.008 
       0.441815         289.218         163.985 
       0.447964         282.258         159.005 
       0.454126         278.788         154.142 
       0.460267         274.074         149.493 
       0.466387         267.492         145.091 
        0.47254         264.318         140.909 
       0.478662         257.962         136.992 
       0.484765         253.911         133.292 
       0.490885         250.958         129.735 
       0.497035         245.711         126.268 
       0.503198         244.581         122.887 
       0.509342         238.815         119.606 
       0.515458         234.347         116.431 
       0.521598         230.084         113.341 
       0.527764         227.175         110.354 
       0.533884          225.07         107.517 
           0.54         221.401          104.81 
       0.546137         216.274         102.206 
       0.552299         214.604         99.6855 
       0.558452         210.928         97.2515 
       0.564573         209.838         94.9038 
       0.570708         204.994         92.6217 
       0.576825           201.8         90.4144 
       0.582926         200.269         88.2787 
       0.589034         196.539         86.2062 
       0.595184         195.029         84.1875 
       0.601379          191.88         82.2245 
       0.607522         187.226         80.3471 
       0.613639         186.511         78.5425 
       0.619772         185.213         76.7921 
       0.625918         182.193         75.0918 
       0.632068         179.251         73.4392 
       0.638161         178.294         71.8469 
         0.6443         175.626         70.2877 
       0.650464         173.058         68.7677 
       0.656582         171.241         67.3039 
       0.662703         170.384         65.8839 
       0.668861         166.528         64.4991 
       0.675024         166.073         63.1549 
       0.681124         163.682         61.8636 
       0.687237         162.472         60.6063 
       0.693381         159.451         59.3779 
       0.699536         158.819         58.1806 
       0.705665         156.947         57.0207 
       0.711789         154.625          55.893 
       0.717957         153.458         54.7878 
        0.72409         151.226         53.7187 
       0.730186         151.777         52.6847 
       0.736317         149.472         51.6728 
       0.742472         147.406         50.6842 
       0.748622         145.487         49.7227 
        0.75476         145.578         48.7886 
       0.760888         143.557           47.88 
       0.767043         141.129          46.991 
       0.773185         139.713         46.1265 
       0.779291         138.651         45.2886 
       0.785407          137.63         44.4702 
       0.791564         136.401         43.6668 
       0.797719         134.073         42.8836 
       0.803834         134.536         42.1246 
       0.809972         132.833         41.3813 
       0.816124         130.444         40.6544 
       0.822261         129.819         39.9469 
       0.828378         129.186         39.2585 
       0.834502         127.921         38.5857 
       0.840667         127.469         37.9244 
       0.846816         125.192         37.2806 
       0.852925         124.673         36.6558 
       0.859047         123.348         36.0441 
       0.865192          122.74         35.4444 
       0.871341         121.607         34.8579 
       0.877463         120.319         34.2875 
       0.883569         120.229         33.7312 
       0.889708         119.103         33.1845 
       0.895864         117.632         32.6486 
       0.902008         116.481         32.1256 
       0.908149         115.363         31.6144 
       0.914301          114.55         31.1136 
       0.920448         114.564          30.624 
       0.926574         112.664         30.1468 
       0.932687         112.533         29.6807 
       0.938823         111.626         29.2228 
       0.944975         110.968         28.7736 
       0.951105         109.739         28.3353 
       0.957225          109.02          27.907 
       0.963368          108.31         27.4861 
       0.969511         107.321         27.0739 
       0.975621         105.791         26.6723 
       0.981748         105.613         26.2779 
       0.987916         104.912         25.8889 
        0.99406         104.217         25.5093 
        1.00019         103.601         25.1381 
        1.00632         102.579         24.7745 
        1.01246         101.932         24.4176 
        1.01859         101.209         24.0683 
        1.02471         100.552         23.7263 
        1.03085         99.7561         23.3898 
        1.03698         98.9679         23.0605 
        1.04314         98.5902         22.7361 
        1.04929         98.0577         22.4187 
        1.05541         97.3828         22.1087 
        1.06154         96.3307         21.8038 
        1.06769         95.7992         21.5042 
        1.07382          95.271         21.2112 
        1.07993         94.6852         20.9243 
        1.08607         94.3229         20.6416 
        1.09222         93.3187         20.3637 
        1.09836         92.7557         20.0914 
        1.10449         92.2727         19.8243 
        1.11063         91.4468         19.5618 
        1.11677         91.1234         19.3042 
         1.1229         90.1265         19.0516 
        1.12903          89.469         18.8034 
        1.13518         88.8829         18.5593 
        1.14131         88.6964         18.3198 
        1.14745         88.0301         18.0846 
        1.15359         87.3568         17.8534 
        1.15973         86.9674         17.6263 
        1.16584         86.2934          17.404 
        1.17197         85.9093         17.1853 
        1.17811         85.2441         16.9697 
        1.18424         84.6545         16.7584 
        1.19038         84.2314         16.5501 
        1.19652         83.7773         16.3454 
        1.20267         83.1147         16.1442 
        1.20881         82.5061         15.9464 
        1.21495         82.3107         15.7522 
        1.22108         81.6781         15.5613 
         1.2272         81.4158          15.374 
        1.23334         80.9178         15.1893 
        1.23949         80.3058         15.0072 
        1.24562         79.6522         14.8286 
        1.25174         79.6885         14.6532 
        1.25789         78.8766         14.4801 
        1.26402         78.5223           14.31 
        1.27014         77.7959         14.1432 
        1.27628         77.5754         13.9784 
        1.28244         77.2825          13.816 
        1.28858         76.7114         13.6564 
        1.29471         76.2344         13.4996 
        1.30084         75.6396         13.3455 
        1.30697         75.2901         13.1935 
        1.31312         74.9867         13.0437 
        1.31925          74.292         12.8966 
        1.32537         73.9404          12.752 
        1.33151         73.9013         12.6091 
        1.33765           73.19         12.4684 
        1.34378         72.9109         12.3302 
        1.34992         72.5042          12.194 
        1.35606         72.1977         12.0595 
         1.3622         71.8472         11.9273 
        1.36833         71.2709         11.7974 
        1.37445         70.9849         11.6695 
        1.38059         70.5209         11.5431 
        1.38675         70.1372         11.4182 
        1.39288         69.6935         11.2957 
        1.39901         69.3955         11.1751 
        1.40515         68.9242         11.0559 
         1.4113         68.5599         10.9386 
        1.41742         68.3562         10.8233 
        1.42355         67.9907         10.7095 
         1.4297          67.516          10.597 
        1.43585          67.348         10.4862 
        1.44198          66.699         10.3773 
        1.44809         66.3086         10.2702 
        1.45423         66.3368         10.1642 
        1.46036         65.7636         10.0599 
        1.46649         65.3141         9.95705 
        1.47263         64.8854         9.85552 
        1.47877         64.7674         9.75545 
        1.48491         64.2803         9.65661 
        1.49104         63.9346         9.55934 
        1.49718         63.5792         9.46333 
        1.50333         63.3507          9.3685 
        1.50947         63.0974         9.27514 
         1.5156         62.7942          9.1832 
        1.52172         62.2121         9.09251 
        1.52787         62.0622         9.00285 
          1.534         61.7475         8.91451 
        1.54013         61.4591         8.82744 
        1.54627         60.9934         8.74137 
        1.55241         60.9595         8.65644 
        1.55855         60.2739         8.57275 
        1.56467         59.9452          8.4904 
         1.5708         59.7202         8.40889 
        1.57695         59.4292         8.32833 
        1.58308         59.2109         8.24901 
        1.58922          58.936         8.17066 
        1.59535         58.7975         8.09336 
         1.6015         58.2894         8.01695 
        1.60764         58.0292         7.94156 
        1.61376         57.8637         7.86735 
        1.61989         57.3654         7.79402 
        1.62604         57.2467         7.72146 
        1.63218         56.8424         7.64986 
        1.63831         56.6696         7.57934 
        1.64444         56.3685         7.50967 
        1.65059         56.0156         7.44071 
        1.65673         55.8345         7.37269 
        1.66285         55.4277         7.30571 
        1.66898         55.0596         7.23953 
        1.67512         54.8038         7.17404 
        1.68127         54.6731          7.1093 
         1.6874         54.3889          7.0455 
        1.69353         54.0914         6.98252 
        1.69967         53.8075         6.92016 
        1.70581         53.5736         6.85858 
        1.71193         53.2356         6.79799 
        1.71806         53.0828         6.73799 
        1.72421          52.773          6.6786 
        1.73035         52.4835         6.61999 
        1.73649         52.2449         6.56209 
        1.74262         51.9846         6.50494 
        1.74876         51.7781         6.44842 
        1.75489         51.5435         6.39268 
        1.76101         51.3167         6.33762 
        1.76715         50.9849         6.28314 
        1.77329         50.7469         6.22922 
        1.77943         50.5814         6.17591 
        1.78557         50.3546          6.1233 
        1.79171         49.9421          6.0713 
        1.79785         49.8302         6.01988 
        1.80399         49.6346         5.96907 
        1.81012         49.2798         5.91891 
        1.81625         49.1044         5.86935 
        1.82239         48.7354         5.82028 
        1.82853         48.6727          5.7718 
        1.83466         48.3325         5.72391 
        1.84078          48.053         5.67661 
        1.84692         48.0169         5.62977 
        1.85306          47.826          5.5834 
         1.8592         47.4955         5.53763 
        1.86533         47.2694         5.49239 
        1.87147         46.9719          5.4476 
        1.87761         46.6691         5.40329 
        1.88375         46.6228         5.35953 
        1.88988         46.3933         5.31629 
        1.89601          46.245         5.27351 
        1.90215         45.9279         5.23116 
        1.90829         45.6853         5.18929 
        1.91442         45.4167         5.14788 
        1.92056         45.2789         5.10695 
         1.9267         45.0714         5.06643 
        1.93284          44.861         5.02632 
        1.93897         44.5426         4.98672 
        1.94509         44.4431         4.94762 
        1.95123         44.1959         4.90885 
        1.95737         44.0717         4.87046 
        1.96349          43.852         4.83258 
        1.96964          43.584         4.79499 
        1.97578         43.3451         4.75779 
        1.98192         43.0865         4.72105 
        1.98805         42.8822          4.6847 
        1.99419         42.8703         4.64872 
        2.00033         42.5691         4.61311 
        2.00647          42.359         4.57787 
         2.0126         42.1985         4.54306 
        2.01874         42.0901         4.50856 
        2.02488         41.8425         4.47439 
        2.03101         41.6315         4.44063 
        2.03714         41.4202         4.40725 
        2.04328         41.2972         4.37418 
        2.04941          40.954         4.34147 
        2.05554         40.7854         4.30911 
        2.06167         40.6008         4.27704 
        2.06781         40.5239         4.24529 
        2.07396         40.2555         4.21382 
        2.08009         40.1406         4.18272 
        2.08622         39.9375         4.15197 
        2.09237         39.7394         4.12147 
        2.09851         39.4594         4.09126 
        2.10464         39.3004         4.06141 
        2.11077         39.1856         4.03189 
        2.11691         38.9811          4.0026 
        2.12305         38.7984         3.97359 
        2.12918         38.5683         3.94494 
        2.13531         38.4316         3.91658 
        2.14145         38.2388         3.88842 
         2.1476          38.241         3.86051 
        2.15372         37.9378         3.83301 
        2.15985         37.7489         3.80575 
        2.16599         37.6148         3.77867 
        2.17213         37.4556         3.75189 
        2.17827         37.2503         3.72537 
         2.1844         37.0138         3.69913 
        2.19054         37.0353         3.67314 
        2.19666         36.7936         3.64743 
         2.2028         36.5641         3.62194 
        2.20893         36.3606         3.59668 
        2.21508         36.2564         3.57163 
        2.22122         36.0084         3.54681 
        2.22736         35.8715         3.52228 
        2.23349         35.7705         3.49799 
        2.23962         35.6634         3.47391 
        2.24577         35.4367         3.45003 
         2.2519         35.2388         3.42641 
        2.25802         35.0559         3.40305 
        2.26417         34.8977         3.37985 
        2.27031          34.784         3.35683 
        2.27644         34.5878          3.3341 
        2.28257         34.4946         3.31158 
        2.28872         34.3338         3.28922 
        2.29486         34.1333         3.26707 
        2.30099         34.0041         3.24517 
        2.30712          33.838         3.22346 
        2.31326         33.7396         3.20192 
         2.3194         33.5588         3.18058 
        2.32553         33.4219         3.15947 
        2.33166         33.2888         3.13856 
         2.3378         33.0873         3.11781 
        2.34394         32.9581         3.09724 
        2.35007         32.8522         3.07688 
        2.35619         32.6546         3.05674 
        2.36233         32.5301         3.03672 
        2.36848         32.3617         3.01684 
        2.37462         32.2437         2.99718 
        2.38075         32.1096         2.97771 
        2.38689         31.9095          2.9584 
        2.39303         31.8264         2.93926 
        2.39916         31.7044         2.92031 
        2.40529         31.5402         2.90153 
        2.41143         31.4367          2.8829 
        2.41757         31.2834         2.86442 
         2.4237         31.1245         2.84614 
        2.42983         31.0032         2.82802 
        2.43598          30.849         2.81001 
        2.44211         30.6749         2.79219 
        2.44823         30.5989         2.77456 
        2.45437         30.4411         2.75703 
        2.46052          30.272         2.73964 
        2.46665         30.1665         2.72243 
        2.47279         30.0145         2.70537 
        2.47892         29.8785         2.68844 
        2.48507         29.7592         2.67165 
         2.4912            29.6         2.65503 
