# k  (h/Mpc)    Pcb(k)  (Mpc/h)^3    Pcb_linear(k)  (Mpc/h)^3
     0.00783031         1692.44         1706.21 
       0.013688         1918.65         1941.39 
       0.019231         1815.57         1824.36 
      0.0249154         1565.86         1561.79 
      0.0312784         1250.04         1248.04 
      0.0375637          999.46         999.981 
      0.0433917         846.956         843.704 
      0.0492413         746.695         746.283 
      0.0555754         684.728         681.925 
      0.0619321         627.608         632.308 
       0.067871         580.899         581.457 
      0.0738098         520.688         520.252 
      0.0800417         451.498          449.41 
      0.0862327         383.626         382.381 
      0.0921407         331.162         329.758 
      0.0982031         293.854         290.948 
       0.104506         266.078         265.722 
       0.110769         251.764         251.173 
       0.116806         243.116         241.278 
       0.122832         230.753         230.452 
       0.129052           216.5         215.347 
       0.135211         198.627         196.454 
       0.141259         177.845         176.319 
       0.147318         158.432         157.458 
       0.153489          143.52         141.834 
       0.159709         132.924         130.607 
       0.165845         124.253         123.456 
       0.171974         121.108         118.798 
       0.178125         116.777         114.907 
       0.184229         111.526         110.417 
        0.19034         106.513         104.601 
       0.196428         99.6031         97.6246 
       0.202534         91.1895         90.1665 
       0.208729         85.2341         83.0444 
       0.214876         79.8025         77.1116 
       0.220989         74.3343         72.5962 
       0.227147         71.8451         69.2954 
        0.23329          69.291          66.819 
       0.239377          67.229         64.6482 
       0.245482         64.5746         62.3167 
       0.251667         61.4202         59.5758 
       0.257832         59.1334         56.4901 
       0.263955         55.3818         53.2849 
       0.270079         52.3278         50.2168 
        0.27624         49.4518         47.4901 
       0.282372         47.3159         45.2379 
        0.28843         46.0422         43.4376 
       0.294538         44.2818         41.9243 
       0.300721         42.5088         40.5404 
        0.30691         41.4779         39.1517 
       0.313033           39.82         37.6971 
       0.319153         38.6988         36.1519 
       0.325316          36.673         34.5636 
        0.33145         35.0793         33.0282 
       0.337538         33.7471         31.6237 
       0.343633         32.6537         30.3752 
       0.349808         31.4234         29.2712 
       0.355968          30.369         28.2981 
       0.362074          29.716         27.4079 
       0.368217         28.7347         26.5427 
       0.374374         28.0067         25.6705 
       0.380519         26.8467         24.7885 
       0.386598         25.9012         23.9159 
       0.392688          24.976         23.0616 
        0.39888         24.3477         22.2392 
       0.405048         23.6422         21.4811 
       0.411186         22.8832         20.7886 
       0.417313         22.2032         20.1539 
       0.423458         21.4764         19.5584 
       0.429607         21.0746         18.9861 
       0.435692         20.6247         18.4336 
       0.441815         19.8374         17.8858 
       0.447964         19.1631         17.3426 
       0.454126         18.7771         16.8123 
       0.460267         18.4379         16.3052 
       0.466387         17.8543         15.8251 
        0.47254         17.4952         15.3689 
       0.478662          16.937         14.9417 
       0.484765         16.5238         14.5382 
       0.490885         16.0154         14.1502 
       0.497035         15.6435          13.772 
       0.503198         15.3411         13.4032 
       0.509342          14.852         13.0455 
       0.515458         14.5931         12.6991 
       0.521598         14.2436         12.3621 
       0.527764         13.9785         12.0363 
       0.533884         13.5551         11.7269 
           0.54         13.3001         11.4317 
       0.546137         12.8889         11.1476 
       0.552299         12.6364         10.8727 
       0.558452         12.3303         10.6072 
       0.564573         12.1343         10.3511 
       0.570708         11.8485         10.1022 
       0.576825         11.6222          9.8615 
       0.582926         11.3603         9.62856 
       0.589034         11.1255         9.40251 
       0.595184         10.9663         9.18232 
       0.601379         10.6558         8.96822 
       0.607522         10.4359         8.76346 
       0.613639         10.2201         8.56663 
       0.619772         10.0392         8.37572 
       0.625918          9.8252         8.19026 
       0.632068         9.68669         8.01001 
       0.638161         9.47669         7.83635 
         0.6443         9.28901         7.66628 
       0.650464          9.0629          7.5005 
       0.656582         8.97064         7.34083 
       0.662703         8.82024         7.18596 
       0.668861         8.58072         7.03492 
       0.675024         8.42682         6.88831 
       0.681124         8.40022         6.74747 
       0.687237         8.19636         6.61033 
       0.693381         7.98452         6.47635 
       0.699536         7.92034         6.34576 
       0.705665         7.75788         6.21925 
       0.711789         7.59762         6.09625 
       0.717957         7.43705         5.97571 
        0.72409         7.35154          5.8591 
       0.730186         7.29324         5.74633 
       0.736317         7.11098         5.63596 
       0.742472          7.0231         5.52813 
       0.748622         6.90338         5.42326 
        0.75476         6.72135         5.32137 
       0.760888         6.66992         5.22227 
       0.767043         6.51962         5.12531 
       0.773185         6.43378         5.03102 
       0.779291         6.38619         4.93963 
       0.785407         6.25483         4.85036 
       0.791564         6.16459         4.76274 
       0.797719         6.04349         4.67732 
       0.803834         5.98912         4.59454 
       0.809972         5.86816         4.51347 
       0.816124         5.79199         4.43418 
       0.822261         5.71155         4.35701 
       0.828378         5.62884         4.28192 
       0.834502          5.5498         4.20855 
       0.840667         5.48408         4.13642 
       0.846816         5.36266          4.0662 
       0.852925         5.31531         3.99805 
       0.859047         5.23204         3.93133 
       0.865192         5.15547         3.86592 
       0.871341         5.08416         3.80196 
       0.877463          5.0056         3.73974 
       0.883569         4.95787         3.67907 
       0.889708         4.87757         3.61944 
       0.895864         4.81143         3.56098 
       0.902008         4.73892         3.50394 
       0.908149         4.67167         3.44819 
       0.914301         4.61853         3.39356 
       0.920448         4.56571         3.34017 
       0.926574         4.52775         3.28811 
       0.932687         4.44497         3.23728 
       0.938823         4.36874         3.18734 
       0.944975         4.34444         3.13833 
       0.951105         4.25901         3.09054 
       0.957225         4.23358         3.04382 
       0.963368         4.17175         2.99791 
       0.969511         4.12057         2.95295 
       0.975621         4.06411         2.90915 
       0.981748         3.99848         2.86613 
       0.987916         3.95926         2.82371 
        0.99406          3.9242          2.7823 
        1.00019         3.87867         2.74181 
        1.00632         3.84071         2.70216 
        1.01246         3.78202         2.66323 
        1.01859         3.73847         2.62514 
        1.02471         3.67949         2.58783 
        1.03085         3.65265         2.55113 
        1.03698         3.61017         2.51521 
        1.04314         3.56709         2.47983 
        1.04929         3.52004         2.44522 
        1.05541         3.47769          2.4114 
        1.06154         3.44716         2.37814 
        1.06769         3.42437         2.34546 
        1.07382         3.36345         2.31351 
        1.07993         3.32372         2.28222 
        1.08607         3.30223         2.25138 
        1.09222         3.25511         2.22108 
        1.09836         3.24254         2.19137 
        1.10449         3.17333         2.16224 
        1.11063         3.15565         2.13361 
        1.11677         3.12534         2.10551 
         1.1229         3.08908         2.07796 
        1.12903          3.0636         2.05089 
        1.13518         3.01825         2.02427 
        1.14131         2.98749         1.99814 
        1.14745         2.95162         1.97249 
        1.15359         2.92012         1.94728 
        1.15973         2.88864          1.9225 
        1.16584         2.86721         1.89826 
        1.17197         2.83055         1.87441 
        1.17811         2.80196         1.85089 
        1.18424         2.77337         1.82785 
        1.19038         2.75079         1.80513 
        1.19652         2.72512          1.7828 
        1.20267         2.70139         1.76085 
        1.20881         2.66949         1.73928 
        1.21495         2.64427          1.7181 
        1.22108         2.61865         1.69727 
         1.2272         2.58433         1.67684 
        1.23334         2.57518          1.6567 
        1.23949         2.53919         1.63684 
        1.24562         2.52115         1.61736 
        1.25174          2.5045         1.59823 
        1.25789         2.46416         1.57934 
        1.26402         2.44623          1.5608 
        1.27014         2.42329          1.5426 
        1.27628         2.39854         1.52463 
        1.28244         2.38033         1.50691 
        1.28858         2.36173          1.4895 
        1.29471          2.3299         1.47241 
        1.30084         2.30918         1.45559 
        1.30697         2.29695         1.43902 
        1.31312         2.27238         1.42268 
        1.31925         2.25034         1.40664 
        1.32537         2.23496         1.39086 
        1.33151         2.20934         1.37528 
        1.33765         2.19153         1.35993 
        1.34378         2.17923         1.34486 
        1.34992         2.15801            1.33 
        1.35606         2.13998         1.31533 
         1.3622         2.12066         1.30091 
        1.36833         2.09693         1.28674 
        1.37445         2.07619         1.27279 
        1.38059          2.0589         1.25901 
        1.38675         2.04256         1.24539 
        1.39288         2.03334         1.23203 
        1.39901         2.00676         1.21887 
        1.40515         1.99468         1.20587 
         1.4113         1.97914         1.19307 
        1.41742         1.95892          1.1805 
        1.42355         1.94278         1.16809 
         1.4297         1.92851         1.15582 
        1.43585         1.91522         1.14373 
        1.44198         1.89607         1.13186 
        1.44809         1.88371         1.12018 
        1.45423         1.86719         1.10862 
        1.46036         1.85392         1.09724 
        1.46649         1.83342         1.08602 
        1.47263         1.82642         1.07495 
        1.47877         1.81309         1.06403 
        1.48491         1.79177         1.05325 
        1.49104         1.78019         1.04264 
        1.49718         1.76809         1.03217 
        1.50333         1.75066         1.02182 
        1.50947         1.73769         1.01164 
         1.5156         1.72604         1.00162 
        1.52172         1.71219        0.991723 
        1.52787         1.70035        0.981944 
          1.534         1.68901        0.972308 
        1.54013         1.67539        0.962812 
        1.54627         1.65931        0.953425 
        1.55241         1.64614        0.944161 
        1.55855         1.63645        0.935033 
        1.56467         1.62612        0.926051 
         1.5708         1.61192        0.917161 
        1.57695          1.5968        0.908374 
        1.58308         1.58318        0.899722 
        1.58922         1.57823        0.891177 
        1.59535          1.5627        0.882746 
         1.6015         1.55029        0.874412 
        1.60764         1.54381        0.866189 
        1.61376         1.52688        0.858094 
        1.61989         1.51589        0.850096 
        1.62604         1.50434        0.842182 
        1.63218         1.49817        0.834373 
        1.63831         1.48855        0.826681 
        1.64444         1.47497        0.819083 
        1.65059         1.46882        0.811562 
        1.65673         1.45262        0.804143 
        1.66285         1.44369        0.796837 
        1.66898         1.43389        0.789619 
        1.67512         1.42183        0.782476 
        1.68127         1.41328        0.775415 
         1.6874         1.40691        0.768456 
        1.69353         1.39361        0.761587 
        1.69967         1.38314        0.754785 
        1.70581         1.37883        0.748069 
        1.71193         1.36013         0.74146 
        1.71806         1.35758        0.734916 
        1.72421         1.35005        0.728438 
        1.73035         1.33661        0.722045 
        1.73649         1.33074        0.715731 
        1.74262         1.32087        0.709496 
        1.74876         1.31242        0.703332 
        1.75489         1.30212        0.697253 
        1.76101         1.29191        0.691248 
        1.76715         1.28759        0.685305 
        1.77329         1.27723        0.679424 
        1.77943         1.26937        0.673609 
        1.78557         1.26175        0.667871 
        1.79171          1.2538        0.662199 
        1.79785         1.24672        0.656591 
        1.80399           1.237        0.651049 
        1.81012         1.22962        0.645579 
        1.81625          1.2182        0.640173 
        1.82239         1.21347        0.634821 
        1.82853         1.20629        0.629533 
        1.83466         1.19568         0.62431 
        1.84078         1.18855        0.619151 
        1.84692         1.18113        0.614042 
        1.85306         1.17591        0.608985 
         1.8592         1.16582        0.603992 
        1.86533         1.16154        0.599058 
        1.87147         1.15427        0.594173 
        1.87761         1.14758         0.58934 
        1.88375         1.13896        0.584567 
        1.88988         1.13152        0.579851 
        1.89601         1.12361        0.575184 
        1.90215          1.1176        0.570565 
        1.90829         1.11268        0.565999 
        1.91442         1.10386        0.561482 
        1.92056         1.09963        0.557018 
         1.9267         1.09301        0.552598 
        1.93284         1.08485        0.548223 
        1.93897         1.07766        0.543904 
        1.94509          1.0707         0.53964 
        1.95123         1.06592        0.535411 
        1.95737         1.06153        0.531224 
        1.96349         1.05296        0.527092 
        1.96964          1.0497        0.522993 
        1.97578         1.04071        0.518935 
        1.98192         1.03209        0.514928 
        1.98805         1.02814        0.510962 
        1.99419         1.02165        0.507039 
        2.00033         1.01572        0.503154 
        2.00647         1.01276        0.499311 
         2.0126         1.00717        0.495514 
        2.01874        0.999581        0.491751 
        2.02488        0.994459        0.488024 
        2.03101        0.987634        0.484342 
        2.03714        0.983686        0.480701 
        2.04328        0.977917        0.477094 
        2.04941        0.971935        0.473526 
        2.05554        0.964994        0.469998 
        2.06167        0.960575          0.4665 
        2.06781        0.955236        0.463037 
        2.07396        0.950585        0.459604 
        2.08009        0.946175        0.456212 
        2.08622        0.939449        0.452858 
        2.09237        0.935924        0.449531 
        2.09851        0.929342        0.446237 
        2.10464        0.924398         0.44298 
        2.11077        0.920098        0.439761 
        2.11691        0.913854        0.436566 
        2.12305        0.909261        0.433402 
        2.12918        0.903432        0.430278 
        2.13531        0.900241        0.427184 
        2.14145        0.894939        0.424113 
         2.1476        0.887995        0.421068 
        2.15372        0.885101        0.418069 
        2.15985        0.879745        0.415095 
        2.16599        0.876101        0.412142 
        2.17213        0.871637        0.409221 
        2.17827        0.866442        0.406329 
         2.1844        0.861437        0.403467 
        2.19054        0.856596        0.400632 
        2.19666        0.853119        0.397827 
         2.2028        0.847921        0.395047 
        2.20893        0.844854        0.392292 
        2.21508        0.839604         0.38956 
        2.22122        0.835013        0.386853 
        2.22736        0.829762        0.384178 
        2.23349        0.825797        0.381528 
        2.23962         0.82407        0.378902 
        2.24577        0.818694        0.376298 
         2.2519        0.813939        0.373722 
        2.25802        0.810902        0.371174 
        2.26417        0.805753        0.368642 
        2.27031        0.802519        0.366132 
        2.27644        0.797597        0.363653 
        2.28257        0.793197        0.361196 
        2.28872        0.790746        0.358758 
        2.29486        0.785795        0.356342 
        2.30099        0.781879        0.353953 
        2.30712        0.779621        0.351586 
        2.31326        0.774389        0.349235 
         2.3194        0.769694        0.346908 
        2.32553        0.766892        0.344606 
        2.33166        0.763628        0.342325 
         2.3378        0.760508        0.340062 
        2.34394         0.75538        0.337818 
        2.35007        0.750573        0.335598 
        2.35619        0.748581        0.333401 
        2.36233        0.745136        0.331217 
        2.36848        0.741935        0.329049 
        2.37462        0.737617        0.326905 
        2.38075        0.734653        0.324781 
        2.38689        0.732332        0.322675 
        2.39303        0.727278        0.320588 
        2.39916        0.724661        0.318521 
        2.40529        0.720703        0.316472 
        2.41143        0.715815         0.31444 
        2.41757        0.713901        0.312425 
         2.4237        0.709841        0.310431 
        2.42983        0.706308        0.308455 
        2.43598        0.703777         0.30649 
        2.44211        0.700013        0.304546 
        2.44823        0.696944        0.302623 
        2.45437        0.694402        0.300712 
        2.46052        0.691722        0.298815 
        2.46665        0.688461        0.296937 
        2.47279         0.68514        0.295077 
        2.47892        0.681597        0.293231 
        2.48507        0.679601        0.291399 
         2.4912        0.675379        0.289586 
