# k  (h/Mpc)    Pcb(k)  (Mpc/h)^3    Pcb_linear(k)  (Mpc/h)^3
     0.00783031         10376.4         10516.1 
       0.013688         11773.6         11701.4 
       0.019231           10725         10685.8 
      0.0249154         8710.64         8816.29 
      0.0312784         6708.87         6715.33 
      0.0375637         5186.88         5138.27 
      0.0433917         4197.54         4203.16 
      0.0492413          3689.5         3671.49 
      0.0555754         3331.69          3373.9 
      0.0619321         3211.08         3176.91 
       0.067871         2927.47         2957.88 
      0.0738098         2632.52         2655.09 
      0.0800417          2245.9         2270.57 
      0.0862327         1896.48         1888.46 
      0.0921407         1620.97         1583.57 
      0.0982031         1388.62         1361.71 
       0.104506         1282.09         1226.83 
       0.110769          1206.9         1163.76 
       0.116806         1163.76         1135.26 
       0.122832          1132.5         1105.22 
       0.129052         1056.41         1048.78 
       0.135211         975.689         961.758 
       0.141259         891.753         857.334 
       0.147318         799.049         752.673 
       0.153489         707.033         662.979 
       0.159709         650.811          598.72 
       0.165845         617.668         560.723 
       0.171974         588.946         541.151 
       0.178125         572.592         529.913 
       0.184229         555.248         517.254 
        0.19034         520.842         496.489 
       0.196428          501.76          466.23 
       0.202534         474.551         429.445 
       0.208729          437.52          391.27 
       0.214876         405.761         357.933 
       0.220989         384.516         332.381 
       0.227147         364.991         314.728 
        0.23329         350.639         303.434 
       0.239377         343.643          295.52 
       0.245482         322.367         287.749 
       0.251667         318.587         277.762 
       0.257832         305.917         264.907 
       0.263955         291.966         249.924 
       0.270079         276.783         234.315 
        0.27624         269.099         219.714 
       0.282372         257.947          207.45 
        0.28843         247.481         197.987 
       0.294538         235.898         190.725 
       0.300721         233.042         184.884 
        0.30691         222.622         179.506 
       0.313033          217.19         173.856 
       0.319153         208.104         167.454 
       0.325316         202.751          160.33 
        0.33145         194.469         152.934 
       0.337538         190.359          145.84 
       0.343633         182.935         139.387 
       0.349808         176.453         133.771 
       0.355968          173.23         129.042 
       0.362074         168.773         125.024 
       0.368217         163.759         121.342 
       0.374374         157.726         117.711 
       0.380519         155.182         113.986 
       0.386598         150.837         110.128 
       0.392688         147.977         106.181 
        0.39888         143.955         102.234 
       0.405048         139.776         98.5034 
       0.411186         136.555         95.1049 
       0.417313          133.31         92.0568 
       0.423458         130.129          89.286 
       0.429607         127.164         86.7282 
       0.435692         122.895          84.318 
       0.441815         121.643         81.9223 
       0.447964         119.135         79.5156 
       0.454126         114.013         77.1154 
       0.460267         112.524         74.7563 
       0.466387         110.773         72.4786 
        0.47254         108.009         70.3097 
       0.478662         107.223         68.2931 
       0.484765         103.518          66.411 
       0.490885          101.76         64.6321 
       0.497035         100.306          62.932 
       0.503198         97.4569         61.2895 
       0.509342         95.7598         59.6875 
       0.515458         94.1672         58.1158 
       0.521598         92.3438         56.5717 
       0.527764         91.1132         55.0679 
       0.533884         89.7025          53.631 
           0.54         87.7404         52.2542 
       0.546137         86.8226         50.9328 
       0.552299         85.2173         49.6671 
       0.558452         83.5108         48.4595 
       0.564573         82.0495         47.3031 
       0.570708         80.5118         46.1784 
       0.576825         79.5245         45.0844 
       0.582926         77.6995         44.0193 
       0.589034         76.5157         42.9823 
       0.595184         75.4087         41.9714 
       0.601379         74.1451         40.9886 
       0.607522         72.6369         40.0488 
       0.613639         72.1504         39.1452 
       0.619772         70.6486         38.2693 
       0.625918         69.6119         37.4198 
       0.632068         68.7918         36.5964 
       0.638161          67.978         35.8054 
         0.6443         67.0373         35.0318 
       0.650464         66.2546         34.2777 
       0.656582         65.0364         33.5501 
       0.662703          63.965         32.8424 
       0.668861         63.0071         32.1506 
       0.675024         62.3084         31.4781 
       0.681124         61.5677         30.8319 
       0.687237         60.3227         30.2033 
       0.693381         59.5704         29.5902 
       0.699536         58.9462         28.9939 
       0.705665          58.822          28.417 
       0.711789         57.4404         27.8566 
       0.717957         56.9674         27.3076 
        0.72409          55.991         26.7763 
       0.730186         55.1314          26.262 
       0.736317          54.919         25.7583 
       0.742472          54.265         25.2659 
       0.748622          53.498         24.7867 
        0.75476          52.951          24.321 
       0.760888         52.1769          23.868 
       0.767043         51.6721         23.4249 
       0.773185         51.0274         22.9941 
       0.779291         50.4557         22.5767 
       0.785407         50.0196         22.1692 
       0.791564         49.5939         21.7693 
       0.797719         48.5708         21.3795 
       0.803834         48.3462         21.0018 
       0.809972         47.4966         20.6319 
       0.816124         47.1607         20.2702 
       0.822261         46.7718         19.9182 
       0.828378         46.4529         19.5756 
       0.834502         45.8598         19.2409 
       0.840667         45.3323         18.9119 
       0.846816         44.6763         18.5915 
       0.852925         44.3431         18.2806 
       0.859047         43.7304         17.9761 
       0.865192         43.4415         17.6777 
       0.871341         43.1307         17.3858 
       0.877463         42.3779         17.1019 
       0.883569         42.1237          16.825 
       0.889708         41.7571         16.5529 
       0.895864         41.3992         16.2861 
       0.902008         40.9886         16.0259 
       0.908149         40.6362         15.7714 
       0.914301         40.2575         15.5221 
       0.920448         39.9427         15.2785 
       0.926574         39.4242          15.041 
       0.932687         39.2772          14.809 
       0.938823         38.6967         14.5811 
       0.944975         38.3742         14.3576 
       0.951105         38.0239         14.1395 
       0.957225         37.5847         13.9263 
       0.963368         37.5028         13.7169 
       0.969511         37.1479         13.5118 
       0.975621         36.9377         13.3119 
       0.981748         36.4388         13.1157 
       0.987916         36.1007         12.9221 
        0.99406         35.9075         12.7332 
        1.00019         35.5503         12.5485 
        1.00632         35.2886         12.3676 
        1.01246         35.0779           12.19 
        1.01859         34.5915         12.0162 
        1.02471         34.4549          11.846 
        1.03085         34.1712         11.6786 
        1.03698         33.8149         11.5147 
        1.04314         33.5855         11.3533 
        1.04929         33.2919         11.1954 
        1.05541         32.9418         11.0411 
        1.06154         32.9223         10.8893 
        1.06769         32.5476         10.7402 
        1.07382         32.3856         10.5944 
        1.07993         32.1604         10.4516 
        1.08607         31.8911         10.3109 
        1.09222          31.657         10.1726 
        1.09836         31.3636          10.037 
        1.10449         31.1974         9.90408 
        1.11063         30.8213         9.77342 
        1.11677         30.6512         9.64516 
         1.1229         30.4226         9.51944 
        1.12903         30.0564         9.39586 
        1.13518          30.159         9.27437 
        1.14131         29.8864         9.15511 
        1.14745         29.5039         9.03802 
        1.15359         29.4378         8.92296 
        1.15973         29.0767         8.80986 
        1.16584         28.9467         8.69923 
        1.17197         28.7522         8.59035 
        1.17811         28.6061         8.48301 
        1.18424         28.3399         8.37782 
        1.19038         28.1494         8.27411 
        1.19652         28.1097          8.1722 
        1.20267         27.8288         8.07201 
        1.20881         27.6556         7.97353 
        1.21495         27.4241         7.87684 
        1.22108         27.3079         7.78178 
         1.2272         26.9949         7.68851 
        1.23334         26.8848         7.59656 
        1.23949         26.8529         7.50589 
        1.24562         26.5001         7.41696 
        1.25174         26.4388         7.32961 
        1.25789         26.2827          7.2434 
        1.26402         26.0221         7.15874 
        1.27014         25.8353         7.07563 
        1.27628          25.671          6.9936 
        1.28244         25.5851         6.91271 
        1.28858         25.4291         6.83321 
        1.29471         25.3081         6.75514 
        1.30084         25.1524         6.67837 
        1.30697         24.9883         6.60267 
        1.31312         24.8064         6.52803 
        1.31925         24.6486         6.45479 
        1.32537         24.5027         6.38274 
        1.33151         24.3398         6.31153 
        1.33765         24.2446         6.24146 
        1.34378         24.0779         6.17259 
        1.34992         23.9135         6.10471 
        1.35606         23.7884         6.03771 
         1.3622         23.6922         5.97183 
        1.36833         23.4784          5.9071 
        1.37445         23.4121         5.84336 
        1.38059         23.2335         5.78037 
        1.38675         23.0114         5.71816 
        1.39288         23.0115         5.65711 
        1.39901         22.8423         5.59698 
        1.40515         22.6962          5.5376 
         1.4113          22.565          5.4791 
        1.41742         22.4469         5.42167 
        1.42355          22.344         5.36495 
         1.4297         22.2268         5.30888 
        1.43585         22.1544         5.25363 
        1.44198         21.9149         5.19938 
        1.44809         21.8577           5.146 
        1.45423         21.7226         5.09318 
        1.46036         21.6731         5.04119 
        1.46649          21.504         4.98991 
        1.47263          21.376          4.9393 
        1.47877         21.3083         4.88941 
        1.48491          21.286         4.84014 
        1.49104           21.05         4.79165 
        1.49718         20.8967         4.74379 
        1.50333         20.8935          4.6965 
        1.50947         20.7561         4.64996 
         1.5156          20.658         4.60411 
        1.52172         20.5628         4.55888 
        1.52787         20.4444         4.51417 
          1.534         20.3444         4.47011 
        1.54013         20.1942         4.42669 
        1.54627         20.1439         4.38376 
        1.55241         19.9445          4.3414 
        1.55855         19.9123         4.29966 
        1.56467         19.7435         4.25858 
         1.5708         19.7663         4.21792 
        1.57695           19.59         4.17773 
        1.58308         19.4829         4.13816 
        1.58922         19.4266         4.09907 
        1.59535         19.3234         4.06051 
         1.6015         19.1942         4.02239 
        1.60764         19.1125         3.98477 
        1.61376         18.9681         3.94774 
        1.61989         18.9102         3.91115 
        1.62604         18.8586         3.87494 
        1.63218          18.775         3.83922 
        1.63831          18.645         3.80402 
        1.64444         18.5707         3.76926 
        1.65059          18.476         3.73485 
        1.65673         18.3586          3.7009 
        1.66285         18.3442         3.66747 
        1.66898         18.2246         3.63445 
        1.67512         18.1445         3.60176 
        1.68127          18.032         3.56945 
         1.6874           17.94         3.53761 
        1.69353         17.8868         3.50618 
        1.69967         17.7872         3.47505 
        1.70581         17.6971         3.44431 
        1.71193         17.6521         3.41407 
        1.71806         17.5161         3.38412 
        1.72421         17.4468         3.35447 
        1.73035         17.3411         3.32521 
        1.73649         17.3207          3.2963 
        1.74262          17.228         3.26776 
        1.74876         17.1794         3.23954 
        1.75489         17.0733         3.21171 
        1.76101         16.9932         3.18421 
        1.76715         16.9138           3.157 
        1.77329         16.8843         3.13007 
        1.77943         16.7963         3.10345 
        1.78557         16.6754         3.07717 
        1.79171         16.5953         3.05119 
        1.79785         16.5233         3.02551 
        1.80399         16.5008         3.00013 
        1.81012         16.4093         2.97508 
        1.81625         16.3575         2.95032 
        1.82239         16.2589          2.9258 
        1.82853         16.1808         2.90158 
        1.83466         16.1348         2.87765 
        1.84078         16.0044         2.85402 
        1.84692         15.9743         2.83062 
        1.85306         15.9113         2.80745 
         1.8592         15.8208         2.78458 
        1.86533         15.7636         2.76197 
        1.87147         15.7101         2.73959 
        1.87761         15.6522         2.71744 
        1.88375         15.5881         2.69557 
        1.88988         15.5069         2.67396 
        1.89601         15.4498         2.65258 
        1.90215          15.384         2.63141 
        1.90829         15.3164         2.61049 
        1.91442         15.2495         2.58979 
        1.92056         15.1871         2.56933 
         1.9267         15.1175         2.54907 
        1.93284         15.0293         2.52902 
        1.93897         15.0074         2.50922 
        1.94509         14.9238         2.48968 
        1.95123         14.8935          2.4703 
        1.95737         14.8023         2.45111 
        1.96349         14.7534         2.43217 
        1.96964         14.6963         2.41337 
        1.97578         14.6061         2.39477 
        1.98192         14.5498          2.3764 
        1.98805          14.514         2.35822 
        1.99419         14.4516         2.34023 
        2.00033         14.3512         2.32242 
        2.00647         14.3105          2.3048 
         2.0126         14.2612         2.28739 
        2.01874         14.1981         2.27013 
        2.02488         14.1594         2.25304 
        2.03101         14.1001         2.23615 
        2.03714          14.048         2.21946 
        2.04328         13.9734         2.20291 
        2.04941         13.9153         2.18655 
        2.05554         13.8716         2.17036 
        2.06167         13.8178         2.15432 
        2.06781         13.7605         2.13843 
        2.07396         13.7247         2.12268 
        2.08009         13.6774         2.10712 
        2.08622         13.5621         2.09173 
        2.09237         13.5573         2.07647 
        2.09851         13.4981         2.06136 
        2.10464         13.4127         2.04642 
        2.11077          13.387         2.03164 
        2.11691         13.3381         2.01698 
        2.12305         13.3074         2.00247 
        2.12918         13.2286         1.98813 
        2.13531         13.1858         1.97393 
        2.14145         13.1451         1.95983 
         2.1476         13.0884         1.94586 
        2.15372         13.0143         1.93209 
        2.15985          12.963         1.91844 
        2.16599         12.9317         1.90489 
        2.17213         12.8739         1.89148 
        2.17827         12.8118          1.8782 
         2.1844         12.7413         1.86506 
        2.19054          12.745         1.85205 
        2.19666         12.6994         1.83917 
         2.2028         12.6311         1.82641 
        2.20893         12.5849         1.81376 
        2.21508         12.5303         1.80121 
        2.22122         12.4358         1.78879 
        2.22736         12.4386          1.7765 
        2.23349         12.3976         1.76433 
        2.23962         12.3541         1.75227 
        2.24577         12.2855         1.74031 
         2.2519         12.2493         1.72848 
        2.25802         12.1994         1.71678 
        2.26417         12.1736         1.70516 
        2.27031         12.0963         1.69363 
        2.27644         12.0777         1.68224 
        2.28257         12.0181         1.67095 
        2.28872         11.9654         1.65975 
        2.29486         11.9354         1.64866 
        2.30099         11.8858         1.63768 
        2.30712         11.8459         1.62681 
        2.31326         11.8015         1.61601 
         2.3194           11.77         1.60532 
        2.32553         11.7201         1.59474 
        2.33166         11.6637         1.58426 
         2.3378         11.6332         1.57386 
        2.34394         11.5882         1.56355 
        2.35007         11.5483         1.55335 
        2.35619         11.4926         1.54325 
        2.36233         11.4536         1.53321 
        2.36848         11.4262         1.52325 
        2.37462         11.3722         1.51339 
        2.38075         11.3254         1.50363 
        2.38689         11.3003         1.49395 
        2.39303         11.2475         1.48436 
        2.39916         11.2197         1.47486 
        2.40529         11.1875         1.46544 
        2.41143         11.1371          1.4561 
        2.41757         11.0944         1.44683 
         2.4237         11.0599         1.43767 
        2.42983         11.0084         1.42858 
        2.43598          10.988         1.41955 
        2.44211         10.9369         1.41061 
        2.44823         10.9047         1.40177 
        2.45437         10.8646         1.39298 
        2.46052         10.8177         1.38426 
        2.46665         10.7964         1.37562 
        2.47279         10.7448         1.36707 
        2.47892         10.7074         1.35858 
        2.48507         10.6641         1.35015 
         2.4912         10.6402         1.34182 
