# k  (h/Mpc)    Pcb(k)  (Mpc/h)^3    Pcb_linear(k)  (Mpc/h)^3
     0.00783031         8852.03         8963.58 
       0.013688         10945.8         10880.3 
       0.019231         10900.4         10878.5 
      0.0249154         9780.97         9927.07 
      0.0312784         8403.45         8455.36 
      0.0375637         7090.45         7072.23 
      0.0433917         6000.13         6058.39 
      0.0492413         5325.56         5333.41 
      0.0555754         4725.36         4814.02 
      0.0619321         4487.76         4458.19 
       0.067871         4108.88         4175.18 
      0.0738098         3809.79         3873.06 
      0.0800417          3424.8         3508.85 
      0.0862327         3075.07         3114.82 
      0.0921407         2750.85         2746.13 
      0.0982031         2410.17         2413.59 
       0.104506         2200.47         2142.34 
       0.110769         2006.97         1952.13 
       0.116806         1871.38         1830.43 
       0.122832         1791.66         1746.82 
       0.129052            1684         1674.36 
       0.135211         1606.49         1595.24 
       0.141259         1532.33         1499.82 
       0.147318         1433.08         1387.56 
       0.153489         1303.94          1265.8 
       0.159709         1209.92         1148.85 
       0.165845         1136.46         1050.07 
       0.171974         1056.44         973.261 
       0.178125         1002.04         917.604 
       0.184229         961.072         878.601 
        0.19034         904.694         848.392 
       0.196428          890.71         819.711 
       0.202534         863.417         786.928 
       0.208729         818.892         747.294 
       0.214876         773.154         702.771 
       0.220989         741.512         656.778 
       0.227147         698.369         612.817 
        0.23329         664.796         574.556 
       0.239377         645.869         543.691 
       0.245482          602.23         519.547 
       0.251667         596.211         500.369 
       0.257832          575.78         484.123 
       0.263955         557.051         468.505 
       0.270079         536.492          451.71 
        0.27624         528.662         432.999 
       0.282372         506.474         412.951 
        0.28843         490.709         392.752 
       0.294538         466.224         373.262 
       0.300721         461.156         355.434 
        0.30691         439.253         340.074 
       0.313033         429.627         327.249 
       0.319153         414.756         316.317 
       0.325316         403.529         306.438 
        0.33145          391.18         297.011 
       0.337538         385.605         287.474 
       0.343633         372.778         277.549 
       0.349808         360.321         267.151 
       0.355968         355.453         256.762 
       0.362074         347.264         246.811 
       0.368217         337.527         237.488 
       0.374374         324.513          229.03 
       0.380519          320.58         221.464 
       0.386598         312.402         214.735 
       0.392688         309.171         208.497 
        0.39888         300.668         202.435 
       0.405048         293.794         196.497 
       0.411186         287.675         190.564 
       0.417313         282.091         184.634 
       0.423458         276.425         178.754 
       0.429607         270.449         173.036 
       0.435692             263         167.655 
       0.441815         260.849          162.59 
       0.447964         255.667         157.851 
       0.454126         246.279         153.433 
       0.460267         243.097         149.292 
       0.466387         240.129          145.34 
        0.47254         234.871         141.473 
       0.478662         233.704         137.704 
       0.484765         226.173         134.005 
       0.490885         223.203         130.363 
       0.497035         219.759         126.803 
       0.503198         214.671         123.374 
       0.509342         212.304         120.112 
       0.515458          209.35         117.019 
       0.521598         205.577         114.066 
       0.527764         202.563          111.24 
       0.533884         199.882         108.547 
           0.54         196.764         105.939 
       0.546137         195.521         103.387 
       0.552299         191.641         100.888 
       0.558452         189.201         98.4592 
       0.564573         186.128         96.1087 
       0.570708         182.651         93.8238 
       0.576825         180.369         91.6227 
       0.582926         177.583         89.5095 
       0.589034         175.521         87.4772 
       0.595184         173.525         85.5072 
       0.601379         171.521         83.5905 
       0.607522         168.005         81.7472 
       0.613639         167.146          79.962 
       0.619772         163.564         78.2209 
       0.625918         162.041         76.5245 
       0.632068         160.061         74.8744 
       0.638161         158.894         73.2857 
         0.6443         156.584         71.7311 
       0.650464         154.939         70.2167 
       0.656582         153.101          68.759 
       0.662703         151.333         67.3458 
       0.668861         148.915          65.968 
       0.675024         147.215         64.6301 
       0.681124         146.397         63.3438 
       0.687237          143.86         62.0894 
       0.693381         141.843         60.8614 
       0.699536         140.823         59.6624 
       0.705665         140.655         58.4992 
       0.711789         137.591         57.3675 
       0.717957         137.215         56.2581 
        0.72409         135.202          55.185 
       0.730186         133.169         54.1478 
       0.736317         132.297         53.1329 
       0.742472         131.427         52.1412 
       0.748622         130.182         51.1764 
        0.75476         129.006         50.2382 
       0.760888         127.173         49.3248 
       0.767043         126.532         48.4301 
       0.773185         125.148         47.5591 
       0.779291         123.292         46.7141 
       0.785407         122.673         45.8884 
       0.791564         121.571         45.0774 
       0.797719         119.653         44.2865 
       0.803834         119.106         43.5198 
       0.809972         117.746         42.7688 
       0.816124         117.407         42.0343 
       0.822261         116.112         41.3192 
       0.828378         115.036         40.6231 
       0.834502         114.556         39.9426 
       0.840667         112.936         39.2734 
       0.846816         111.771         38.6215 
       0.852925         111.102         37.9885 
       0.859047         109.717         37.3683 
       0.865192         109.104           36.76 
       0.871341         108.129         36.1648 
       0.877463         107.022         35.5855 
       0.883569         106.381         35.0205 
       0.889708         105.561         34.4648 
       0.895864         104.581         33.9198 
       0.902008         103.796         33.3877 
       0.908149         103.257         32.8675 
       0.914301         102.172         32.3575 
       0.920448         101.444         31.8589 
       0.926574          100.73         31.3725 
       0.932687          100.49         30.8974 
       0.938823         98.9029         30.4305 
       0.944975         98.0034         29.9722 
       0.951105         97.5155         29.5251 
       0.957225         96.4113         29.0878 
       0.963368          95.811          28.658 
       0.969511         95.5696         28.2368 
       0.975621         95.0663         27.8264 
       0.981748         94.2442         27.4232 
       0.987916         93.3032         27.0254 
        0.99406         92.6881         26.6371 
        1.00019         92.0938         26.2572 
        1.00632         91.4365         25.8851 
        1.01246         90.7906         25.5196 
        1.01859         89.6589         25.1618 
        1.02471         89.5818         24.8114 
        1.03085         88.7004         24.4664 
        1.03698         88.2517         24.1287 
        1.04314         87.4004          23.796 
        1.04929         86.8697         23.4704 
        1.05541         86.1767         23.1522 
        1.06154         85.8739         22.8391 
        1.06769         85.4746         22.5313 
        1.07382         84.9908         22.2303 
        1.07993         84.3419         21.9354 
        1.08607         83.6764         21.6447 
        1.09222          83.318          21.359 
        1.09836         82.6365         21.0787 
        1.10449         82.1843         20.8039 
        1.11063         81.5728         20.5336 
        1.11677         81.1811         20.2682 
         1.1229         80.3424          20.008 
        1.12903         79.6374         19.7522 
        1.13518         79.8728         19.5006 
        1.14131         79.2053         19.2535 
        1.14745         78.4358         19.0109 
        1.15359         78.0887         18.7724 
        1.15973         77.6497          18.538 
        1.16584         77.0752         18.3086 
        1.17197          76.649         18.0827 
        1.17811         76.1861           17.86 
        1.18424         75.6477         17.6417 
        1.19038         75.2141         17.4264 
        1.19652          74.899         17.2148 
        1.20267         74.1936         17.0067 
        1.20881         73.8645         16.8021 
        1.21495         73.3364         16.6012 
        1.22108         73.0064         16.4036 
         1.2272         72.3074         16.2097 
        1.23334         72.0762         16.0185 
        1.23949         71.6739           15.83 
        1.24562         71.2796          15.645 
        1.25174         70.8765         15.4632 
        1.25789         70.5727         15.2838 
        1.26402          70.166         15.1076 
        1.27014         69.5254         14.9345 
        1.27628         69.3054         14.7637 
        1.28244         68.7587         14.5952 
        1.28858         68.4888         14.4295 
        1.29471         68.1776         14.2668 
        1.30084         67.7516         14.1068 
        1.30697         67.3288          13.949 
        1.31312         66.9441         13.7933 
        1.31925         66.6615         13.6406 
        1.32537         66.3874         13.4903 
        1.33151         65.6959         13.3417 
        1.33765         65.4322         13.1955 
        1.34378           65.05         13.0517 
        1.34992          64.808           12.91 
        1.35606         64.4469         12.7701 
         1.3622         63.9039         12.6325 
        1.36833         63.7548         12.4972 
        1.37445         63.4063          12.364 
        1.38059          62.895         12.2324 
        1.38675         62.5821         12.1023 
        1.39288         62.2377         11.9747 
        1.39901         62.1009         11.8489 
        1.40515         61.6845         11.7247 
         1.4113           61.38         11.6023 
        1.41742         61.2301         11.4821 
        1.42355         60.6661         11.3634 
         1.4297         60.4636         11.2461 
        1.43585         60.0213         11.1304 
        1.44198         59.7716         11.0168 
        1.44809         59.5158          10.905 
        1.45423         59.1927         10.7943 
        1.46036         58.9831         10.6854 
        1.46649         58.6265         10.5779 
        1.47263         58.2215         10.4719 
        1.47877         58.0511         10.3673 
        1.48491         57.8533          10.264 
        1.49104           57.41         10.1623 
        1.49718          56.949         10.0619 
        1.50333         56.8066         9.96277 
        1.50947         56.5429         9.86513 
         1.5156         56.2229         9.76894 
        1.52172         56.0413         9.67404 
        1.52787         55.8819         9.58021 
          1.534         55.4691         9.48774 
        1.54013         55.1441         9.39658 
        1.54627         54.9708         9.30646 
        1.55241         54.5451          9.2175 
        1.55855         54.3071         9.12983 
        1.56467         53.9051         9.04354 
         1.5708         53.8938         8.95812 
        1.57695         53.6321         8.87368 
        1.58308         53.2322         8.79051 
        1.58922         53.1939         8.70835 
        1.59535         52.9669         8.62728 
         1.6015         52.4332         8.54712 
        1.60764         52.2907         8.46801 
        1.61376         52.0003         8.39013 
        1.61989         51.7149         8.31316 
        1.62604          51.593         8.23698 
        1.63218         51.4267          8.1618 
        1.63831         51.1063         8.08774 
        1.64444         50.8194         8.01457 
        1.65059         50.4927         7.94212 
        1.65673         50.3358         7.87066 
        1.66285         50.0279         7.80027 
        1.66898         49.8279         7.73072 
        1.67512         49.5325         7.66188 
        1.68127         49.2756         7.59381 
         1.6874         49.1496         7.52673 
        1.69353         48.8436         7.46049 
        1.69967         48.6139          7.3949 
        1.70581         48.5417         7.33012 
        1.71193         48.2966         7.26636 
        1.71806         47.8311         7.20322 
        1.72421         47.7578         7.14071 
        1.73035         47.5127         7.07901 
        1.73649         47.1211         7.01806 
        1.74262         47.1024         6.95787 
        1.74876         46.8818         6.89834 
        1.75489         46.6148         6.83963 
        1.76101         46.4487         6.78163 
        1.76715         46.1631         6.72421 
        1.77329         45.9731          6.6674 
        1.77943         45.7451         6.61121 
        1.78557         45.5915         6.55575 
        1.79171         45.3189         6.50092 
        1.79785         45.1298          6.4467 
        1.80399         44.9977         6.39311 
        1.81012         44.7647         6.34021 
        1.81625         44.3904         6.28792 
        1.82239         44.2978         6.23614 
        1.82853         43.9736         6.18497 
        1.83466         43.8844         6.13442 
        1.84078         43.5407         6.08449 
        1.84692         43.3992         6.03504 
        1.85306         43.2187         5.98607 
         1.8592         42.9445         5.93772 
        1.86533         42.8441         5.88993 
        1.87147         42.6726         5.84261 
        1.87761         42.5078         5.79579 
        1.88375         42.2521         5.74954 
        1.88988         42.2091         5.70384 
        1.89601          41.894         5.65862 
        1.90215         41.7376         5.61384 
        1.90829         41.6266         5.56958 
        1.91442         41.3696         5.52578 
        1.92056         41.1366          5.4825 
         1.9267         40.8982         5.43963 
        1.93284         40.7678         5.39719 
        1.93897         40.6182         5.35529 
        1.94509         40.3301         5.31393 
        1.95123         40.2719         5.27289 
        1.95737         40.0067         5.23226 
        1.96349          39.817         5.19216 
        1.96964         39.7532         5.15236 
        1.97578         39.4803         5.11296 
        1.98192         39.3438         5.07406 
        1.98805         39.1973         5.03555 
        1.99419         38.9325         4.99744 
        2.00033         38.7776          4.9597 
        2.00647         38.5972         4.92237 
         2.0126         38.4052         4.88548 
        2.01874         38.3089         4.84891 
        2.02488         38.1676         4.81269 
        2.03101         37.9267          4.7769 
        2.03714         37.7673         4.74151 
        2.04328         37.5756         4.70644 
        2.04941         37.4025         4.67175 
        2.05554         37.1953         4.63743 
        2.06167         37.1414         4.60341 
        2.06781         36.9108         4.56973 
        2.07396         36.7673         4.53634 
        2.08009         36.6373         4.50333 
        2.08622         36.3998          4.4707 
        2.09237         36.2487         4.43832 
        2.09851         36.0739         4.40625 
        2.10464         35.9631         4.37456 
        2.11077         35.8325         4.34321 
        2.11691         35.6285          4.3121 
        2.12305         35.4385         4.28129 
        2.12918         35.3419         4.25086 
        2.13531          35.122         4.22072 
        2.14145         35.0603          4.1908 
         2.1476         34.8368         4.16114 
        2.15372         34.6437         4.13191 
        2.15985         34.5273         4.10294 
        2.16599         34.5139         4.07416 
        2.17213         34.3578         4.04568 
        2.17827         34.0757         4.01748 
         2.1844         33.9558         3.98958 
        2.19054         33.8023         3.96193 
        2.19666         33.6684         3.93458 
         2.2028         33.4917         3.90747 
        2.20893         33.4127          3.8806 
        2.21508         33.2703         3.85395 
        2.22122         33.0473         3.82754 
        2.22736         32.9692         3.80143 
        2.23349         32.8335         3.77557 
        2.23962         32.6098         3.74994 
        2.24577         32.4899         3.72452 
         2.2519         32.3521         3.69938 
        2.25802         32.2373          3.6745 
        2.26417           32.11         3.64979 
        2.27031         32.0156         3.62527 
        2.27644         31.7816         3.60106 
        2.28257         31.6975         3.57706 
        2.28872         31.5148         3.55324 
        2.29486         31.4674         3.52964 
        2.30099         31.2916         3.50631 
        2.30712         31.1635         3.48317 
        2.31326         31.0701          3.4602 
         2.3194         30.9279         3.43745 
        2.32553         30.7506         3.41495 
        2.33166         30.6412         3.39265 
         2.3378         30.4639         3.37053 
        2.34394         30.3094         3.34859 
        2.35007         30.2225         3.32688 
        2.35619         30.1366         3.30539 
        2.36233         30.0474         3.28403 
        2.36848         29.8331         3.26282 
        2.37462         29.7491         3.24185 
        2.38075         29.6259         3.22107 
        2.38689         29.5648         3.20046 
        2.39303         29.3691         3.18004 
        2.39916         29.2059         3.15981 
        2.40529         29.0284         3.13976 
        2.41143         29.0013         3.11987 
        2.41757         28.9048         3.10014 
         2.4237         28.7358         3.08062 
        2.42983         28.6146         3.06127 
        2.43598         28.4764         3.04203 
        2.44211          28.361         3.02299 
        2.44823         28.2444         3.00416 
        2.45437         28.1494         2.98543 
        2.46052         27.9718         2.96685 
        2.46665         27.9415         2.94846 
        2.47279         27.8095         2.93022 
        2.47892         27.6427         2.91214 
        2.48507         27.5415         2.89418 
         2.4912         27.4522         2.87641 
