# k  (h/Mpc)    Pcb(k)  (Mpc/h)^3    Pcb_linear(k)  (Mpc/h)^3
     0.00783031          5550.8         5581.88 
       0.013688         6962.99         7086.04 
       0.019231          7301.2         7369.63 
      0.0249154          7012.1         7005.88 
      0.0312784         6206.71         6243.09 
      0.0375637         5375.13         5432.65 
      0.0433917            4773         4783.83 
      0.0492413         4244.85         4281.04 
      0.0555754         3884.59         3890.46 
      0.0619321         3522.87         3607.41 
       0.067871         3345.87         3386.48 
      0.0738098         3138.47         3165.69 
      0.0800417          2894.7          2911.6 
      0.0862327         2611.12         2637.91 
      0.0921407         2356.67         2374.52 
      0.0982031         2130.95         2124.82 
       0.104506         1893.68         1906.45 
       0.110769         1736.68         1739.28 
       0.116806         1645.58         1621.76 
       0.122832          1542.1         1536.11 
       0.129052         1475.57         1465.66 
       0.135211         1424.28         1399.28 
       0.141259         1336.97         1327.62 
       0.147318         1241.73         1246.13 
       0.153489         1164.81         1155.93 
       0.159709          1095.4         1064.53 
       0.165845         994.315          981.33 
       0.171974         955.701         910.529 
       0.178125         905.936         853.918 
       0.184229         844.355         810.873 
        0.19034         823.988         777.383 
       0.196428         797.236         749.035 
       0.202534         750.511         721.353 
       0.208729         735.464         691.037 
       0.214876         706.438         657.706 
       0.220989         659.143         622.186 
       0.227147         640.607         586.056 
        0.23329          612.35         551.983 
       0.239377         594.381         521.965 
       0.245482         562.487         496.457 
       0.251667         539.083         475.137 
       0.257832         532.463         457.428 
       0.263955         504.581         441.955 
       0.270079         488.109         427.178 
        0.27624         468.293         412.006 
       0.282372         456.726         396.133 
        0.28843         452.603         379.796 
       0.294538          429.83         363.205 
       0.300721         413.544         346.974 
        0.30691         406.159         331.936 
       0.313033         388.369         318.599 
       0.319153         381.271         306.874 
       0.325316         371.238         296.437 
        0.33145         361.907         287.038 
       0.337538         349.903         278.226 
       0.343633         339.435         269.579 
       0.349808         330.174         260.769 
       0.355968         322.966         251.901 
       0.362074         314.752         243.134 
       0.368217         309.969         234.527 
       0.374374         302.741         226.318 
       0.380519         290.288         218.668 
       0.386598         285.565         211.705 
       0.392688         278.619         205.285 
        0.39888         272.306         199.225 
       0.405048         267.215          193.53 
       0.411186         264.231         188.062 
       0.417313         258.784         182.716 
       0.423458         252.007         177.431 
       0.429607         246.532         172.215 
       0.435692         242.113         167.177 
       0.441815          236.97         162.284 
       0.447964         230.548         157.588 
       0.454126         226.817         153.134 
       0.460267         224.387         148.951 
       0.466387         219.862         145.004 
        0.47254         217.275         141.223 
       0.478662         210.577         137.612 
       0.484765         208.013         134.124 
       0.490885         204.621          130.71 
       0.497035         202.576          127.36 
       0.503198         199.335         124.092 
       0.509342         194.089          120.93 
       0.515458         192.014         117.888 
       0.521598         187.563         114.954 
       0.527764         185.538         112.132 
       0.533884         184.915         109.446 
           0.54         180.281         106.867 
       0.546137         176.326         104.372 
       0.552299         174.619          101.95 
       0.558452         171.549         99.6042 
       0.564573         170.712         97.3328 
       0.570708         166.453         95.1153 
       0.576825         164.448         92.9668 
       0.582926         162.703         90.8888 
       0.589034         160.368         88.8743 
       0.595184         158.923         86.9122 
       0.601379           155.3          85.001 
       0.607522         152.875         83.1683 
       0.613639         151.681         81.4025 
       0.619772         149.714         79.6871 
       0.625918         148.562         78.0184 
       0.632068         145.436         76.3947 
       0.638161         143.627         74.8285 
         0.6443         142.971         73.2921 
       0.650464         140.295          71.792 
       0.656582          139.68          70.345 
       0.662703         138.081         68.9388 
       0.668861         135.257          67.565 
       0.675024         135.311         66.2291 
       0.681124         133.116         64.9439 
       0.687237          130.91         63.6912 
       0.693381         130.238         62.4661 
       0.699536         128.588         61.2714 
       0.705665         126.883         60.1133 
       0.711789         125.382         58.9863 
       0.717957         124.011         57.8805 
        0.72409         123.184         56.8092 
       0.730186         122.537         55.7715 
       0.736317         120.363         54.7541 
       0.742472         118.966         53.7586 
       0.748622          117.23          52.789 
        0.75476         117.081         51.8458 
       0.760888         116.224         50.9276 
       0.767043         114.173         50.0285 
       0.773185         112.906         49.1533 
       0.779291         111.677         48.3044 
       0.785407         110.491         47.4745 
       0.791564         110.218         46.6591 
       0.797719         108.893         45.8634 
       0.803834         108.134         45.0914 
       0.809972         107.458         44.3345 
       0.816124         106.139         43.5934 
       0.822261         104.876         42.8714 
       0.828378         104.675         42.1681 
       0.834502         103.044           41.48 
       0.840667         102.564         40.8031 
       0.846816         101.657         40.1433 
       0.852925         100.544         39.5024 
       0.859047         100.127         38.8743 
       0.865192         98.8434          38.258 
       0.871341         97.7966         37.6547 
       0.877463         97.2153         37.0673 
       0.883569         96.9804          36.494 
       0.889708         96.1402           35.93 
       0.895864         95.2554         35.3766 
       0.902008          94.443          34.836 
       0.908149         93.2825         34.3072 
       0.914301         93.1188         33.7886 
       0.920448         92.6736         33.2813 
       0.926574         90.9508         32.7862 
       0.932687         90.7366         32.3024 
       0.938823         90.0123         31.8266 
       0.944975         88.9883         31.3594 
       0.951105         88.3257         30.9034 
       0.957225         88.2471         30.4572 
       0.963368         87.2862         30.0184 
       0.969511         86.5677         29.5884 
       0.975621         85.9564         29.1691 
       0.981748          85.152          28.757 
       0.987916         84.5991         28.3502 
        0.99406         84.2191          27.953 
        1.00019         83.2564         27.5642 
        1.00632         82.7557         27.1832 
        1.01246         82.2242         26.8089 
        1.01859         81.9129         26.4424 
        1.02471         81.0257         26.0831 
        1.03085         80.4496         25.7294 
        1.03698         80.0087         25.3831 
        1.04314         79.4359         25.0417 
        1.04929         78.9542         24.7074 
        1.05541         78.4509         24.3806 
        1.06154         78.0158          24.059 
        1.06769         77.1626         23.7427 
        1.07382         76.6476         23.4332 
        1.07993         76.3939           23.13 
        1.08607         75.7666         22.8309 
        1.09222         75.5339         22.5368 
        1.09836          74.812         22.2482 
        1.10449         74.4175         21.9651 
        1.11063         73.8387         21.6867 
        1.11677         73.5773         21.4132 
         1.1229         72.8711         21.1449 
        1.12903         72.7028          20.881 
        1.13518         72.4654         20.6214 
        1.14131         71.7236         20.3664 
        1.14745         71.1422         20.1159 
        1.15359         70.4609         19.8696 
        1.15973         70.4173         19.6273 
        1.16584         69.9185         19.3902 
        1.17197         69.2436         19.1566 
        1.17811         68.9762         18.9262 
        1.18424         68.2027         18.7003 
        1.19038          68.172         18.4775 
        1.19652         67.8343         18.2584 
        1.20267         67.3279         18.0428 
        1.20881         66.9013         17.8309 
        1.21495          66.618         17.6226 
        1.22108         66.3474         17.4178 
         1.2272         65.7279         17.2167 
        1.23334         65.4416         17.0183 
        1.23949         65.0583         16.8227 
        1.24562         64.5732         16.6306 
        1.25174         64.2011         16.4419 
        1.25789         64.2271         16.2555 
        1.26402         63.6478         16.0724 
        1.27014         63.3524         15.8926 
        1.27628         62.7736          15.715 
        1.28244         62.6391         15.5397 
        1.28858         62.2449         15.3675 
        1.29471         61.9314         15.1982 
        1.30084         61.3908         15.0316 
        1.30697          61.395         14.8673 
        1.31312         60.8212         14.7052 
        1.31925         60.4104         14.5461 
        1.32537          60.159         14.3895 
        1.33151         59.8513         14.2347 
        1.33765         59.5548         14.0822 
        1.34378          59.315         13.9323 
        1.34992         58.9099         13.7844 
        1.35606          58.547         13.6384 
         1.3622         58.2452         13.4948 
        1.36833         57.9246         13.3536 
        1.37445         57.4421         13.2145 
        1.38059         57.3852          13.077 
        1.38675         56.7675         12.9411 
        1.39288         56.7958         12.8076 
        1.39901         56.3276         12.6762 
        1.40515         56.1069         12.5463 
         1.4113         56.0352         12.4182 
        1.41742         55.6544         12.2925 
        1.42355         55.2195         12.1683 
         1.4297         54.9539         12.0454 
        1.43585         54.6059         11.9243 
        1.44198         54.3039         11.8053 
        1.44809          54.028         11.6881 
        1.45423          53.843         11.5721 
        1.46036         53.5667          11.458 
        1.46649         53.3872         11.3453 
        1.47263         53.0191          11.234 
        1.47877         52.8452         11.1243 
        1.48491         52.6152         11.0159 
        1.49104         52.1785         10.9092 
        1.49718         51.9938         10.8038 
        1.50333         51.8065         10.6997 
        1.50947         51.4561         10.5971 
         1.5156         51.2608         10.4961 
        1.52172         50.8881         10.3964 
        1.52787         50.6747         10.2977 
          1.534         50.4507         10.2005 
        1.54013         50.3362         10.1046 
        1.54627         49.8567         10.0098 
        1.55241         49.6401         9.91626 
        1.55855         49.5762           9.824 
        1.56467         49.2185         9.73317 
         1.5708          49.096         9.64324 
        1.57695         48.7974         9.55432 
        1.58308         48.4388         9.46673 
        1.58922         48.2649         9.38018 
        1.59535         48.1068         9.29474 
         1.6015         48.0219         9.21026 
        1.60764         47.6963         9.12687 
        1.61376         47.3944         9.04475 
        1.61989         47.1334         8.96358 
        1.62604         46.9499         8.88322 
        1.63218         46.6948          8.8039 
        1.63831         46.5987         8.72574 
        1.64444         46.3055          8.6485 
        1.65059         46.1115         8.57201 
        1.65673         45.8263         8.49653 
        1.66285         45.7684         8.42218 
        1.66898         45.3181         8.34869 
        1.67512          45.278         8.27594 
        1.68127         45.0314         8.20399 
         1.6874         44.7887         8.13306 
        1.69353         44.7037         8.06302 
        1.69967         44.5153         7.99364 
        1.70581         44.1321          7.9251 
        1.71193         43.9477         7.85763 
        1.71806          43.817         7.79081 
        1.72421         43.6264         7.72463 
        1.73035          43.393          7.6593 
        1.73649         43.1014         7.59475 
        1.74262         42.8473         7.53099 
        1.74876         42.7641         7.46792 
        1.75489         42.5371         7.40571 
        1.76101         42.3935         7.34423 
        1.76715         42.2779         7.28336 
        1.77329         41.9062         7.22311 
        1.77943         41.9038         7.16352 
        1.78557         41.6779         7.10469 
        1.79171         41.5037         7.04652 
        1.79785         41.2696         6.98898 
        1.80399         41.1093         6.93211 
        1.81012         40.9635         6.87594 
        1.81625         40.6089         6.82043 
        1.82239         40.4908         6.76544 
        1.82853         40.3704         6.71109 
        1.83466         40.1363          6.6574 
        1.84078         39.9657         6.60434 
        1.84692         39.7822         6.55179 
        1.85306         39.5509         6.49974 
         1.8592         39.4821         6.44834 
        1.86533         39.2778         6.39753 
        1.87147         39.0948         6.34721 
        1.87761         38.8496         6.29741 
        1.88375         38.8063          6.2482 
        1.88988         38.5945         6.19958 
        1.89601         38.3395         6.15144 
        1.90215         38.2597         6.10378 
        1.90829         38.0713         6.05665 
        1.91442         37.8737         6.01001 
        1.92056         37.7244         5.96391 
         1.9267         37.6316         5.91824 
        1.93284         37.3859         5.87303 
        1.93897         37.2949         5.82837 
        1.94509         37.0921         5.78428 
        1.95123         36.9628         5.74053 
        1.95737         36.7268         5.69721 
        1.96349         36.6239         5.65444 
        1.96964         36.5374         5.61199 
        1.97578         36.2639         5.56996 
        1.98192         36.1259         5.52845 
        1.98805         35.9136         5.48735 
        1.99419         35.8467         5.44668 
        2.00033         35.6456         5.40639 
        2.00647         35.5651         5.36653 
         2.0126         35.3452         5.32713 
        2.01874          35.167         5.28808 
        2.02488         35.0342         5.24938 
        2.03101         34.8396         5.21114 
        2.03714         34.7415         5.17332 
        2.04328         34.6198         5.13583 
        2.04941         34.4277         5.09874 
        2.05554         34.3314         5.06205 
        2.06167         34.1266         5.02567 
        2.06781         34.0416         4.98964 
        2.07396         33.9128         4.95392 
        2.08009         33.7389         4.91861 
        2.08622         33.5651         4.88368 
        2.09237         33.4805         4.84903 
        2.09851          33.249         4.81471 
        2.10464         33.0862         4.78077 
        2.11077         33.0697         4.74721 
        2.11691         32.8607         4.71389 
        2.12305         32.7129          4.6809 
        2.12918         32.5852          4.6483 
        2.13531         32.4682           4.616 
        2.14145         32.3325         4.58395 
         2.1476         32.1312         4.55215 
        2.15372         32.0618         4.52083 
        2.15985         31.9065         4.48976 
        2.16599         31.7124          4.4589 
        2.17213         31.6551         4.42836 
        2.17827         31.4756         4.39812 
         2.1844         31.3917         4.36819 
        2.19054         31.2734         4.33852 
        2.19666         31.0743         4.30918 
         2.2028         31.0217         4.28008 
        2.20893         30.8539         4.25123 
        2.21508         30.7494         4.22262 
        2.22122          30.591         4.19426 
        2.22736         30.4596         4.16622 
        2.23349         30.2958         4.13845 
        2.23962          30.243         4.11091 
        2.24577         30.0953         4.08361 
         2.2519         29.9743         4.05658 
        2.25802         29.8094         4.02985 
        2.26417         29.6631         4.00328 
        2.27031         29.6225         3.97693 
        2.27644         29.5439          3.9509 
        2.28257         29.3784          3.9251 
        2.28872         29.2759         3.89948 
        2.29486         29.1079         3.87409 
        2.30099         28.9579         3.84899 
        2.30712         28.8988         3.82409 
        2.31326         28.7381         3.79938 
         2.3194         28.6565          3.7749 
        2.32553         28.5268         3.75067 
        2.33166         28.3962         3.72667 
         2.3378         28.3418         3.70284 
        2.34394         28.1793         3.67922 
        2.35007         28.1211         3.65584 
        2.35619          27.975         3.63269 
        2.36233         27.8189         3.60968 
        2.36848         27.6996         3.58683 
        2.37462         27.6447         3.56422 
        2.38075          27.488         3.54183 
        2.38689         27.3512         3.51961 
        2.39303         27.3416         3.49759 
        2.39916         27.1422         3.47578 
        2.40529         27.0146         3.45416 
        2.41143         26.9538         3.43271 
        2.41757         26.7824         3.41143 
         2.4237         26.7103         3.39037 
        2.42983         26.6123         3.36949 
        2.43598         26.4908         3.34873 
        2.44211         26.4111         3.32818 
        2.44823         26.2633         3.30785 
        2.45437         26.2398         3.28763 
        2.46052         26.0711         3.26757 
        2.46665         25.9951         3.24771 
        2.47279         25.8312         3.22802 
        2.47892         25.7597         3.20848 
        2.48507         25.6671         3.18908 
         2.4912         25.5882         3.16989 
