# k  (h/Mpc)    Pcb(k)  (Mpc/h)^3    Pcb_linear(k)  (Mpc/h)^3
     0.00783031         2283.42         2298.06 
       0.013688         2880.99         2918.12 
       0.019231         3016.96         3035.26 
      0.0249154          2887.4         2885.64 
      0.0312784         2564.73         2571.57 
      0.0375637         2226.08          2237.8 
      0.0433917         1972.07         1970.58 
      0.0492413         1757.37         1763.49 
      0.0555754         1606.04         1602.61 
      0.0619321         1466.91         1486.02 
       0.067871         1388.83         1395.02 
      0.0738098         1300.33         1304.08 
      0.0800417         1199.18         1199.41 
      0.0862327         1082.68         1086.67 
      0.0921407         975.453         978.172 
      0.0982031         878.584         875.309 
       0.104506         782.203         785.356 
       0.110769         715.622         716.492 
       0.116806         674.545          668.08 
       0.122832         633.684         632.797 
       0.129052         607.055         603.777 
       0.135211         582.932          576.43 
       0.141259         549.361         546.913 
       0.147318         511.637         513.343 
       0.153489         478.053         476.185 
       0.159709         444.986         438.534 
       0.165845         405.168         404.259 
       0.171974         384.878         375.092 
       0.178125         362.199         351.772 
       0.184229         340.518         334.039 
        0.19034         330.259         320.243 
       0.196428         318.349         308.565 
       0.202534         301.663         297.162 
       0.208729         293.349         284.673 
       0.214876         281.573         270.943 
       0.220989         262.514          256.31 
       0.227147         253.144         241.426 
        0.23329         240.543          227.39 
       0.239377         230.298         215.024 
       0.245482         218.256         204.516 
       0.251667         208.273         195.733 
       0.257832         204.366         188.438 
       0.263955         194.544         182.064 
       0.270079         188.118         175.977 
        0.27624         180.455         169.727 
       0.282372         174.658         163.187 
        0.28843         171.551         156.457 
       0.294538         163.548         149.623 
       0.300721         155.863         142.936 
        0.30691         152.154         136.742 
       0.313033         145.665         131.247 
       0.319153         142.725         126.417 
       0.325316         136.826         122.118 
        0.33145         132.598         118.246 
       0.337538         128.822         114.616 
       0.343633         125.286         111.054 
       0.349808         121.295         107.424 
       0.355968          117.74         103.771 
       0.362074         115.316          100.16 
       0.368217         111.989         96.6141 
       0.374374         109.323         93.2321 
       0.380519          104.57         90.0806 
       0.386598         101.814         87.2122 
       0.392688         98.9153         84.5674 
        0.39888         97.0814          82.071 
       0.405048         94.8904         79.7251 
       0.411186         92.6724         77.4724 
       0.417313         90.1858         75.2702 
       0.423458         87.7753          73.093 
       0.429607         86.2312         70.9445 
       0.435692         84.7228         68.8691 
       0.441815         81.6582         66.8532 
       0.447964         79.2703         64.9188 
       0.454126         77.8322         63.0838 
       0.460267         77.1461         61.3606 
       0.466387         75.0823         59.7347 
        0.47254         74.0939         58.1773 
       0.478662         71.6772         56.6897 
       0.484765         70.3618         55.2527 
       0.490885          68.461         53.8461 
       0.497035         67.6822         52.4662 
       0.503198         66.0427         51.1202 
       0.509342         64.3672         49.8174 
       0.515458         63.6049         48.5644 
       0.521598         62.0869         47.3554 
       0.527764         61.2924         46.1928 
       0.533884         60.2231         45.0867 
           0.54           58.91         44.0242 
       0.546137         57.2552         42.9964 
       0.552299         56.3385         41.9986 
       0.558452          55.234         41.0322 
       0.564573         54.8705         40.0965 
       0.570708         53.3096          39.183 
       0.576825         52.7124         38.2979 
       0.582926         51.9196         37.4419 
       0.589034         50.9416          36.612 
       0.595184         50.2809         35.8037 
       0.601379         48.9562         35.0164 
       0.607522         48.2649         34.2614 
       0.613639         47.6253         33.5339 
       0.619772         46.8031         32.8273 
       0.625918         45.9644         32.1399 
       0.632068          45.582          31.471 
       0.638161         44.6748         30.8258 
         0.6443         44.0951         30.1928 
       0.650464         43.0601         29.5749 
       0.656582         42.8244         28.9788 
       0.662703         42.3379         28.3995 
       0.668861         41.2658         27.8335 
       0.675024         40.8959         27.2832 
       0.681124         40.5462         26.7538 
       0.687237         39.7404         26.2377 
       0.693381         39.0723          25.733 
       0.699536         38.8794         25.2409 
       0.705665         38.1822         24.7638 
       0.711789         37.5633         24.2996 
       0.717957         36.8874          23.844 
        0.72409         36.5651         23.4027 
       0.730186         36.3969         22.9752 
       0.736317         35.6958         22.5561 
       0.742472         35.2613          22.146 
       0.748622         34.7355         21.7466 
        0.75476          33.973          21.358 
       0.760888          33.898         20.9798 
       0.767043          33.335         20.6093 
       0.773185         33.0311         20.2488 
       0.779291         32.6494         19.8991 
       0.785407         32.1375         19.5572 
       0.791564         32.0194         19.2213 
       0.797719         31.3755         18.8935 
       0.803834         31.2106         18.5755 
       0.809972         30.6733         18.2637 
       0.816124         30.3731         17.9584 
       0.822261         30.0539          17.661 
       0.828378         29.7807         17.3712 
       0.834502         29.4842         17.0878 
       0.840667         29.1892         16.8089 
       0.846816          28.585         16.5371 
       0.852925         28.5326         16.2731 
       0.859047           28.24         16.0144 
       0.865192         27.8485         15.7605 
       0.871341         27.5107          15.512 
       0.877463         27.2544           15.27 
       0.883569         27.1201         15.0338 
       0.889708         26.7239         14.8015 
       0.895864         26.3961         14.5735 
       0.902008         26.1092         14.3508 
       0.908149         25.8376         14.1329 
       0.914301         25.7112         13.9193 
       0.920448         25.3492         13.7103 
       0.926574         25.1274         13.5064 
       0.932687         24.8534          13.307 
       0.938823         24.5571         13.1111 
       0.944975         24.3767         12.9186 
       0.951105         24.1503         12.7307 
       0.957225         24.0087         12.5469 
       0.963368         23.6566         12.3662 
       0.969511         23.4464          12.189 
       0.975621         23.2465         12.0163 
       0.981748         22.9764         11.8465 
       0.987916         22.8458          11.679 
        0.99406         22.5732         11.5153 
        1.00019         22.4295         11.3551 
        1.00632         22.2439         11.1982 
        1.01246         22.0562          11.044 
        1.01859         21.8013          10.893 
        1.02471         21.6055          10.745 
        1.03085         21.5227         10.5993 
        1.03698         21.3363         10.4566 
        1.04314         21.0883          10.316 
        1.04929         20.8592         10.1783 
        1.05541         20.7885         10.0437 
        1.06154         20.6263         9.91116 
        1.06769         20.4202         9.78087 
        1.07382         20.1748         9.65337 
        1.07993         20.0158         9.52845 
        1.08607         19.9279         9.40523 
        1.09222           19.71         9.28408 
        1.09836         19.5886         9.16522 
        1.10449         19.4136          9.0486 
        1.11063         19.3055         8.93388 
        1.11677         19.2135         8.82121 
         1.1229         19.0184          8.7107 
        1.12903         18.8783         8.60199 
        1.13518         18.6761         8.49505 
        1.14131         18.5907            8.39 
        1.14745         18.3429          8.2868 
        1.15359          18.204         8.18533 
        1.15973         18.0704         8.08552 
        1.16584         17.9365         7.98783 
        1.17197         17.7811         7.89162 
        1.17811         17.6688         7.79671 
        1.18424         17.5511         7.70365 
        1.19038         17.4675         7.61185 
        1.19652         17.2987         7.52158 
        1.20267          17.201          7.4328 
        1.20881         17.0227         7.34547 
        1.21495         16.9083         7.25969 
        1.22108         16.8678          7.1753 
         1.2272         16.7277         7.09246 
        1.23334         16.6259         7.01075 
        1.23949         16.4847         6.93014 
        1.24562         16.3378         6.85103 
        1.25174         16.2698         6.77328 
        1.25789         16.1215         6.69651 
        1.26402          16.065         6.62107 
        1.27014         15.9788         6.54699 
        1.27628         15.7826         6.47382 
        1.28244         15.7859         6.40164 
        1.28858         15.6183         6.33067 
        1.29471         15.4373         6.26093 
        1.30084          15.359         6.19232 
        1.30697         15.3436         6.12463 
        1.31312         15.1846         6.05787 
        1.31925         15.1129         5.99231 
        1.32537         15.0058          5.9278 
        1.33151         14.9092         5.86401 
        1.33765         14.8218         5.80119 
        1.34378          14.773         5.73943 
        1.34992         14.6436         5.67853 
        1.35606         14.5103         5.61838 
         1.3622          14.412         5.55921 
        1.36833         14.3805         5.50105 
        1.37445         14.2984         5.44375 
        1.38059         14.2096         5.38709 
        1.38675         14.1145         5.33111 
        1.39288         13.9838         5.27614 
        1.39901         13.9321         5.22199 
        1.40515         13.8398         5.16847 
         1.4113         13.7444         5.11573 
        1.41742         13.6951         5.06393 
        1.42355         13.5679         5.01275 
         1.4297         13.5164         4.96213 
        1.43585         13.4518         4.91223 
        1.44198         13.3877         4.86321 
        1.44809          13.295         4.81495 
        1.45423         13.1978         4.76718 
        1.46036          13.133         4.72014 
        1.46649         13.0494         4.67372 
        1.47263         13.0037         4.62789 
        1.47877         12.9176          4.5827 
        1.48491         12.8529         4.53805 
        1.49104         12.7583         4.49408 
        1.49718         12.7144         4.45067 
        1.50333         12.6399         4.40777 
        1.50947         12.5649         4.36552 
         1.5156         12.5132         4.32389 
        1.52172         12.4348         4.28281 
        1.52787         12.3775         4.24218 
          1.534          12.313         4.20213 
        1.54013         12.2507         4.16264 
        1.54627         12.1658         4.12359 
        1.55241         12.0756         4.08503 
        1.55855         12.0605         4.04702 
        1.56467           11.99         4.00961 
         1.5708         11.9404         3.97256 
        1.57695           11.85         3.93593 
        1.58308         11.7783         3.89984 
        1.58922         11.7378         3.86419 
        1.59535          11.668           3.829 
         1.6015         11.5702         3.79419 
        1.60764         11.5406         3.75984 
        1.61376         11.5068         3.72601 
        1.61989         11.4083         3.69257 
        1.62604         11.3854         3.65947 
        1.63218         11.3327         3.62679 
        1.63831         11.2536         3.59459 
        1.64444         11.1741         3.56277 
        1.65059         11.1239         3.53126 
        1.65673         11.0972         3.50017 
        1.66285         11.0341         3.46954 
        1.66898         10.9957         3.43927 
        1.67512         10.9312          3.4093 
        1.68127         10.8422         3.37966 
         1.6874         10.8249         3.35044 
        1.69353         10.7504         3.32158 
        1.69967         10.7125           3.293 
        1.70581         10.6529         3.26477 
        1.71193         10.6189         3.23697 
        1.71806         10.5729         3.20945 
        1.72421         10.4992         3.18219 
        1.73035         10.4609         3.15527 
        1.73649         10.4262         3.12868 
        1.74262         10.3193         3.10241 
        1.74876         10.3331         3.07643 
        1.75489         10.2714          3.0508 
        1.76101         10.1975         3.02548 
        1.76715         10.1795          3.0004 
        1.77329         10.1325         2.97558 
        1.77943         10.0549         2.95103 
        1.78557         10.0549          2.9268 
        1.79171         9.99484         2.90283 
        1.79785         9.96452         2.87913 
        1.80399          9.8763          2.8557 
        1.81012         9.85943         2.83256 
        1.81625         9.78698         2.80969 
        1.82239         9.75473         2.78704 
        1.82853         9.69922         2.76465 
        1.83466         9.64037         2.74253 
        1.84078         9.62755         2.72068 
        1.84692         9.59201         2.69903 
        1.85306          9.5497         2.67759 
         1.8592         9.51133         2.65641 
        1.86533         9.47172         2.63548 
        1.87147         9.41791         2.61475 
        1.87761         9.38995         2.59424 
        1.88375         9.33852         2.57397 
        1.88988         9.28859         2.55393 
        1.89601         9.27476          2.5341 
        1.90215         9.20724         2.51447 
        1.90829         9.17991         2.49505 
        1.91442         9.13103         2.47584 
        1.92056         9.12927         2.45685 
         1.9267         9.05879         2.43804 
        1.93284         9.05244         2.41941 
        1.93897         8.98898         2.40102 
        1.94509         8.93818         2.38285 
        1.95123         8.92963         2.36483 
        1.95737         8.89248         2.34698 
        1.96349         8.82072         2.32936 
        1.96964         8.79704         2.31188 
        1.97578         8.76793         2.29456 
        1.98192         8.72349         2.27746 
        1.98805         8.69666         2.26053 
        1.99419          8.6707         2.24377 
        2.00033          8.6228         2.22718 
        2.00647         8.60031         2.21076 
         2.0126         8.56501         2.19453 
        2.01874         8.51235         2.17844 
        2.02488         8.49104          2.1625 
        2.03101         8.44688         2.14674 
        2.03714         8.40574         2.13116 
        2.04328         8.37687         2.11572 
        2.04941          8.3344         2.10044 
        2.05554         8.32403         2.08533 
        2.06167         8.29083         2.07034 
        2.06781          8.2468          2.0555 
        2.07396         8.22129         2.04078 
        2.08009         8.17508         2.02624 
        2.08622          8.1684         2.01185 
        2.09237         8.13989         1.99757 
        2.09851         8.08062         1.98343 
        2.10464         8.06847         1.96945 
        2.11077         8.02179         1.95563 
        2.11691         8.01834          1.9419 
        2.12305         7.96474         1.92831 
        2.12918         7.93558         1.91488 
        2.13531         7.90985         1.90158 
        2.14145          7.8811         1.88837 
         2.1476         7.85465         1.87527 
        2.15372         7.81566         1.86237 
        2.15985          7.7959         1.84957 
        2.16599         7.76787         1.83686 
        2.17213         7.75851         1.82428 
        2.17827         7.70479         1.81182 
         2.1844         7.68436         1.79949 
        2.19054          7.6601         1.78727 
        2.19666         7.62594         1.77518 
         2.2028         7.59058         1.76319 
        2.20893         7.57219         1.75131 
        2.21508         7.54619         1.73952 
        2.22122         7.49288         1.72784 
        2.22736         7.47948         1.71629 
        2.23349         7.45355         1.70485 
        2.23962         7.43667          1.6935 
        2.24577         7.40001         1.68225 
         2.2519         7.39358         1.67112 
        2.25802         7.32244         1.66011 
        2.26417         7.32223         1.64917 
        2.27031         7.28955         1.63831 
        2.27644         7.26509         1.62758 
        2.28257         7.23008         1.61696 
        2.28872         7.22065          1.6064 
        2.29486         7.19126         1.59595 
        2.30099         7.17015          1.5856 
        2.30712         7.13571         1.57535 
        2.31326         7.10873         1.56517 
         2.3194          7.0832         1.55508 
        2.32553         7.05289          1.5451 
        2.33166         7.03196         1.53521 
         2.3378         7.01369          1.5254 
        2.34394         6.98903         1.51567 
        2.35007         6.95431         1.50603 
        2.35619         6.94474          1.4965 
        2.36233         6.90279         1.48702 
        2.36848          6.8897         1.47761 
        2.37462         6.86623         1.46829 
        2.38075         6.85156         1.45907 
        2.38689         6.82846         1.44992 
        2.39303         6.78693         1.44084 
        2.39916         6.77721         1.43186 
        2.40529         6.74575         1.42295 
        2.41143         6.72817         1.41412 
        2.41757         6.70506         1.40535 
         2.4237         6.67989         1.39667 
        2.42983         6.66704         1.38807 
        2.43598         6.64617         1.37952 
        2.44211         6.62441         1.37105 
        2.44823         6.58441         1.36268 
        2.45437          6.5704         1.35435 
        2.46052         6.55362         1.34608 
        2.46665         6.53544          1.3379 
        2.47279         6.50761         1.32979 
        2.47892         6.47687         1.32174 
        2.48507         6.46435         1.31375 
         2.4912         6.44045         1.30585 
