# k  (h/Mpc)    Pcb(k)  (Mpc/h)^3    Pcb_linear(k)  (Mpc/h)^3
     0.00783031         1372.83         1385.68 
       0.013688         1514.22         1530.97 
       0.019231         1376.09         1381.66 
      0.0249154         1125.02         1121.45 
      0.0312784         840.229         837.059 
      0.0375637         631.378         630.081 
      0.0433917          514.89         511.905 
      0.0492413         449.004          448.13 
      0.0555754         417.262         414.983 
      0.0619321         390.573         393.053 
       0.067871          365.72          365.76 
      0.0738098         326.219         325.977 
      0.0800417         276.595         275.261 
      0.0862327         226.782         225.843 
      0.0921407         188.869         187.701 
      0.0982031         163.184         161.255 
       0.104506         146.954         146.447 
       0.110769         141.128         140.586 
       0.116806         139.372         138.371 
       0.122832         135.198         135.026 
       0.129052         128.145          127.47 
       0.135211         116.813         115.642 
       0.141259         102.682         101.815 
       0.147318         89.1801         88.5114 
       0.153489         78.8176          77.701 
       0.159709         71.8542         70.5099 
       0.165845         67.3259         66.7258 
       0.171974         66.4068         65.1028 
       0.178125         65.1574          64.179 
       0.184229         63.3036         62.6536 
        0.19034         60.7744          59.779 
       0.196428         56.6192         55.5926 
       0.202534         51.2696         50.6912 
       0.208729         47.0213         45.8603 
       0.214876         43.3197         41.8953 
       0.220989         40.1373          39.079 
       0.227147         38.6712         37.3101 
        0.23329         37.5549         36.2718 
       0.239377         36.7989         35.5033 
       0.245482         35.7613         34.5807 
       0.251667         34.1687         33.2424 
       0.257832         32.7928         31.4815 
       0.263955          30.549         29.4888 
       0.270079          28.588         27.5101 
        0.27624         26.8096         25.7614 
       0.282372         25.4775         24.3893 
        0.28843         24.6925         23.3919 
       0.294538         23.8487         22.6588 
       0.300721         23.0433         22.0468 
        0.30691         22.5678         21.4254 
       0.313033         21.7764         20.7057 
       0.319153         21.1155         19.8637 
       0.325316         19.9731         18.9307 
        0.33145         19.0019         17.9967 
       0.337538         18.1865          17.136 
       0.343633         17.5502         16.3949 
       0.349808         16.8634         15.7739 
       0.355968         16.3095         15.2661 
       0.362074         15.9641         14.8276 
       0.368217         15.4727         14.4047 
       0.374374         15.0979         13.9659 
       0.380519         14.5122         13.4949 
       0.386598         13.9785         13.0064 
       0.392688         13.4528         12.5132 
        0.39888          13.056         12.0312 
       0.405048          12.651         11.5935 
       0.411186         12.2246         11.2055 
       0.417313          11.863         10.8619 
       0.423458         11.4699         10.5518 
       0.429607         11.2667         10.2587 
       0.435692         11.0142         9.97203 
       0.441815         10.6227         9.68174 
       0.447964         10.2729          9.3869 
       0.454126          10.037         9.09087 
       0.460267         9.82266         8.80432 
       0.466387         9.50217         8.53446 
        0.47254          9.2912         8.28154 
       0.478662         9.00502         8.04777 
       0.484765         8.78472         7.83149 
       0.490885         8.51735         7.62683 
       0.497035         8.30246         7.42799 
       0.503198         8.15117         7.23155 
       0.509342         7.89577         7.03821 
       0.515458         7.73819         6.84942 
       0.521598         7.55642         6.66462 
       0.527764         7.40324         6.48514 
       0.533884         7.16346         6.31458 
           0.54          7.0308         6.15307 
       0.546137         6.82589         5.99972 
       0.552299         6.68436         5.85291 
       0.558452          6.5176         5.71148 
       0.564573         6.40359          5.5744 
       0.570708         6.26259         5.44022 
       0.576825         6.13205         5.30987 
       0.582926         5.98442         5.18356 
       0.589034         5.86552         5.06095 
       0.595184         5.77476         4.94152 
       0.601379          5.6179         4.82535 
       0.607522         5.48565         4.71429 
       0.613639         5.37312         4.60778 
       0.619772         5.27962         4.50489 
       0.625918         5.16834         4.40526 
       0.632068         5.07796         4.30861 
       0.638161         4.97354          4.2155 
         0.6443         4.86846         4.12406 
       0.650464         4.76053          4.0346 
       0.656582         4.70165         3.94823 
       0.662703          4.6098         3.86433 
       0.668861         4.49091         3.78251 
       0.675024         4.40623         3.70325 
       0.681124         4.38878         3.62731 
       0.687237         4.27975         3.55353 
       0.693381         4.16761         3.48155 
       0.699536         4.12951         3.41147 
       0.705665         4.04643         3.34356 
       0.711789         3.95867         3.27746 
       0.717957         3.88154         3.21261 
        0.72409         3.82609          3.1498 
       0.730186           3.791         3.08903 
       0.736317         3.69518         3.02952 
       0.742472         3.65052         2.97138 
       0.748622         3.58949         2.91486 
        0.75476         3.49828         2.85998 
       0.760888         3.46247         2.80664 
       0.767043         3.37659         2.75448 
       0.773185          3.3343         2.70378 
       0.779291         3.31067         2.65466 
       0.785407         3.23987          2.6067 
       0.791564         3.18503         2.55962 
       0.797719         3.12952         2.51372 
       0.803834         3.09248         2.46923 
       0.809972         3.03261         2.42567 
       0.816124         2.99474         2.38306 
       0.822261          2.9478         2.34159 
       0.828378         2.90334         2.30123 
       0.834502         2.85764          2.2618 
       0.840667         2.82351         2.22304 
       0.846816          2.7641          2.1853 
       0.852925         2.73045         2.14868 
       0.859047         2.68837         2.11282 
       0.865192          2.6489         2.07768 
       0.871341         2.61346         2.04331 
       0.877463         2.56714         2.00988 
       0.883569         2.53968         1.97729 
       0.889708         2.50493         1.94526 
       0.895864         2.46906         1.91386 
       0.902008         2.42636         1.88322 
       0.908149         2.39497         1.85327 
       0.914301         2.36272         1.82393 
       0.920448         2.33907         1.79526 
       0.926574         2.31462          1.7673 
       0.932687         2.27523         1.74001 
       0.938823         2.23103         1.71319 
       0.944975         2.21826         1.68688 
       0.951105         2.16896         1.66122 
       0.957225         2.15642         1.63614 
       0.963368         2.12686         1.61149 
       0.969511         2.10016         1.58736 
       0.975621         2.06783         1.56384 
       0.981748         2.03311         1.54075 
       0.987916         2.01296         1.51798 
        0.99406         1.99395         1.49575 
        1.00019         1.96703         1.47402 
        1.00632         1.94797         1.45274 
        1.01246         1.91938         1.43185 
        1.01859         1.89707          1.4114 
        1.02471         1.86538         1.39138 
        1.03085         1.84492         1.37168 
        1.03698          1.8258         1.35241 
        1.04314         1.80297         1.33342 
        1.04929         1.78457         1.31484 
        1.05541         1.75597          1.2967 
        1.06154          1.7425         1.27885 
        1.06769         1.72641         1.26131 
        1.07382         1.69805         1.24416 
        1.07993         1.67652         1.22737 
        1.08607         1.66425         1.21082 
        1.09222         1.64015         1.19456 
        1.09836         1.63075         1.17862 
        1.10449         1.59759         1.16299 
        1.11063         1.58333         1.14763 
        1.11677         1.56935         1.13255 
         1.1229         1.54841         1.11777 
        1.12903         1.53689         1.10324 
        1.13518         1.51385         1.08896 
        1.14131         1.50005         1.07494 
        1.14745         1.48304         1.06117 
        1.15359         1.46511         1.04764 
        1.15973         1.44849         1.03435 
        1.16584         1.43553         1.02135 
        1.17197         1.41528         1.00855 
        1.17811         1.40027        0.995929 
        1.18424         1.38607        0.983564 
        1.19038         1.37275        0.971374 
        1.19652         1.35821        0.959395 
        1.20267         1.34795        0.947618 
        1.20881         1.33145        0.936042 
        1.21495         1.31721        0.924678 
        1.22108         1.30535        0.913505 
         1.2272         1.28694        0.902543 
        1.23334         1.27854        0.891736 
        1.23949         1.26247        0.881081 
        1.24562         1.25226         0.87063 
        1.25174         1.24323        0.860364 
        1.25789         1.22429        0.850233 
        1.26402          1.2129        0.840283 
        1.27014         1.19845        0.830516 
        1.27628         1.18926        0.820876 
        1.28244         1.17656         0.81137 
        1.28858         1.16564        0.802028 
        1.29471         1.15215        0.792854 
        1.30084         1.14321        0.783832 
        1.30697         1.13433        0.774937 
        1.31312          1.1226        0.766167 
        1.31925         1.11139        0.757561 
        1.32537          1.1027        0.749096 
        1.33151         1.08927        0.740731 
        1.33765         1.07986        0.732498 
        1.34378          1.0717        0.724407 
        1.34992          1.0616        0.716433 
        1.35606         1.05064        0.708562 
         1.3622         1.04272        0.700824 
        1.36833         1.03059         0.69322 
        1.37445         1.01986        0.685732 
        1.38059         1.01205        0.678333 
        1.38675         1.00224        0.671025 
        1.39288        0.996413        0.663855 
        1.39901        0.984308        0.656792 
        1.40515        0.976588        0.649817 
         1.4113        0.970182        0.642945 
        1.41742        0.958468          0.6362 
        1.42355        0.950135        0.629539 
         1.4297        0.942649        0.622953 
        1.43585         0.93472        0.616464 
        1.44198        0.926877        0.610092 
        1.44809        0.919005        0.603822 
        1.45423        0.910179        0.597618 
        1.46036        0.903586        0.591511 
        1.46649         0.89294        0.585488 
        1.47263        0.888607        0.579544 
        1.47877         0.88384        0.573685 
        1.48491        0.869954        0.567897 
        1.49104        0.864922        0.562202 
        1.49718        0.857246        0.556581 
        1.50333        0.850306        0.551027 
        1.50947        0.844283        0.545561 
         1.5156        0.837484        0.540177 
        1.52172         0.82978        0.534865 
        1.52787        0.823099        0.529615 
          1.534         0.81803        0.524441 
        1.54013        0.810527        0.519342 
        1.54627        0.803322        0.514302 
        1.55241        0.796296        0.509328 
        1.55855        0.790356        0.504426 
        1.56467        0.784377        0.499603 
         1.5708         0.77811        0.494829 
        1.57695        0.771234         0.49011 
        1.58308        0.763614        0.485464 
        1.58922        0.759585        0.480875 
        1.59535        0.752135        0.476347 
         1.6015        0.746625        0.471871 
        1.60764        0.741333        0.467455 
        1.61376        0.734374        0.463108 
        1.61989        0.729442        0.458812 
        1.62604        0.722336        0.454562 
        1.63218        0.718686        0.450367 
        1.63831        0.712838        0.446236 
        1.64444        0.706972        0.442155 
        1.65059        0.702936        0.438115 
        1.65673         0.69494         0.43413 
        1.66285        0.690903        0.430206 
        1.66898        0.686561        0.426329 
        1.67512        0.678462        0.422492 
        1.68127        0.675296        0.418699 
         1.6874        0.671956        0.414961 
        1.69353        0.665197         0.41127 
        1.69967        0.660591        0.407616 
        1.70581        0.657878        0.404008 
        1.71193        0.649308        0.400457 
        1.71806        0.647489        0.396941 
        1.72421         0.64272         0.39346 
        1.73035         0.63581        0.390025 
        1.73649        0.633687        0.386632 
        1.74262        0.627136        0.383281 
        1.74876        0.623102        0.379969 
        1.75489         0.61927        0.376702 
        1.76101        0.612884        0.373475 
        1.76715        0.609801        0.370281 
        1.77329         0.60629         0.36712 
        1.77943        0.601866        0.363995 
        1.78557        0.598493        0.360911 
        1.79171        0.594141        0.357862 
        1.79785        0.590158        0.354848 
        1.80399        0.583917        0.351869 
        1.81012        0.581305        0.348929 
        1.81625        0.576347        0.346023 
        1.82239        0.573329        0.343146 
        1.82853        0.569073        0.340303 
        1.83466        0.565007        0.337495 
        1.84078        0.561147        0.334722 
        1.84692        0.556906        0.331975 
        1.85306        0.555171        0.329256 
         1.8592        0.549085        0.326572 
        1.86533        0.547119        0.323919 
        1.87147         0.54208        0.321292 
        1.87761        0.538712        0.318693 
        1.88375        0.535008        0.316127 
        1.88988        0.530793        0.313591 
        1.89601        0.527338        0.311082 
        1.90215        0.524633        0.308598 
        1.90829        0.520854        0.306142 
        1.91442        0.517894        0.303713 
        1.92056         0.51491        0.301313 
         1.9267        0.510975        0.298936 
        1.93284        0.507133        0.296583 
        1.93897        0.504054         0.29426 
        1.94509        0.500931        0.291967 
        1.95123        0.497216        0.289692 
        1.95737        0.494937         0.28744 
        1.96349        0.490871        0.285217 
        1.96964        0.489342        0.283012 
        1.97578        0.484921        0.280829 
        1.98192        0.481728        0.278674 
        1.98805        0.478709         0.27654 
        1.99419        0.475727        0.274429 
        2.00033        0.473397        0.272339 
        2.00647         0.47121        0.270272 
         2.0126        0.468014        0.268229 
        2.01874        0.464373        0.266204 
        2.02488        0.460949        0.264198 
        2.03101        0.458228        0.262217 
        2.03714        0.456564        0.260258 
        2.04328        0.453219        0.258317 
        2.04941        0.450658        0.256397 
        2.05554        0.447002        0.254498 
        2.06167        0.444832        0.252615 
        2.06781        0.441526        0.250752 
        2.07396        0.440024        0.248904 
        2.08009        0.436767        0.247078 
        2.08622        0.434254        0.245273 
        2.09237        0.431835        0.243482 
        2.09851        0.429231        0.241709 
        2.10464        0.426425        0.239956 
        2.11077        0.422551        0.238223 
        2.11691        0.420838        0.236503 
        2.12305        0.419611          0.2348 
        2.12918        0.416121        0.233117 
        2.13531        0.413926        0.231451 
        2.14145        0.411386        0.229798 
         2.1476        0.408659        0.228159 
        2.15372        0.406732        0.226544 
        2.15985         0.40384        0.224943 
        2.16599        0.402226        0.223352 
        2.17213        0.399314        0.221779 
        2.17827        0.397072        0.220222 
         2.1844         0.39493         0.21868 
        2.19054        0.392763        0.217153 
        2.19666        0.390393        0.215643 
         2.2028        0.388146        0.214146 
        2.20893        0.386901        0.212662 
        2.21508        0.384191        0.211191 
        2.22122        0.382011        0.209733 
        2.22736        0.378711        0.208292 
        2.23349        0.376839        0.206864 
        2.23962         0.37575        0.205449 
        2.24577        0.373255        0.204047 
         2.2519         0.37079        0.202659 
        2.25802        0.369475        0.201286 
        2.26417        0.366701        0.199923 
        2.27031        0.365237         0.19857 
        2.27644        0.363616        0.197234 
        2.28257        0.360761        0.195911 
        2.28872        0.359663        0.194597 
        2.29486        0.356909        0.193295 
        2.30099        0.355145        0.192008 
        2.30712        0.353366        0.190732 
        2.31326        0.351403        0.189466 
         2.3194        0.348881        0.188211 
        2.32553        0.347358         0.18697 
        2.33166        0.346185        0.185741 
         2.3378        0.344318        0.184521 
        2.34394        0.342409        0.183312 
        2.35007        0.339593        0.182116 
        2.35619        0.337755        0.180931 
        2.36233        0.336656        0.179754 
        2.36848        0.335105        0.178585 
        2.37462        0.333032        0.177429 
        2.38075        0.331471        0.176285 
        2.38689        0.330239        0.175149 
        2.39303        0.327574        0.174024 
        2.39916        0.326599         0.17291 
        2.40529        0.324879        0.171805 
        2.41143        0.322514         0.17071 
        2.41757        0.321259        0.169623 
         2.4237        0.319575        0.168548 
        2.42983        0.317417        0.167482 
        2.43598        0.316196        0.166423 
        2.44211        0.314569        0.165375 
        2.44823        0.312912        0.164338 
        2.45437        0.311904        0.163306 
        2.46052        0.310516        0.162283 
        2.46665         0.30851        0.161271 
        2.47279        0.307035        0.160267 
        2.47892        0.305134        0.159272 
        2.48507        0.304352        0.158284 
         2.4912        0.302557        0.157306 
