# k  (h/Mpc)    P(k)  (Mpc/h)^3    P_linear(k)  (Mpc/h)^3
     0.00783031         4840.48         4888.52 
       0.013688         5669.88         5770.51 
       0.019231         5534.39         5582.66 
      0.0249154         4923.63         4910.79 
      0.0312784         4012.06          4018.1 
      0.0375637         3239.34         3255.27 
      0.0433917         2749.19         2741.41 
      0.0492413         2399.49         2404.31 
      0.0555754         2194.04          2183.1 
      0.0619321         2006.06          2035.8 
       0.067871         1899.08         1906.49 
      0.0738098         1750.22         1752.15 
      0.0800417         1563.85         1558.46 
      0.0862327          1354.4         1353.16 
      0.0921407         1177.46         1171.21 
      0.0982031         1036.02         1019.04 
       0.104506         912.075         906.441 
       0.110769         844.742         836.328 
       0.116806         812.513         796.023 
       0.122832          774.64          767.61 
       0.129052         745.001         736.524 
       0.135211         709.968          695.16 
       0.141259         652.528         642.968 
       0.147318         590.313         584.013 
       0.153489          537.08         524.925 
       0.159709         493.502         473.534 
       0.165845           446.9         434.714 
       0.171974         430.914         407.881 
       0.178125         412.028         390.241 
       0.184229         391.942         377.742 
        0.19034         383.587         365.925 
       0.196428          369.47         351.701 
       0.202534         344.135         333.738 
       0.208729         330.826         312.461 
       0.214876         311.906         290.354 
       0.220989         287.048         269.691 
       0.227147         275.669         251.944 
        0.23329         262.576         238.006 
       0.239377         254.704         227.609 
       0.245482         243.021         219.601 
       0.251667         233.476         212.624 
       0.257832         230.478          205.59 
       0.263955         217.833         197.798 
       0.270079         208.586         189.032 
        0.27624         198.735         179.594 
       0.282372         191.156         170.226 
        0.28843         187.345         161.604 
       0.294538         177.793         153.987 
       0.300721         170.061         147.491 
        0.30691         166.857         142.077 
       0.313033         159.812         137.443 
       0.319153         157.079          133.15 
       0.325316         151.508         128.828 
        0.33145         146.554         124.365 
       0.337538         141.433         119.741 
       0.343633         136.932         115.053 
       0.349808         132.181         110.413 
       0.355968         128.399         106.073 
       0.362074         125.421         102.164 
       0.368217         122.249         98.6452 
       0.374374         119.053         95.4856 
       0.380519         114.085         92.5859 
       0.386598         111.505         89.8631 
       0.392688         108.102         87.1875 
        0.39888         106.145         84.4674 
       0.405048          103.56         81.7658 
       0.411186         101.317         79.1083 
       0.417313         98.5527         76.5395 
       0.423458         95.8765         74.0969 
       0.429607         93.8239         71.8061 
       0.435692         92.3289         69.6969 
       0.441815         89.2422         67.7179 
       0.447964         86.5222         65.8391 
       0.454126         84.9461         64.0321 
       0.460267          84.165         62.2848 
       0.466387         81.9311         60.5797 
        0.47254         80.8983         58.8959 
       0.478662         78.0342         57.2635 
       0.484765         76.7122         55.6912 
       0.490885         74.7043         54.1781 
       0.497035         73.9803         52.7261 
       0.503198         72.2965          51.344 
       0.509342         70.3789         50.0326 
       0.515458         69.3754         48.7816 
       0.521598         67.6369         47.5693 
       0.527764         66.8196         46.3893 
       0.533884         66.0543         45.2519 
           0.54         64.3121         44.1461 
       0.546137         62.6403         43.0665 
       0.552299         61.5172         42.0159 
       0.558452         60.3201         41.0037 
       0.564573         59.9864          40.035 
       0.570708         58.2351         39.1006 
       0.576825         57.6304         38.2023 
       0.582926          56.838         37.3368 
       0.589034         55.7202          36.498 
       0.595184          54.992         35.6794 
       0.601379         53.6111         34.8795 
       0.607522         52.6422         34.1089 
       0.613639         52.1403         33.3628 
       0.619772         51.0957         32.6361 
       0.625918         50.4481         31.9297 
       0.632068         49.7675         31.2449 
       0.638161         48.8274         30.5881 
         0.6443         48.3628          29.947 
       0.650464         47.2032          29.323 
       0.656582         46.9944         28.7215 
       0.662703         46.3024         28.1366 
       0.668861         45.2064         27.5642 
       0.675024         44.9269         27.0069 
       0.681124         44.4028         26.4705 
       0.687237         43.5229         25.9477 
       0.693381         42.9329         25.4368 
       0.699536         42.5421         24.9392 
       0.705665         41.8641         24.4574 
       0.711789         41.2275         23.9891 
       0.717957         40.5546           23.53 
        0.72409         40.1355         23.0857 
       0.730186         39.8953         22.6556 
       0.736317         39.1367         22.2341 
       0.742472         38.6623         21.8219 
       0.748622         38.1127         21.4206 
        0.75476         37.4592         21.0304 
       0.760888         37.3909         20.6506 
       0.767043         36.6245         20.2789 
       0.773185          36.188         19.9172 
       0.779291         35.7514         19.5665 
       0.785407         35.3033         19.2239 
       0.791564         35.2318         18.8875 
       0.797719         34.4967         18.5594 
       0.803834          34.294         18.2412 
       0.809972         33.7788         17.9294 
       0.816124         33.4364         17.6243 
       0.822261         33.0002         17.3272 
       0.828378         32.7989         17.0378 
       0.834502         32.4112         16.7549 
       0.840667         32.1006         16.4767 
       0.846816         31.5762         16.2056 
       0.852925         31.3649         15.9424 
       0.859047            31.2         15.6845 
       0.865192         30.6894         15.4316 
       0.871341         30.3257         15.1841 
       0.877463         30.0203         14.9432 
       0.883569         29.8889         14.7083 
       0.889708         29.4986         14.4772 
       0.895864         29.1577         14.2505 
       0.902008          28.885         14.0292 
       0.908149         28.5442         13.8128 
       0.914301         28.3333         13.6007 
       0.920448         28.0776         13.3932 
       0.926574         27.7418         13.1908 
       0.932687         27.4502         12.9931 
       0.938823         27.0995         12.7988 
       0.944975         26.8978          12.608 
       0.951105         26.7064         12.4218 
       0.957225         26.4758         12.2398 
       0.963368          26.177         12.0608 
       0.969511         25.9421         11.8854 
       0.975621         25.7493         11.7145 
       0.981748         25.4435         11.5465 
       0.987916         25.2762         11.3808 
        0.99406         24.9575          11.219 
        1.00019         24.8125         11.0607 
        1.00632         24.6252         10.9057 
        1.01246         24.3688         10.7534 
        1.01859          24.154         10.6043 
        1.02471         23.9418         10.4582 
        1.03085         23.8158         10.3144 
        1.03698         23.6572         10.1736 
        1.04314         23.3932         10.0349 
        1.04929         23.1088         9.89916 
        1.05541         23.0494         9.76646 
        1.06154         22.8608         9.63589 
        1.06769         22.5498         9.50753 
        1.07382          22.422         9.38196 
        1.07993         22.2394         9.25895 
        1.08607         22.0671         9.13766 
        1.09222         21.8914         9.01843 
        1.09836         21.6722         8.90149 
        1.10449         21.6039         8.78678 
        1.11063         21.3989         8.67397 
        1.11677         21.3389          8.5632 
         1.1229         21.0984         8.45456 
        1.12903         20.9081         8.34773 
        1.13518         20.8282         8.24267 
        1.14131         20.6553         8.13948 
        1.14745         20.4205         8.03813 
        1.15359         20.2253         7.93851 
        1.15973         20.1476         7.84054 
        1.16584         19.9668         7.74467 
        1.17197         19.7494         7.65029 
        1.17811         19.6764          7.5572 
        1.18424         19.4643         7.46594 
        1.19038         19.4173         7.37593 
        1.19652         19.2022         7.28746 
        1.20267         19.1431         7.20045 
        1.20881           18.95         7.11488 
        1.21495         18.8608         7.03086 
        1.22108         18.7757         6.94821 
         1.2272         18.6108          6.8671 
        1.23334         18.5115          6.7871 
        1.23949         18.3479          6.7082 
        1.24562         18.1715         6.63079 
        1.25174         18.1233         6.55472 
        1.25789         18.0143         6.47962 
        1.26402         17.8902         6.40585 
        1.27014         17.7849         6.33341 
        1.27628         17.6106         6.26188 
        1.28244         17.6075         6.19133 
        1.28858         17.4077         6.12196 
        1.29471         17.2614         6.05382 
        1.30084         17.1566         5.98679 
        1.30697         17.0653         5.92068 
        1.31312         16.9512         5.85548 
        1.31925         16.8492         5.79147 
        1.32537         16.7041         5.72849 
        1.33151         16.5922         5.66622 
        1.33765         16.5696         5.60493 
        1.34378         16.4626         5.54467 
        1.34992         16.3354         5.48526 
        1.35606         16.1845         5.42659 
         1.3622         16.1055          5.3689 
        1.36833         16.0581         5.31218 
        1.37445          15.933         5.25632 
        1.38059         15.8351         5.20109 
        1.38675         15.7539         5.14653 
        1.39288         15.6261         5.09297 
        1.39901         15.5286          5.0402 
        1.40515         15.4735         4.98807 
         1.4113          15.377          4.9367 
        1.41742         15.2953         4.88624 
        1.42355         15.1763         4.83641 
         1.4297         15.0881         4.78712 
        1.43585         15.0076         4.73855 
        1.44198         14.9727         4.69084 
        1.44809         14.8681         4.64387 
        1.45423         14.7738         4.59739 
        1.46036         14.6816         4.55162 
        1.46649         14.5957         4.50647 
        1.47263         14.5206          4.4619 
        1.47877         14.4241         4.41796 
        1.48491         14.3701         4.37454 
        1.49104         14.2781          4.3318 
        1.49718         14.2237          4.2896 
        1.50333         14.1534          4.2479 
        1.50947         14.0653         4.20685 
         1.5156         13.9968          4.1664 
        1.52172         13.8939         4.12649 
        1.52787         13.8815         4.08702 
          1.534         13.7788         4.04812 
        1.54013         13.7217         4.00977 
        1.54627         13.6069         3.97185 
        1.55241         13.5182         3.93442 
        1.55855         13.4671         3.89753 
        1.56467         13.4288         3.86121 
         1.5708         13.3553         3.82526 
        1.57695         13.2902         3.78971 
        1.58308          13.195          3.7547 
        1.58922         13.1342         3.72011 
        1.59535         13.0768         3.68597 
         1.6015         12.9707         3.65221 
        1.60764         12.9275         3.61889 
        1.61376         12.8871         3.58608 
        1.61989         12.7732         3.55365 
        1.62604         12.7458         3.52155 
        1.63218         12.6846         3.48987 
        1.63831          12.594         3.45866 
        1.64444         12.5327         3.42782 
        1.65059         12.4788         3.39728 
        1.65673         12.4281         3.36715 
        1.66285         12.3369         3.33747 
        1.66898         12.3161         3.30814 
        1.67512         12.2831         3.27911 
        1.68127         12.1943          3.2504 
         1.6874         12.1596          3.2221 
        1.69353         12.0335         3.19416 
        1.69967         12.0009         3.16648 
        1.70581         11.9577         3.13915 
        1.71193         11.8811         3.11224 
        1.71806         11.8342         3.08559 
        1.72421         11.7813         3.05921 
        1.73035         11.7354         3.03316 
        1.73649         11.6885         3.00743 
        1.74262         11.6095         2.98201 
        1.74876           11.57         2.95688 
        1.75489         11.5256         2.93208 
        1.76101         11.4304         2.90758 
        1.76715         11.4271         2.88333 
        1.77329          11.343         2.85933 
        1.77943         11.2933         2.83559 
        1.78557         11.2795         2.81216 
        1.79171         11.1939         2.78898 
        1.79785          11.141         2.76607 
        1.80399         11.0889         2.74342 
        1.81012         11.0469         2.72106 
        1.81625         11.0004         2.69895 
        1.82239         10.9367         2.67706 
        1.82853         10.8916         2.65543 
        1.83466         10.8247         2.63405 
        1.84078         10.7902         2.61293 
        1.84692         10.7885         2.59201 
        1.85306         10.7246          2.5713 
         1.8592          10.679         2.55085 
        1.86533         10.6035         2.53063 
        1.87147         10.5656          2.5106 
        1.87761         10.5321         2.49079 
        1.88375          10.494         2.47121 
        1.88988         10.4201         2.45187 
        1.89601         10.3993         2.43272 
        1.90215         10.3305         2.41376 
        1.90829         10.2798         2.39502 
        1.91442         10.2422         2.37647 
        1.92056         10.2222         2.35814 
         1.9267         10.1835         2.33998 
        1.93284         10.1621         2.32201 
        1.93897         10.0782         2.30426 
        1.94509         10.0418         2.28673 
        1.95123         9.99838         2.26934 
        1.95737          9.9607         2.25212 
        1.96349         9.90257         2.23513 
        1.96964         9.88589         2.21826 
        1.97578         9.84626         2.20156 
        1.98192         9.81685         2.18506 
        1.98805          9.7449         2.16874 
        1.99419         9.72606         2.15258 
        2.00033         9.67687         2.13658 
        2.00647         9.62905         2.12074 
         2.0126         9.60118         2.10509 
        2.01874         9.55581         2.08958 
        2.02488         9.50544         2.07421 
        2.03101         9.50335         2.05903 
        2.03714         9.43901         2.04401 
        2.04328         9.39767         2.02913 
        2.04941         9.35435          2.0144 
        2.05554         9.33715         1.99984 
        2.06167          9.3083          1.9854 
        2.06781         9.27475          1.9711 
        2.07396         9.23702         1.95692 
        2.08009         9.16473          1.9429 
        2.08622         9.15898         1.92904 
        2.09237           9.134         1.91529 
        2.09851          9.0707         1.90167 
        2.10464         9.05497         1.88821 
        2.11077         8.99332         1.87489 
        2.11691         8.97536         1.86168 
        2.12305         8.93746         1.84859 
        2.12918         8.88377         1.83565 
        2.13531         8.87101         1.82284 
        2.14145         8.82494         1.81013 
         2.1476         8.79934         1.79752 
        2.15372           8.779         1.78509 
        2.15985          8.7264         1.77277 
        2.16599         8.70862         1.76053 
        2.17213         8.69409         1.74842 
        2.17827         8.64467         1.73643 
         2.1844         8.61417         1.72456 
        2.19054         8.58182          1.7128 
        2.19666          8.5547         1.70116 
         2.2028         8.52406         1.68963 
        2.20893         8.48436         1.67819 
        2.21508         8.45393         1.66685 
        2.22122         8.40771         1.65561 
        2.22736         8.38462          1.6445 
        2.23349         8.34938         1.63349 
        2.23962         8.32881         1.62258 
        2.24577         8.31717         1.61176 
         2.2519         8.28049         1.60105 
        2.25802         8.22217         1.59046 
        2.26417         8.21472         1.57993 
        2.27031         8.19222         1.56949 
        2.27644          8.1686         1.55918 
        2.28257         8.09977         1.54896 
        2.28872         8.09182         1.53881 
        2.29486         8.06938         1.52875 
        2.30099         8.03414         1.51881 
        2.30712         7.98718         1.50895 
        2.31326         7.96765         1.49916 
         2.3194         7.93462         1.48946 
        2.32553         7.91646         1.47987 
        2.33166         7.87409         1.47036 
         2.3378         7.86157         1.46093 
        2.34394         7.82173         1.45157 
        2.35007         7.80775         1.44232 
        2.35619         7.77812         1.43315 
        2.36233         7.73663         1.42404 
        2.36848         7.71075         1.41499 
        2.37462         7.68614         1.40605 
        2.38075         7.65535         1.39718 
        2.38689         7.64392         1.38839 
        2.39303         7.60908         1.37967 
        2.39916         7.59456         1.37104 
        2.40529         7.57076         1.36248 
        2.41143         7.53524         1.35399 
        2.41757          7.4983         1.34557 
         2.4237         7.47998         1.33724 
        2.42983         7.46146         1.32898 
        2.43598          7.4282         1.32076 
        2.44211         7.39988         1.31263 
        2.44823         7.37522         1.30459 
        2.45437         7.35482         1.29659 
        2.46052         7.34437         1.28865 
        2.46665         7.31376         1.28079 
        2.47279         7.27825         1.27301 
        2.47892          7.2494         1.26528 
        2.48507         7.22957         1.25761 
         2.4912         7.21322         1.25001 
