# k  (h/Mpc)    P(k)  (Mpc/h)^3    P_linear(k)  (Mpc/h)^3
     0.00783031         823.585         832.271 
       0.013688         972.938         983.405 
       0.019231         947.792         951.822 
      0.0249154         838.112         837.492 
      0.0312784          685.96         685.375 
      0.0375637         555.295         555.321 
      0.0433917         469.387         467.695 
      0.0492413         410.541         410.206 
      0.0555754         374.172         372.482 
      0.0619321         345.537          347.36 
       0.067871         325.288         325.304 
      0.0738098         299.054         298.975 
      0.0800417         266.664         265.929 
      0.0862327         231.161         230.901 
      0.0921407         200.308         199.856 
      0.0982031         175.065          173.89 
       0.104506         154.833         154.678 
       0.110769         143.008         142.714 
       0.116806         136.749         135.837 
       0.122832         131.177         130.989 
       0.129052         126.224         125.685 
       0.135211         119.446         118.627 
       0.141259         110.148         109.721 
       0.147318         99.7855         99.6608 
       0.153489         90.1297         89.5779 
       0.159709         81.6777         80.8082 
       0.165845         74.4489         74.1837 
       0.171974         70.6558         69.6048 
       0.178125         67.4741         66.5947 
       0.184229         65.0115         64.4619 
        0.19034         63.3151         62.4453 
       0.196428         60.7757         60.0181 
       0.202534         57.2089         56.9527 
       0.208729         54.0623         53.3218 
       0.214876         50.5462         49.5493 
       0.220989           46.66         46.0233 
       0.227147         44.0867         42.9947 
        0.23329          41.747         40.6162 
       0.239377         40.0282          38.842 
       0.245482         38.5619         37.4753 
       0.251667         37.1145         36.2847 
       0.257832         36.2177         35.0845 
       0.263955          34.604         33.7547 
       0.270079         33.1066         32.2588 
        0.27624         31.4008         30.6483 
       0.282372         29.8632         29.0496 
        0.28843         28.6798         27.5782 
       0.294538         27.3182         26.2783 
       0.300721         26.0449         25.1697 
        0.30691         25.3246         24.2459 
       0.313033          24.441          23.455 
       0.319153         23.8995         22.7225 
       0.325316         22.8765          21.985 
        0.33145         22.0679         21.2232 
       0.337538           21.33         20.4343 
       0.343633         20.6298         19.6342 
       0.349808         19.7767         18.8423 
       0.355968         19.0247         18.1018 
       0.362074         18.4853         17.4346 
       0.368217         17.8362         16.8341 
       0.374374         17.3933          16.295 
       0.380519         16.7533         15.8001 
       0.386598         16.2285         15.3355 
       0.392688         15.7321         14.8789 
        0.39888         15.3419         14.4147 
       0.405048         14.9102         13.9536 
       0.411186         14.4337         13.5001 
       0.417313         13.9882         13.0618 
       0.423458            13.5         12.6449 
       0.429607         13.2156          12.254 
       0.435692         12.8972          11.894 
       0.441815         12.4544         11.5563 
       0.447964         12.0736         11.2357 
       0.454126         11.8322         10.9273 
       0.460267         11.6112         10.6292 
       0.466387         11.2666         10.3382 
        0.47254         11.0217         10.0508 
       0.478662         10.6956         9.77225 
       0.484765          10.431         9.50393 
       0.490885         10.1174         9.24571 
       0.497035         9.85001         8.99792 
       0.503198         9.66133         8.76207 
       0.509342         9.37596         8.53827 
       0.515458         9.20594         8.32478 
       0.521598         8.99777          8.1179 
       0.527764            8.83         7.91653 
       0.533884         8.55586         7.72243 
           0.54         8.40034         7.53372 
       0.546137         8.15949         7.34948 
       0.552299         7.99423          7.1702 
       0.558452         7.80644         6.99746 
       0.564573         7.66742         6.83214 
       0.570708         7.49925         6.67267 
       0.576825         7.34468         6.51939 
       0.582926         7.17657         6.37169 
       0.589034         7.04272         6.22854 
       0.595184         6.93377         6.08885 
       0.601379         6.75241         5.95234 
       0.607522         6.60726         5.82083 
       0.613639         6.46257          5.6935 
       0.619772         6.35961          5.5695 
       0.625918         6.22777         5.44895 
       0.632068         6.12254         5.33208 
       0.638161         5.99871         5.21999 
         0.6443         5.87595         5.11059 
       0.650464         5.74891         5.00409 
       0.656582         5.68313         4.90146 
       0.662703         5.57797         4.80164 
       0.668861         5.43439         4.70395 
       0.675024         5.33831         4.60885 
       0.681124         5.31559         4.51731 
       0.687237         5.18556         4.42809 
       0.693381          5.0535         4.34091 
       0.699536         5.00929         4.25599 
       0.705665         4.91486         4.17377 
       0.711789         4.80715         4.09385 
       0.717957         4.71741          4.0155 
        0.72409         4.65304         3.93967 
       0.730186         4.60858         3.86627 
       0.736317         4.49833         3.79435 
       0.742472          4.4428         3.72401 
       0.748622         4.37369         3.65553 
        0.75476         4.26612         3.58894 
       0.760888         4.22437         3.52413 
       0.767043         4.11902         3.46068 
       0.773185         4.07069         3.39896 
       0.779291         4.04099         3.33912 
       0.785407         3.95849         3.28065 
       0.791564         3.89645         3.22324 
       0.797719         3.83016         3.16724 
       0.803834         3.78134         3.11294 
       0.809972          3.7147         3.05974 
       0.816124         3.66538         3.00767 
       0.822261         3.61118         2.95696 
       0.828378         3.55571         2.90758 
       0.834502          3.5031          2.8593 
       0.840667         3.46369         2.81182 
       0.846816         3.39605         2.76556 
       0.852925          3.3509         2.72064 
       0.859047         3.30239         2.67663 
       0.865192         3.25664         2.63347 
       0.871341         3.21321         2.59124 
       0.877463         3.15895         2.55013 
       0.883569          3.1235         2.51003 
       0.889708         3.08308          2.4706 
       0.895864         3.04087         2.43192 
       0.902008         2.98945         2.39416 
       0.908149         2.95231         2.35722 
       0.914301         2.91683         2.32102 
       0.920448         2.88396         2.28561 
       0.926574         2.85739         2.25108 
       0.932687          2.8104         2.21734 
       0.938823         2.75846         2.18417 
       0.944975         2.73916         2.15161 
       0.951105         2.68351         2.11984 
       0.957225         2.66414         2.08877 
       0.963368         2.63272         2.05823 
       0.969511         2.60148          2.0283 
       0.975621         2.56181         1.99913 
       0.981748         2.51678         1.97046 
       0.987916         2.49341         1.94219 
        0.99406         2.47305         1.91458 
        1.00019         2.44016         1.88757 
        1.00632         2.41674          1.8611 
        1.01246         2.38123         1.83511 
        1.01859         2.35445         1.80967 
        1.02471         2.31579         1.78474 
        1.03085         2.29301          1.7602 
        1.03698         2.26997         1.73618 
        1.04314         2.24388         1.71251 
        1.04929         2.21963         1.68934 
        1.05541         2.18559         1.66669 
        1.06154          2.1695         1.64441 
        1.06769          2.1504         1.62251 
        1.07382         2.11667         1.60108 
        1.07993         2.08984         1.58008 
        1.08607         2.07432         1.55938 
        1.09222         2.04455         1.53904 
        1.09836         2.03408         1.51908 
        1.10449         1.99478         1.49951 
        1.11063         1.97693         1.48025 
        1.11677         1.96011         1.46135 
         1.1229         1.93272         1.44281 
        1.12903         1.92044         1.42458 
        1.13518         1.89268         1.40665 
        1.14131         1.87517         1.38904 
        1.14745         1.85467         1.37175 
        1.15359          1.8346         1.35474 
        1.15973         1.81402         1.33803 
        1.16584         1.79581         1.32167 
        1.17197         1.77387         1.30556 
        1.17811         1.75565         1.28967 
        1.18424         1.73765          1.2741 
        1.19038         1.71995         1.25874 
        1.19652         1.70514         1.24364 
        1.20267         1.69196         1.22879 
        1.20881         1.67053         1.21419 
        1.21495         1.65457         1.19985 
        1.22108         1.63995         1.18575 
         1.2272         1.61643          1.1719 
        1.23334         1.60683         1.15825 
        1.23949         1.58945         1.14479 
        1.24562         1.57535         1.13158 
        1.25174         1.56279         1.11859 
        1.25789         1.54089         1.10578 
        1.26402          1.5261         1.09319 
        1.27014         1.50918         1.08083 
        1.27628         1.49869         1.06862 
        1.28244         1.48429         1.05658 
        1.28858         1.46923         1.04474 
        1.29471         1.45268         1.03311 
        1.30084         1.44212         1.02167 
        1.30697         1.43211         1.01039 
        1.31312         1.41705        0.999266 
        1.31925         1.40362        0.988342 
        1.32537          1.3929        0.977594 
        1.33151         1.37683        0.966969 
        1.33765         1.36562        0.956509 
        1.34378         1.35382        0.946225 
        1.34992         1.34317        0.936086 
        1.35606         1.32926        0.926075 
         1.3622         1.31915        0.916228 
        1.36833         1.30511         0.90655 
        1.37445         1.29267        0.897016 
        1.38059         1.28268        0.887592 
        1.38675         1.27073        0.878281 
        1.39288         1.26235        0.869141 
        1.39901         1.24875        0.860136 
        1.40515         1.23814        0.851238 
         1.4113         1.23154        0.842471 
        1.41742          1.2163        0.833862 
        1.42355         1.20504        0.825357 
         1.4297         1.19808        0.816946 
        1.43585           1.187        0.808657 
        1.44198         1.17769        0.800514 
        1.44809         1.16774          0.7925 
        1.45423         1.15822        0.784567 
        1.46036         1.14894        0.776757 
        1.46649         1.13565        0.769052 
        1.47263         1.13026        0.761446 
        1.47877         1.12485        0.753946 
        1.48491         1.10826        0.746537 
        1.49104          1.1025        0.739243 
        1.49718         1.09197        0.732042 
        1.50333         1.08379        0.724926 
        1.50947           1.077         0.71792 
         1.5156         1.06732        0.711017 
        1.52172         1.05953        0.704206 
        1.52787         1.05008        0.697471 
          1.534         1.04449        0.690832 
        1.54013         1.03463        0.684288 
        1.54627         1.02659        0.677817 
        1.55241         1.01688        0.671429 
        1.55855         1.01018        0.665133 
        1.56467         1.00231        0.658935 
         1.5708        0.995075          0.6528 
        1.57695        0.986173        0.646733 
        1.58308        0.976934        0.640758 
        1.58922        0.972474        0.634855 
        1.59535        0.962397        0.629029 
         1.6015          0.9554        0.623267 
        1.60764        0.949374        0.617581 
        1.61376        0.941192        0.611982 
        1.61989        0.935219        0.606448 
        1.62604        0.925453        0.600971 
        1.63218        0.922284        0.595565 
        1.63831        0.914078        0.590238 
        1.64444        0.907472        0.584974 
        1.65059        0.901945        0.579763 
        1.65673        0.892614        0.574621 
        1.66285        0.887377        0.569556 
        1.66898        0.882266        0.564551 
        1.67512          0.8724        0.559596 
        1.68127        0.867067        0.554697 
         1.6874        0.863693        0.549868 
        1.69353        0.855014        0.545099 
        1.69967        0.850164        0.540376 
        1.70581        0.846187        0.535711 
        1.71193        0.836507         0.53112 
        1.71806        0.832858        0.526572 
        1.72421        0.827349        0.522069 
        1.73035        0.818269        0.517625 
        1.73649        0.817162        0.513233 
        1.74262        0.808247        0.508896 
        1.74876        0.803343        0.504606 
        1.75489         0.79876        0.500375 
        1.76101        0.790825        0.496194 
        1.76715        0.786925        0.492055 
        1.77329        0.782315        0.487959 
        1.77943        0.776746        0.483908 
        1.78557        0.772977        0.479909 
        1.79171        0.767515        0.475955 
        1.79785        0.761835        0.472044 
        1.80399        0.754745        0.468179 
        1.81012        0.751278        0.464362 
        1.81625        0.745489         0.46059 
        1.82239         0.74179        0.456855 
        1.82853        0.736009        0.453162 
        1.83466        0.730976        0.449514 
        1.84078        0.725931        0.445911 
        1.84692         0.72173        0.442341 
        1.85306        0.718891        0.438806 
         1.8592        0.711594        0.435315 
        1.86533        0.708571        0.431865 
        1.87147        0.701745        0.428447 
        1.87761        0.698725        0.425066 
        1.88375        0.693891        0.421725 
        1.88988        0.688529        0.418424 
        1.89601        0.684243        0.415157 
        1.90215        0.680983        0.411922 
        1.90829         0.67612        0.408723 
        1.91442        0.672154        0.405558 
        1.92056        0.669097        0.402429 
         1.9267        0.663852        0.399331 
        1.93284        0.658786        0.396263 
        1.93897        0.655288        0.393234 
        1.94509        0.652104        0.390243 
        1.95123        0.646308        0.387275 
        1.95737        0.643425        0.384337 
        1.96349        0.638898        0.381436 
        1.96964        0.636704        0.378558 
        1.97578        0.630572        0.375708 
        1.98192        0.627272        0.372893 
        1.98805        0.623796        0.370107 
        1.99419        0.620484        0.367349 
        2.00033        0.617114        0.364618 
        2.00647        0.613742        0.361916 
         2.0126        0.610313        0.359246 
        2.01874        0.606117        0.356598 
        2.02488        0.601212        0.353976 
        2.03101        0.597976        0.351384 
        2.03714        0.595882        0.348821 
        2.04328        0.591397        0.346281 
        2.04941        0.588014        0.343769 
        2.05554         0.58451        0.341283 
        2.06167        0.581375        0.338819 
        2.06781        0.576554        0.336378 
        2.07396        0.575288        0.333959 
        2.08009        0.571032        0.331567 
        2.08622        0.567777        0.329202 
        2.09237        0.564934        0.326855 
        2.09851        0.561085        0.324531 
        2.10464        0.558344        0.322233 
        2.11077        0.553349        0.319961 
        2.11691        0.551183        0.317705 
        2.12305        0.549812        0.315471 
        2.12918        0.545061        0.313264 
        2.13531          0.5421        0.311078 
        2.14145        0.538781        0.308908 
         2.1476        0.536328        0.306756 
        2.15372        0.533527        0.304636 
        2.15985        0.529828        0.302533 
        2.16599        0.527753        0.300444 
        2.17213        0.524476        0.298378 
        2.17827        0.520719        0.296331 
         2.1844        0.518871        0.294306 
        2.19054        0.516089        0.292299 
        2.19666         0.51339        0.290313 
         2.2028        0.510098        0.288344 
        2.20893         0.50812        0.286393 
        2.21508        0.504884        0.284457 
        2.22122         0.50264        0.282539 
        2.22736        0.498049        0.280643 
        2.23349        0.495569        0.278764 
        2.23962        0.494111        0.276902 
        2.24577        0.491385        0.275055 
         2.2519         0.48859        0.273228 
        2.25802        0.486664        0.271421 
        2.26417        0.482979        0.269624 
        2.27031        0.481069        0.267843 
        2.27644        0.479501        0.266082 
        2.28257         0.47547        0.264338 
        2.28872        0.474215        0.262606 
        2.29486        0.470807         0.26089 
        2.30099        0.468573        0.259193 
        2.30712        0.466175         0.25751 
        2.31326        0.463905         0.25584 
         2.3194        0.461374        0.254185 
        2.32553        0.458618        0.252548 
        2.33166        0.457495        0.250926 
         2.3378        0.454598        0.249316 
        2.34394        0.452485        0.247719 
        2.35007        0.448902        0.246139 
        2.35619         0.44644        0.244575 
        2.36233        0.444965        0.243021 
        2.36848        0.443484        0.241477 
        2.37462        0.440908         0.23995 
        2.38075        0.438422        0.238437 
        2.38689        0.436837        0.236936 
        2.39303        0.434165        0.235449 
        2.39916         0.43213        0.233976 
        2.40529        0.430576        0.232515 
        2.41143        0.427463        0.231067 
        2.41757        0.425677         0.22963 
         2.4237        0.423623        0.228207 
        2.42983        0.421154        0.226797 
        2.43598         0.41951        0.225396 
        2.44211        0.417069        0.224008 
        2.44823        0.415554        0.222635 
        2.45437         0.41395         0.22127 
        2.46052        0.412155        0.219916 
        2.46665        0.409491        0.218575 
        2.47279        0.407585        0.217246 
        2.47892        0.405651        0.215927 
        2.48507        0.404401        0.214618 
         2.4912        0.401868        0.213322 
