# k  (h/Mpc)    P(k)  (Mpc/h)^3    P_linear(k)  (Mpc/h)^3
     0.00783031         15242.2         15527.9 
       0.013688         17259.9         17144.3 
       0.019231         15753.6           15708 
      0.0249154         12884.4         13101.7 
      0.0312784           10095           10138 
      0.0375637         7918.39         7848.72 
      0.0433917         6404.71         6431.53 
      0.0492413         5601.22         5575.63 
      0.0555754         4978.15         5059.59 
      0.0619321         4783.01         4723.43 
       0.067871         4341.17         4399.72 
      0.0738098          3939.6         3984.93 
      0.0800417         3408.84         3460.68 
      0.0862327         2930.08         2923.25 
      0.0921407         2540.36         2472.29 
      0.0982031         2174.77         2120.84 
       0.104506          1994.8         1884.09 
       0.110769         1846.74         1754.15 
       0.116806         1761.25         1687.83 
       0.122832         1702.05         1636.71 
       0.129052            1590         1564.33 
       0.135211         1489.36         1456.72 
       0.141259         1388.35         1321.62 
       0.147318         1264.19         1176.45 
       0.153489         1126.01         1040.93 
       0.159709         1037.72         932.902 
       0.165845         977.629         859.379 
       0.171974         923.878         814.282 
       0.178125         886.731         787.163 
       0.184229         854.405         766.084 
        0.19034         804.585          740.52 
       0.196428         783.488         705.107 
       0.202534         749.285         659.825 
       0.208729         699.642          608.68 
       0.214876          655.74         559.256 
       0.220989         622.606         516.786 
       0.227147         591.223          483.47 
        0.23329          564.28         459.503 
       0.239377         550.979         442.554 
       0.245482         513.882         428.991 
       0.251667         510.066         415.385 
       0.257832         490.022         399.663 
       0.263955         471.457         381.284 
       0.270079         449.635         360.906 
        0.27624         440.837         340.071 
       0.282372         422.668         320.743 
        0.28843         408.791         304.184 
       0.294538         387.342         290.478 
       0.300721         383.274         279.257 
        0.30691         365.891         269.857 
       0.313033         357.796         261.301 
       0.319153         345.235         252.683 
       0.325316         335.733         243.431 
        0.33145          324.09         233.687 
       0.337538         317.955         223.771 
       0.343633         306.899         214.109 
       0.349808         295.377         205.012 
       0.355968         291.259         196.903 
       0.362074         285.588         189.846 
       0.368217         277.146         183.559 
       0.374374         265.174         177.813 
       0.380519         262.625         172.325 
       0.386598         255.458         166.944 
       0.392688         252.038          161.51 
        0.39888         245.199         155.946 
       0.405048         238.849         150.494 
       0.411186         234.081         145.276 
       0.417313         229.107         140.374 
       0.423458         223.647         135.837 
       0.429607         219.552         131.647 
       0.435692         213.133         127.788 
       0.441815         210.789         124.121 
       0.447964         206.085         120.573 
       0.454126         199.514         117.088 
       0.460267         196.094         113.677 
       0.466387         193.361         110.348 
        0.47254         189.001          107.09 
       0.478662         188.332         103.972 
       0.484765         181.255         101.016 
       0.490885         178.908         98.2114 
       0.497035         175.724         95.5363 
       0.503198         172.085         92.9846 
       0.509342         170.261         90.5485 
       0.515458         167.504         88.2075 
       0.521598         163.528         85.9208 
       0.527764         161.733         83.6817 
       0.533884         159.413         81.5229 
           0.54         156.665         79.4359 
       0.546137         155.437          77.416 
       0.552299         152.159         75.4639 
       0.558452         150.705         73.5912 
       0.564573         148.246         71.8031 
       0.570708         144.897           70.08 
       0.576825         143.049         68.4223 
       0.582926         140.496         66.8208 
       0.589034         138.998         65.2623 
       0.595184         137.381         63.7376 
       0.601379         135.018         62.2481 
       0.607522          132.93         60.8173 
       0.613639         131.704         59.4386 
       0.619772         129.071         58.1012 
       0.625918         127.832         56.8041 
       0.632068         125.955         55.5475 
       0.638161          124.96         54.3415 
         0.6443         123.097         53.1639 
       0.650464         121.869         52.0175 
       0.656582         119.767         50.9133 
       0.662703         119.096         49.8403 
       0.668861         116.906         48.7913 
       0.675024         115.272         47.7708 
       0.681124           114.5         46.7893 
       0.687237         112.646         45.8334 
       0.693381         110.847            44.9 
       0.699536         110.082         43.9917 
       0.705665         109.277         43.1133 
       0.711789         107.467         42.2602 
       0.717957         107.317         41.4249 
        0.72409         105.416          40.617 
       0.730186         103.971         39.8356 
       0.736317         102.938         39.0705 
       0.742472         102.134         38.3224 
       0.748622         101.067         37.5945 
        0.75476         100.044         36.8871 
       0.760888         98.8638         36.1989 
       0.767043         98.3119         35.5256 
       0.773185          97.342         34.8711 
       0.779291         95.5045         34.2368 
       0.785407         95.0978         33.6177 
       0.791564         94.4772         33.0101 
       0.797719         92.4277          32.418 
       0.803834         92.0505         31.8442 
       0.809972         91.2631         31.2824 
       0.816124         90.6143          30.733 
       0.822261         89.8232         30.1983 
       0.828378         89.0373          29.678 
       0.834502         88.5165         29.1695 
       0.840667         87.1535         28.6697 
       0.846816         86.1696         28.1831 
       0.852925         85.6395         27.7109 
       0.859047         84.6807         27.2485 
       0.865192         83.9672         26.7952 
       0.871341         83.2601         26.3519 
       0.877463         82.2179         25.9207 
       0.883569         82.1198         25.5003 
       0.889708         81.1587          25.087 
       0.895864          80.391         24.6819 
       0.902008         79.7668         24.2866 
       0.908149         79.3747         23.9002 
       0.914301         78.4734         23.5217 
       0.920448         77.8517         23.1517 
       0.926574         77.1941          22.791 
       0.932687         77.1367         22.4388 
       0.938823         75.9432         22.0927 
       0.944975         75.1744         21.7532 
       0.951105         74.6763         21.4221 
       0.957225         74.1004         21.0985 
       0.963368         73.1943         20.7805 
       0.969511         73.1202          20.469 
       0.975621         72.5955         20.1657 
       0.981748          72.097         19.8677 
       0.987916         71.3256         19.5739 
        0.99406         70.8222         19.2872 
        1.00019         70.5351         19.0068 
        1.00632          69.736         18.7322 
        1.01246         69.4188         18.4627 
        1.01859         68.7236         18.1989 
        1.02471         68.1157         17.9407 
        1.03085         67.5437         17.6866 
        1.03698         67.3536         17.4379 
        1.04314         66.7059          17.193 
        1.04929         66.3024         16.9534 
        1.05541         65.5909         16.7193 
        1.06154         65.5092         16.4891 
        1.06769         65.0883         16.2629 
        1.07382         64.5806         16.0417 
        1.07993         64.2219         15.8251 
        1.08607         63.6132         15.6116 
        1.09222         63.4827         15.4018 
        1.09836         62.8276         15.1962 
        1.10449         62.5128         14.9945 
        1.11063         61.9843         14.7963 
        1.11677         61.5973         14.6017 
         1.1229         61.0958          14.411 
        1.12903         60.6794         14.2236 
        1.13518         60.5802         14.0393 
        1.14131         60.1454         13.8584 
        1.14745         59.7132         13.6807 
        1.15359         59.3374         13.5062 
        1.15973         58.9533         13.3346 
        1.16584         58.4478         13.1668 
        1.17197         58.0911         13.0017 
        1.17811         57.8875         12.8388 
        1.18424          57.338         12.6793 
        1.19038         57.1881          12.522 
        1.19652         56.8336         12.3674 
        1.20267         56.1442         12.2154 
        1.20881         56.0283         12.0661 
        1.21495           55.54         11.9194 
        1.22108         55.5067         11.7753 
         1.2272          54.768         11.6338 
        1.23334         54.5214         11.4944 
        1.23949         54.3517         11.3569 
        1.24562          53.877         11.2221 
        1.25174         53.6869         11.0897 
        1.25789         53.4628         10.9589 
        1.26402         52.9016         10.8306 
        1.27014         52.7494         10.7046 
        1.27628         52.4008         10.5803 
        1.28244         52.0911         10.4576 
        1.28858         51.9202         10.3371 
        1.29471         51.6285         10.2188 
        1.30084         51.3256         10.1024 
        1.30697         50.9444          9.9877 
        1.31312         50.6344         9.87458 
        1.31925         50.3343         9.76357 
        1.32537         50.1078         9.65438 
        1.33151         49.6862         9.54646 
        1.33765         49.5505         9.44026 
        1.34378         49.2831         9.33588 
        1.34992         48.9304         9.23301 
        1.35606         48.6895         9.13147 
         1.3622         48.3848         9.03164 
        1.36833          48.216         8.93354 
        1.37445         47.8592         8.83695 
        1.38059         47.5045         8.74149 
        1.38675         47.2989         8.64721 
        1.39288         47.0968          8.5547 
        1.39901         46.8803         8.46358 
        1.40515         46.5071         8.37359 
         1.4113         46.3146         8.28494 
        1.41742         46.2026          8.1979 
        1.42355         45.8702         8.11196 
         1.4297         45.7432         8.02699 
        1.43585         45.4631         7.94327 
        1.44198         45.0891         7.86107 
        1.44809         44.9443         7.78018 
        1.45423         44.7468         7.70013 
        1.46036         44.4889         7.62136 
        1.46649         44.2636         7.54366 
        1.47263         44.0163         7.46698 
        1.47877         43.7061          7.3914 
        1.48491         43.6365         7.31675 
        1.49104         43.3487         7.24329 
        1.49718         43.0218         7.17079 
        1.50333         43.0263         7.09916 
        1.50947         42.6897         7.02865 
         1.5156         42.5043         6.95921 
        1.52172         42.3156         6.89071 
        1.52787         42.1679         6.82299 
          1.534         41.8059         6.75627 
        1.54013         41.5941          6.6905 
        1.54627         41.5277         6.62549 
        1.55241         41.1068         6.56134 
        1.55855         41.0222         6.49813 
        1.56467         40.7737         6.43592 
         1.5708         40.7117         6.37435 
        1.57695         40.5227          6.3135 
        1.58308         40.2621         6.25358 
        1.58922         39.9885         6.19439 
        1.59535         39.9189           6.136 
         1.6015         39.5705         6.07827 
        1.60764         39.4252         6.02131 
        1.61376         39.2395         5.96524 
        1.61989         39.0814         5.90984 
        1.62604         38.8348         5.85502 
        1.63218         38.8131         5.80092 
        1.63831         38.4728         5.74764 
        1.64444         38.3351         5.69499 
        1.65059         38.2978         5.64289 
        1.65673         37.9564         5.59149 
        1.66285          37.712         5.54087 
        1.66898         37.6657         5.49087 
        1.67512         37.3435         5.44138 
        1.68127         37.2604         5.39246 
         1.6874          37.048         5.34424 
        1.69353         36.8592         5.29665 
        1.69967         36.7296         5.24952 
        1.70581         36.6179         5.20299 
        1.71193         36.4401         5.15719 
        1.71806         36.1016         5.11185 
        1.72421         36.1075         5.06697 
        1.73035         35.9082         5.02267 
        1.73649         35.6513         4.97892 
        1.74262         35.4808         4.93571 
        1.74876         35.3038           4.893 
        1.75489         35.2243         4.85087 
        1.76101         35.0842         4.80926 
        1.76715         34.8692         4.76807 
        1.77329         34.6996         4.72732 
        1.77943         34.5354         4.68702 
        1.78557         34.3537         4.64726 
        1.79171          34.268         4.60795 
        1.79785          34.044         4.56908 
        1.80399         34.0198         4.53068 
        1.81012         33.7379         4.49276 
        1.81625         33.5961          4.4553 
        1.82239         33.4587          4.4182 
        1.82853         33.3284         4.38155 
        1.83466         33.0691         4.34535 
        1.84078         32.9116         4.30959 
        1.84692         32.8417         4.27418 
        1.85306         32.6464         4.23912 
         1.8592         32.5045         4.20451 
        1.86533         32.3501         4.17031 
        1.87147         32.2223         4.13644 
        1.87761         32.1009         4.10294 
        1.88375         31.9507         4.06985 
        1.88988         31.8218         4.03715 
        1.89601         31.6517          4.0048 
        1.90215         31.5687         3.97277 
        1.90829          31.473         3.94111 
        1.91442         31.2947         3.90979 
        1.92056         31.0723         3.87884 
         1.9267         31.0358          3.8482 
        1.93284         30.7609         3.81786 
        1.93897         30.7199         3.78791 
        1.94509         30.5784         3.75834 
        1.95123          30.424         3.72902 
        1.95737         30.2533         3.69998 
        1.96349         30.1646         3.67133 
        1.96964         30.0336          3.6429 
        1.97578         29.8466         3.61476 
        1.98192         29.7693         3.58697 
        1.98805         29.6756         3.55947 
        1.99419         29.5377         3.53226 
        2.00033         29.3774         3.50531 
        2.00647         29.2885         3.47866 
         2.0126         29.0663         3.45233 
        2.01874         29.0264         3.42623 
        2.02488         28.9058         3.40037 
        2.03101          28.749         3.37483 
        2.03714         28.6614         3.34958 
        2.04328         28.4814         3.32456 
        2.04941         28.3734         3.29981 
        2.05554         28.2435         3.27533 
        2.06167          28.166         3.25106 
        2.06781          27.996         3.22704 
        2.07396         27.9271         3.20323 
        2.08009         27.7609         3.17969 
        2.08622         27.5984         3.15643 
        2.09237         27.5616         3.13334 
        2.09851         27.4502         3.11049 
        2.10464         27.3057          3.0879 
        2.11077         27.2282         3.06556 
        2.11691         27.0303         3.04339 
        2.12305         26.9186         3.02144 
        2.12918         26.8275         2.99976 
        2.13531         26.7297         2.97829 
        2.14145          26.581         2.95698 
         2.1476         26.4453         2.93585 
        2.15372         26.3505         2.91504 
        2.15985         26.3268         2.89441 
        2.16599         26.1472         2.87391 
        2.17213         26.1029         2.85364 
        2.17827         25.9226         2.83356 
         2.1844         25.8507          2.8137 
        2.19054         25.7347         2.79402 
        2.19666         25.5847         2.77456 
         2.2028         25.4943         2.75526 
        2.20893         25.4423         2.73614 
        2.21508         25.3358         2.71718 
        2.22122         25.1826         2.69839 
        2.22736         25.1178         2.67981 
        2.23349         24.9518         2.66142 
        2.23962          24.889         2.64319 
        2.24577         24.7466         2.62511 
         2.2519         24.6617         2.60723 
        2.25802         24.6027         2.58954 
        2.26417          24.461         2.57197 
        2.27031         24.3261         2.55454 
        2.27644         24.2623         2.53733 
        2.28257         24.1878         2.52027 
        2.28872         24.0849         2.50334 
        2.29486         23.9547         2.48657 
        2.30099         23.8567         2.46998 
        2.30712         23.7766         2.45354 
        2.31326         23.6769         2.43722 
         2.3194         23.5774         2.42106 
        2.32553         23.5027         2.40507 
        2.33166         23.3871         2.38923 
         2.3378         23.2887         2.37352 
        2.34394         23.2165         2.35794 
        2.35007         23.0994         2.34252 
        2.35619          22.999         2.32725 
        2.36233         22.8982         2.31209 
        2.36848         22.8309         2.29703 
        2.37462         22.7068         2.28214 
        2.38075         22.6684         2.26739 
        2.38689         22.5453         2.25276 
        2.39303         22.4384         2.23826 
        2.39916         22.3147          2.2239 
        2.40529         22.2828         2.20967 
        2.41143         22.1939         2.19556 
        2.41757         22.0877         2.18156 
         2.4237         22.0362         2.16771 
        2.42983         21.8895         2.15398 
        2.43598         21.8395         2.14033 
        2.44211         21.7126         2.12682 
        2.44823         21.6391         2.11346 
        2.45437         21.5241         2.10018 
        2.46052         21.4324           2.087 
        2.46665         21.3736         2.07396 
        2.47279         21.2922         2.06103 
        2.47892         21.2268          2.0482 
        2.48507         21.0938         2.03548 
         2.4912         21.0297         2.02288 
