# k  (h/Mpc)    P(k)  (Mpc/h)^3    P_linear(k)  (Mpc/h)^3
     0.00783031         1930.84         1955.43 
       0.013688         2250.63         2253.03 
       0.019231         2139.95         2138.79 
      0.0249154         1834.36         1845.29 
      0.0312784         1479.42         1478.75 
      0.0375637         1184.17         1178.34 
      0.0433917         983.607         983.267 
      0.0492413         862.119         859.705 
      0.0555754         777.518         780.913 
      0.0619321         731.979         727.757 
       0.067871         675.813          678.32 
      0.0738098         615.036         617.564 
      0.0800417         538.673         541.966 
      0.0862327         463.985         464.141 
      0.0921407         399.738         397.796 
      0.0982031         345.527         344.809 
       0.104506         311.858         307.781 
       0.110769         289.337         286.221 
       0.116806         275.375         274.297 
       0.122832         266.931         265.036 
       0.129052         252.972         253.098 
       0.135211         236.333         236.353 
       0.141259         217.355         215.697 
       0.147318         196.238         193.458 
       0.153489         174.853         172.456 
       0.159709         158.375         155.405 
       0.165845         147.622         143.498 
       0.171974          138.63          135.93 
       0.178125         134.018         131.191 
       0.184229          130.24         127.494 
        0.19034         124.239         123.202 
       0.196428         119.556         117.446 
       0.202534         113.414          110.16 
       0.208729         104.734         101.925 
       0.214876         96.4345         93.9204 
       0.220989         90.4493         86.9845 
       0.227147         84.3156         81.4935 
        0.23329         80.3201         77.5146 
       0.239377         77.7598         74.6978 
       0.245482         74.4688         72.4521 
       0.251667         72.9308         70.2116 
       0.257832          70.221         67.6275 
       0.263955         67.1962         64.5839 
       0.270079         63.8526         61.1851 
        0.27624         61.0239          57.692 
       0.282372           57.91         54.4348 
        0.28843         54.8443         51.6499 
       0.294538         52.4157         49.3485 
       0.300721         50.9635         47.4876 
        0.30691         48.9167         45.9428 
       0.313033         47.4515         44.5472 
       0.319153          45.394         43.1277 
       0.325316         44.5597         41.5896 
        0.33145         42.6857         39.9417 
       0.337538          41.201         38.2528 
       0.343633         39.3878         36.5943 
       0.349808         37.9993         35.0379 
       0.355968         36.6973         33.6549 
       0.362074         35.4077          32.467 
       0.368217         34.2968         31.4207 
       0.374374         33.2089         30.4703 
       0.380519         32.3922         29.5657 
       0.386598         31.4851         28.6672 
       0.392688         30.7124         27.7497 
        0.39888         29.6595         26.8009 
       0.405048          28.796         25.8604 
       0.411186         27.9423         24.9603 
       0.417313         26.9623         24.1182 
       0.423458         26.1891         23.3405 
       0.429607         25.4293         22.6324 
       0.435692         24.6433         21.9856 
       0.441815         24.1163         21.3709 
       0.447964         23.6458         20.7756 
       0.454126         22.7317         20.1892 
       0.460267         22.2726         19.6073 
       0.466387         21.5537         19.0347 
        0.47254         21.1239         18.4737 
       0.478662         20.6956         17.9365 
       0.484765         20.0102         17.4267 
       0.490885          19.524         16.9453 
       0.497035         19.2384         16.4909 
       0.503198         18.6869          16.059 
       0.509342         18.2066         15.6458 
       0.515458         17.7679         15.2475 
       0.521598         17.4157         14.8583 
       0.527764         16.9854          14.476 
       0.533884         16.6854         14.1045 
           0.54         16.2678         13.7437 
       0.546137         15.9632         13.3946 
       0.552299         15.6528          13.059 
       0.558452         15.1629         12.7384 
       0.564573          14.919         12.4324 
       0.570708         14.6231         12.1372 
       0.576825          14.247         11.8532 
       0.582926         13.9611          11.579 
       0.589034         13.5765         11.3124 
       0.595184         13.3756         11.0511 
       0.601379         13.0696         10.7947 
       0.607522         12.8498         10.5475 
       0.613639         12.6714          10.309 
       0.619772         12.3205         10.0779 
       0.625918         12.2154         9.85471 
       0.632068         12.0125         9.63906 
       0.638161         11.7073         9.43231 
         0.6443         11.4636         9.23024 
       0.650464         11.2255         9.03306 
       0.656582         11.1355          8.8426 
       0.662703         10.9123         8.65725 
       0.668861         10.6929         8.47599 
       0.675024         10.4793         8.29977 
       0.681124         10.2918         8.13047 
       0.687237          10.118         7.96574 
       0.693381         9.98216         7.80497 
       0.699536         9.70761         7.64847 
       0.705665         9.61429         7.49698 
       0.711789         9.42351         7.34974 
       0.717957         9.26148         7.20542 
        0.72409         9.10601         7.06573 
       0.730186         8.97704         6.93057 
       0.736317         8.86567         6.79821 
       0.742472         8.71509         6.66883 
       0.748622         8.58018         6.54297 
        0.75476         8.40494         6.42066 
       0.760888         8.27726         6.30172 
       0.767043         8.16797         6.18535 
       0.773185         8.00365         6.07219 
       0.779291         7.93799         5.96253 
       0.785407         7.81787         5.85542 
       0.791564         7.68706         5.75028 
       0.797719          7.5248         5.64777 
       0.803834         7.48651          5.5484 
       0.809972         7.39799         5.45105 
       0.816124         7.23449         5.35584 
       0.822261         7.11849         5.26315 
       0.828378         7.03306         5.17294 
       0.834502         6.97109         5.08478 
       0.840667         6.83826         4.99811 
       0.846816         6.71164         4.91372 
       0.852925         6.64926         4.83182 
       0.859047         6.55827         4.75163 
       0.865192         6.49486           4.673 
       0.871341         6.41939         4.59611 
       0.877463         6.31014         4.52131 
       0.883569         6.20894         4.44837 
       0.889708         6.10324         4.37668 
       0.895864         6.03356         4.30638 
       0.902008          5.9771         4.23778 
       0.908149         5.91012         4.17072 
       0.914301         5.82688         4.10501 
       0.920448         5.73466         4.04078 
       0.926574         5.65972         3.97815 
       0.932687         5.59376         3.91698 
       0.938823         5.51956         3.85689 
       0.944975         5.44755         3.79792 
       0.951105         5.38712          3.7404 
       0.957225         5.35663         3.68417 
       0.963368         5.28344         3.62891 
       0.969511         5.21391         3.57479 
       0.975621         5.14647         3.52206 
       0.981748         5.08513         3.47026 
       0.987916         5.03775         3.41918 
        0.99406         4.95136         3.36933 
        1.00019         4.88031         3.32057 
        1.00632         4.85677         3.27282 
        1.01246         4.79564         3.22594 
        1.01859         4.72367         3.18005 
        1.02471         4.68443         3.13512 
        1.03085         4.62554          3.0909 
        1.03698         4.56088         3.04762 
        1.04314         4.52372         3.00499 
        1.04929         4.46835         2.96328 
        1.05541         4.41267         2.92253 
        1.06154         4.37414         2.88245 
        1.06769         4.34992         2.84306 
        1.07382         4.27593         2.80453 
        1.07993         4.22554         2.76681 
        1.08607         4.19993         2.72963 
        1.09222         4.14949         2.69309 
        1.09836         4.10196         2.65727 
        1.10449         4.06397         2.62214 
        1.11063         4.01213         2.58761 
        1.11677         3.98481         2.55372 
         1.1229         3.94794         2.52049 
        1.12903          3.8944         2.48782 
        1.13518         3.85087         2.45571 
        1.14131          3.8094         2.42418 
        1.14745         3.76231         2.39322 
        1.15359         3.73958          2.3628 
        1.15973         3.69324          2.3329 
        1.16584         3.65218         2.30365 
        1.17197         3.61858         2.27486 
        1.17811         3.59903         2.24647 
        1.18424         3.55771         2.21865 
        1.19038         3.53641         2.19123 
        1.19652         3.49252         2.16427 
        1.20267         3.45602         2.13777 
        1.20881         3.43447         2.11173 
        1.21495         3.39969         2.08615 
        1.22108         3.36204         2.06101 
         1.2272          3.3369         2.03633 
        1.23334         3.29425         2.01201 
        1.23949         3.26238         1.98802 
        1.24562         3.24177          1.9645 
        1.25174         3.20695         1.94139 
        1.25789         3.18268         1.91858 
        1.26402         3.15669         1.89617 
        1.27014         3.12536         1.87418 
        1.27628         3.09742         1.85247 
        1.28244          3.0595         1.83107 
        1.28858         3.04947         1.81003 
        1.29471         3.00868         1.78937 
        1.30084         2.97919         1.76904 
        1.30697          2.9755         1.74901 
        1.31312         2.92153         1.72925 
        1.31925         2.90149         1.70987 
        1.32537         2.87641          1.6908 
        1.33151         2.86466         1.67195 
        1.33765         2.82649          1.6534 
        1.34378         2.80974         1.63517 
        1.34992         2.79117          1.6172 
        1.35606          2.7517         1.59946 
         1.3622         2.74052         1.58202 
        1.36833         2.71372         1.56488 
        1.37445         2.69071         1.54801 
        1.38059         2.68199         1.53133 
        1.38675          2.6587         1.51486 
        1.39288         2.63628         1.49869 
        1.39901         2.60269         1.48277 
        1.40515         2.58568         1.46705 
         1.4113         2.56723         1.45155 
        1.41742         2.54701         1.43635 
        1.42355         2.52468         1.42133 
         1.4297         2.50579         1.40648 
        1.43585         2.49164         1.39184 
        1.44198         2.47539         1.37748 
        1.44809         2.44953         1.36334 
        1.45423         2.42913         1.34935 
        1.46036           2.406         1.33557 
        1.46649         2.39267         1.32199 
        1.47263         2.36999         1.30858 
        1.47877         2.35177         1.29537 
        1.48491          2.3351         1.28232 
        1.49104         2.32011         1.26947 
        1.49718         2.30186         1.25679 
        1.50333         2.28716         1.24426 
        1.50947         2.26595         1.23193 
         1.5156         2.25003         1.21979 
        1.52172         2.23438         1.20781 
        1.52787         2.21913         1.19596 
          1.534         2.19819         1.18429 
        1.54013          2.1863         1.17279 
        1.54627         2.16699         1.16141 
        1.55241         2.14947         1.15019 
        1.55855         2.13842         1.13913 
        1.56467         2.12442         1.12825 
         1.5708         2.10712         1.11747 
        1.57695          2.0906         1.10683 
        1.58308         2.07175         1.09634 
        1.58922         2.06509         1.08598 
        1.59535         2.04992         1.07576 
         1.6015          2.0318         1.06566 
        1.60764         2.01981         1.05569 
        1.61376         2.00778         1.04588 
        1.61989         1.99104         1.03618 
        1.62604         1.97692         1.02659 
        1.63218         1.97098         1.01712 
        1.63831         1.95078         1.00779 
        1.64444         1.93949        0.998581 
        1.65059         1.92318        0.989461 
        1.65673         1.91558        0.980465 
        1.66285         1.89797        0.971605 
        1.66898         1.88795        0.962852 
        1.67512         1.87163        0.954189 
        1.68127         1.86031        0.945625 
         1.6874         1.85458        0.937185 
        1.69353         1.83169        0.928853 
        1.69967          1.8238        0.920602 
        1.70581         1.81608        0.912454 
        1.71193          1.8004        0.904436 
        1.71806         1.79206        0.896497 
        1.72421         1.77959        0.888638 
        1.73035         1.76871        0.880881 
        1.73649         1.75609        0.873219 
        1.74262         1.74417        0.865653 
        1.74876         1.73682        0.858172 
        1.75489         1.72192        0.850795 
        1.76101         1.70892        0.843507 
        1.76715         1.70337        0.836294 
        1.77329         1.69389        0.829156 
        1.77943         1.67633        0.822099 
        1.78557         1.66803        0.815134 
        1.79171         1.66243        0.808248 
        1.79785         1.64812         0.80144 
        1.80399         1.63903        0.794712 
        1.81012         1.62888         0.78807 
        1.81625         1.62099        0.781507 
        1.82239         1.60882        0.775008 
        1.82853         1.59564        0.768586 
        1.83466         1.59037        0.762244 
        1.84078         1.58274        0.755979 
        1.84692         1.57372        0.749774 
        1.85306         1.56043        0.743632 
         1.8592         1.54997        0.737567 
        1.86533         1.54166        0.731574 
        1.87147          1.5352         0.72564 
        1.87761         1.52423         0.71977 
        1.88375         1.51539        0.713971 
        1.88988         1.50847        0.708242 
        1.89601         1.49694        0.702572 
        1.90215         1.48528        0.696961 
        1.90829         1.47651        0.691413 
        1.91442         1.47265        0.685924 
        1.92056         1.46152        0.680501 
         1.9267         1.45319         0.67513 
        1.93284         1.44952        0.669814 
        1.93897          1.4396        0.664564 
        1.94509         1.43045        0.659383 
        1.95123         1.42098        0.654243 
        1.95737         1.41144        0.649154 
        1.96349           1.407        0.644133 
        1.96964         1.40057        0.639149 
        1.97578         1.38752        0.634217 
        1.98192         1.38259        0.629346 
        1.98805         1.37507        0.624525 
        1.99419         1.36943        0.619755 
        2.00033         1.36247        0.615032 
        2.00647         1.35235        0.610359 
         2.0126         1.34797        0.605743 
        2.01874         1.33587        0.601167 
        2.02488         1.33152        0.596635 
        2.03101         1.32078        0.592158 
        2.03714         1.31531         0.58773 
        2.04328         1.30896        0.583343 
        2.04941         1.29885        0.579004 
        2.05554         1.29472        0.574712 
        2.06167          1.2879        0.570458 
        2.06781         1.28272        0.566246 
        2.07396         1.27578        0.562071 
        2.08009          1.2686        0.557945 
        2.08622         1.26184        0.553865 
        2.09237         1.25295        0.549817 
        2.09851         1.24786        0.545809 
        2.10464         1.24509        0.541848 
        2.11077         1.23489        0.537931 
        2.11691         1.22863        0.534043 
        2.12305         1.22381        0.530194 
        2.12918         1.21804        0.526392 
        2.13531         1.21028        0.522627 
        2.14145         1.20468        0.518889 
         2.1476         1.19637        0.515184 
        2.15372         1.19128        0.511534 
        2.15985         1.18543        0.507915 
        2.16599         1.17978        0.504321 
        2.17213         1.17062        0.500765 
        2.17827          1.1684        0.497245 
         2.1844         1.16271        0.493761 
        2.19054          1.1575         0.49031 
        2.19666         1.15069        0.486896 
         2.2028         1.14468        0.483512 
        2.20893          1.1401        0.480158 
        2.21508         1.13404        0.476832 
        2.22122         1.12634        0.473536 
        2.22736         1.12235        0.470279 
        2.23349         1.11799        0.467052 
        2.23962         1.11021        0.463854 
        2.24577         1.10747        0.460683 
         2.2519         1.10172        0.457547 
        2.25802         1.09659        0.454444 
        2.26417         1.09164        0.451361 
        2.27031         1.08618        0.448304 
        2.27644         1.08053        0.445284 
        2.28257         1.07361        0.442292 
        2.28872         1.07107        0.439322 
        2.29486         1.06341        0.436379 
        2.30099         1.05873         0.43347 
        2.30712         1.05366        0.430586 
        2.31326         1.05017        0.427722 
         2.3194         1.04622        0.424887 
        2.32553         1.04186        0.422082 
        2.33166         1.03493        0.419303 
         2.3378         1.02995        0.416546 
        2.34394         1.02422        0.413812 
        2.35007         1.02084        0.411107 
        2.35619         1.01706        0.408429 
        2.36233         1.01048        0.405769 
        2.36848         1.00675        0.403127 
        2.37462         1.00317        0.400513 
        2.38075        0.997814        0.397926 
        2.38689        0.994442        0.395359 
        2.39303        0.987972        0.392815 
        2.39916        0.984741        0.390296 
        2.40529         0.98004        0.387799 
        2.41143        0.974836        0.385322 
        2.41757        0.971519        0.382866 
         2.4237         0.96902        0.380436 
        2.42983        0.962156        0.378026 
        2.43598          0.9595        0.375632 
        2.44211        0.954885        0.373261 
        2.44823        0.950295        0.370917 
        2.45437        0.946346        0.368586 
        2.46052        0.943633        0.366273 
        2.46665        0.938038        0.363984 
        2.47279        0.933615        0.361716 
        2.47892        0.929668        0.359465 
        2.48507        0.927133        0.357231 
         2.4912        0.920177         0.35502 
