# k  (h/Mpc)    Pcb(k)  (Mpc/h)^3    Pcb_linear(k)  (Mpc/h)^3
     0.00783031         5995.59          6039.2 
       0.013688         6847.17          6968.7 
       0.019231         6515.34         6570.76 
      0.0249154         5627.32         5602.06 
      0.0312784         4424.15          4423.4 
      0.0375637          3475.8         3488.56 
      0.0433917         2918.65         2905.91 
      0.0492413         2553.83         2555.11 
      0.0555754         2356.12         2342.66 
      0.0619321         2164.15         2195.89 
       0.067871         2036.13         2043.55 
      0.0738098         1845.69         1845.01 
      0.0800417         1608.48         1597.96 
      0.0862327         1359.02         1351.44 
      0.0921407          1163.9         1151.01 
      0.0982031         1024.24         1000.48 
       0.104506         913.447         903.762 
       0.110769         864.249         853.237 
       0.116806          843.91         826.396 
       0.122832         807.515         800.315 
       0.129052         767.895         759.017 
       0.135211          717.28         699.471 
       0.141259         643.204         629.152 
       0.147318         570.685         558.283 
       0.153489         514.513         496.406 
       0.159709         475.758         450.623 
       0.165845         437.641          422.01 
       0.171974         430.136         405.756 
       0.178125         417.001         395.444 
       0.184229         397.996         384.772 
        0.19034         386.454         369.242 
       0.196428         366.806         347.741 
       0.202534         335.044         321.961 
       0.208729         317.819         295.115 
       0.214876         297.351         271.335 
       0.220989         273.996         252.679 
       0.227147         265.522          239.35 
        0.23329         255.777         230.441 
       0.239377         250.785         223.989 
       0.245482         240.237         217.807 
       0.251667         230.246         210.264 
       0.257832         225.669         200.831 
       0.263955         210.988         189.952 
       0.270079         199.935         178.614 
        0.27624         189.478         167.903 
       0.282372         182.127         158.801 
        0.28843         178.968         151.643 
       0.294538         170.578         146.066 
       0.300721         164.111         141.532 
        0.30691         161.456         137.389 
       0.313033         154.521         133.105 
       0.319153          151.48         128.313 
       0.325316         145.653         123.007 
        0.33145         140.228           117.5 
       0.337538         134.659         112.184 
       0.343633          130.11         107.328 
       0.349808         125.608         103.054 
       0.355968         122.193         99.4524 
       0.362074         119.428         96.3695 
       0.368217         116.596         93.5584 
       0.374374         113.515         90.8034 
       0.380519         108.763         87.9744 
       0.386598          106.18          85.067 
       0.392688         102.602         82.0758 
        0.39888         100.638         79.0756 
       0.405048         97.9583         76.2398 
       0.411186         95.8004         73.6376 
       0.417313          93.206         71.3019 
       0.423458         90.6731         69.1868 
       0.429607         88.6385         67.2289 
       0.435692         87.2759         65.3857 
       0.441815         84.3697         63.5662 
       0.447964         81.6731         61.7313 
       0.454126          80.132          59.892 
       0.460267         79.3049         58.0877 
       0.466387         77.0647         56.3443 
        0.47254         76.0562         54.6741 
       0.478662         73.3149         53.1186 
       0.484765         72.0368         51.6755 
       0.490885         70.1442         50.3132 
       0.497035         69.4397         49.0069 
       0.503198         67.8967         47.7434 
       0.509342         66.0459         46.5157 
       0.515458         64.9797         45.3131 
       0.521598         63.3031         44.1246 
       0.527764         62.5322         42.9616 
       0.533884         61.8039         41.8498 
           0.54         60.1039         40.7891 
       0.546137         58.5217         39.7729 
       0.552299         57.4155         38.7968 
       0.558452         56.3067         37.8627 
       0.564573         55.9437         36.9683 
       0.570708         54.3031          36.101 
       0.576825           53.72         35.2599 
       0.582926          52.967           34.44 
       0.589034         51.8812         33.6382 
       0.595184         51.1615         32.8536 
       0.601379         49.8991         32.0893 
       0.607522         48.8977         31.3598 
       0.613639          48.437         30.6609 
       0.619772          47.403          29.985 
       0.625918         46.8598         29.3297 
       0.632068         46.1272         28.6931 
       0.638161         45.2583         28.0796 
         0.6443         44.8408         27.4781 
       0.650464          43.712         26.8912 
       0.656582         43.5187         26.3254 
       0.662703         42.8205         25.7758 
       0.668861         41.8248         25.2394 
       0.675024         41.5612         24.7185 
       0.681124         41.0277         24.2178 
       0.687237         40.2329         23.7304 
       0.693381         39.6519         23.2541 
       0.699536         39.2544         22.7901 
       0.705665         38.6358         22.3408 
       0.711789         38.0274         21.9039 
       0.717957         37.4009         21.4758 
        0.72409         36.9763         21.0616 
       0.730186         36.7332          20.661 
       0.736317         36.0348         20.2687 
       0.742472         35.5799         19.8854 
       0.748622         35.0475         19.5124 
        0.75476         34.4863         19.1499 
       0.760888         34.3957         18.7973 
       0.767043         33.6521         18.4521 
       0.773185         33.2029         18.1164 
       0.779291         32.8123         17.7908 
       0.785407          32.429         17.4728 
       0.791564         32.3292         17.1606 
       0.797719         31.6055         16.8561 
       0.803834         31.4392          16.561 
       0.809972         30.9686          16.272 
       0.816124         30.6209         15.9893 
       0.822261          30.195         15.7141 
       0.828378         30.0217         15.4462 
       0.834502         29.6536         15.1845 
       0.840667         29.3512         14.9272 
       0.846816         28.9028         14.6766 
       0.852925         28.6534         14.4334 
       0.859047         28.5004         14.1953 
       0.865192         28.0286         13.9618 
       0.871341         27.7041         13.7334 
       0.877463         27.3884         13.5112 
       0.883569         27.2707         13.2945 
       0.889708         26.8996         13.0814 
       0.895864         26.5986         12.8726 
       0.902008         26.3518         12.6687 
       0.908149         26.0041         12.4694 
       0.914301         25.7846         12.2741 
       0.920448         25.5902         12.0831 
       0.926574         25.2617         11.8969 
       0.932687         24.9776         11.7151 
       0.938823         24.6529         11.5364 
       0.944975         24.4513         11.3611 
       0.951105         24.2786           11.19 
       0.957225         24.0501         11.0228 
       0.963368         23.7873         10.8584 
       0.969511         23.5622         10.6974 
       0.975621         23.3876         10.5405 
       0.981748         23.1083         10.3864 
       0.987916         22.9315         10.2344 
        0.99406         22.6574         10.0861 
        1.00019         22.4959         9.94094 
        1.00632          22.336         9.79882 
        1.01246          22.082         9.65927 
        1.01859         21.8966         9.52267 
        1.02471         21.6939         9.38889 
        1.03085         21.5554         9.25723 
        1.03698         21.4205         9.12839 
        1.04314         21.1739         9.00146 
        1.04929          20.899         8.87725 
        1.05541         20.8505         8.75589 
        1.06154         20.6582         8.63652 
        1.06769         20.3808         8.51919 
        1.07382         20.2643         8.40445 
        1.07993         20.1073         8.29208 
        1.08607         19.9216         8.18131 
        1.09222         19.7667         8.07246 
        1.09836         19.5678         7.96573 
        1.10449         19.4936         7.86107 
        1.11063         19.3057         7.75817 
        1.11677         19.2415         7.65716 
         1.1229         19.0192         7.55813 
        1.12903         18.8427         7.46078 
        1.13518         18.7817         7.36506 
        1.14131          18.609         7.27109 
        1.14745         18.4081         7.17881 
        1.15359         18.2088         7.08812 
        1.15973         18.1549         6.99896 
        1.16584         17.9779         6.91174 
        1.17197         17.7867         6.82589 
        1.17811          17.702         6.74124 
        1.18424         17.5051         6.65827 
        1.19038         17.4542         6.57647 
        1.19652         17.2588         6.49607 
        1.20267         17.2063         6.41702 
        1.20881         17.0308         6.33931 
        1.21495         16.9583         6.26301 
        1.22108         16.8612         6.18797 
         1.2272         16.6982         6.11435 
        1.23334         16.6166         6.04176 
        1.23949         16.4704         5.97017 
        1.24562         16.3167         5.89994 
        1.25174         16.2577         5.83095 
        1.25789         16.1574         5.76286 
        1.26402         16.0355         5.69597 
        1.27014         15.9379         5.63032 
        1.27628         15.7876          5.5655 
        1.28244         15.7826         5.50158 
        1.28858          15.594         5.43875 
        1.29471         15.4664         5.37705 
        1.30084          15.365         5.31637 
        1.30697         15.2759         5.25653 
        1.31312         15.1809         5.19753 
        1.31925         15.0791         5.13962 
        1.32537          14.947         5.08265 
        1.33151         14.8399         5.02635 
        1.33765         14.8221         4.97094 
        1.34378         14.7199         4.91647 
        1.34992         14.5942         4.86278 
        1.35606         14.4619         4.80978 
         1.3622         14.4018         4.75767 
        1.36833         14.3462         4.70646 
        1.37445         14.2308         4.65602 
        1.38059         14.1333         4.60618 
        1.38675         14.0774         4.55694 
        1.39288         13.9491         4.50863 
        1.39901         13.8521         4.46103 
        1.40515         13.8045         4.41402 
         1.4113         13.7198         4.36771 
        1.41742         13.6403         4.32223 
        1.42355         13.5319         4.27732 
         1.4297         13.4549         4.23291 
        1.43585         13.3771         4.18915 
        1.44198         13.3465         4.14618 
        1.44809         13.2484         4.10389 
        1.45423         13.1601         4.06203 
        1.46036         13.0852         4.02083 
        1.46649         13.0003          3.9802 
        1.47263         12.9295         3.94009 
        1.47877         12.8281         3.90055 
        1.48491         12.7853         3.86149 
        1.49104         12.7044         3.82305 
        1.49718         12.6646         3.78511 
        1.50333         12.5924         3.74762 
        1.50947          12.495         3.71072 
         1.5156         12.4519         3.67437 
        1.52172         12.3605          3.6385 
        1.52787         12.3441         3.60305 
          1.534         12.2442         3.56811 
        1.54013         12.1955         3.53367 
        1.54627         12.0927         3.49962 
        1.55241         12.0121         3.46601 
        1.55855         11.9648          3.4329 
        1.56467         11.9108         3.40031 
         1.5708         11.8596         3.36805 
        1.57695         11.7979         3.33616 
        1.58308         11.7142         3.30476 
        1.58922         11.6548         3.27374 
        1.59535         11.5991         3.24314 
         1.6015         11.5173         3.21288 
        1.60764         11.4704         3.18302 
        1.61376         11.4244         3.15362 
        1.61989         11.3234         3.12458 
        1.62604         11.2948         3.09583 
        1.63218         11.2335         3.06746 
        1.63831         11.1658         3.03952 
        1.64444         11.1133         3.01191 
        1.65059         11.0598         2.98458 
        1.65673         11.0028         2.95761 
        1.66285         10.9306         2.93106 
        1.66898         10.8969         2.90482 
        1.67512         10.8753         2.87886 
        1.68127         10.7964         2.85318 
         1.6874         10.7663         2.82788 
        1.69353         10.6563          2.8029 
        1.69967         10.6153         2.77816 
        1.70581         10.5821         2.75373 
        1.71193         10.5135         2.72969 
        1.71806         10.4638         2.70589 
        1.72421         10.4191         2.68232 
        1.73035         10.3781         2.65906 
        1.73649         10.3248         2.63608 
        1.74262         10.2793         2.61339 
        1.74876         10.2281         2.59095 
        1.75489         10.1808         2.56882 
        1.76101          10.101         2.54696 
        1.76715         10.0937         2.52532 
        1.77329          10.025         2.50391 
        1.77943         9.97965         2.48273 
        1.78557         9.96851         2.46183 
        1.79171         9.88791         2.44117 
        1.79785         9.83018         2.42074 
        1.80399         9.79002         2.40055 
        1.81012         9.74883         2.38062 
        1.81625         9.71051         2.36092 
        1.82239         9.65257         2.34142 
        1.82853          9.6139         2.32215 
        1.83466         9.55505         2.30311 
        1.84078         9.51466          2.2843 
        1.84692         9.50982         2.26568 
        1.85306         9.45824         2.24724 
         1.8592         9.41662         2.22903 
        1.86533         9.35504         2.21104 
        1.87147         9.31977         2.19323 
        1.87761         9.28866          2.1756 
        1.88375         9.24692         2.15818 
        1.88988         9.18832         2.14098 
        1.89601         9.16223         2.12396 
        1.90215         9.10393          2.1071 
        1.90829          9.0612         2.09044 
        1.91442          9.0302         2.07395 
        1.92056         8.99348         2.05766 
         1.9267         8.97103         2.04153 
        1.93284         8.94968         2.02556 
        1.93897         8.87234         2.00979 
        1.94509         8.84633         1.99422 
        1.95123         8.79904         1.97878 
        1.95737         8.75727         1.96349 
        1.96349         8.72026          1.9484 
        1.96964         8.70662         1.93342 
        1.97578         8.66518          1.9186 
        1.98192         8.63983         1.90396 
        1.98805         8.56893         1.88947 
        1.99419          8.5621         1.87514 
        2.00033         8.50813         1.86094 
        2.00647           8.468          1.8469 
         2.0126         8.43611         1.83302 
        2.01874         8.40549         1.81927 
        2.02488          8.3621         1.80564 
        2.03101         8.35293         1.79218 
        2.03714         8.29526         1.77887 
        2.04328         8.26273         1.76568 
        2.04941         8.22317         1.75263 
        2.05554         8.20727         1.73973 
        2.06167         8.17766         1.72693 
        2.06781         8.15659         1.71427 
        2.07396         8.11309         1.70171 
        2.08009         8.05649          1.6893 
        2.08622         8.03628         1.67703 
        2.09237         8.02344         1.66485 
        2.09851         7.96604          1.6528 
        2.10464         7.94969         1.64088 
        2.11077         7.90018          1.6291 
        2.11691         7.87717         1.61741 
        2.12305         7.84404         1.60582 
        2.12918         7.79869         1.59439 
        2.13531         7.78966         1.58306 
        2.14145         7.74659         1.57181 
         2.1476         7.71804         1.56066 
        2.15372         7.70582         1.54968 
        2.15985         7.65352         1.53879 
        2.16599         7.64435         1.52797 
        2.17213         7.62414         1.51727 
        2.17827         7.58708         1.50668 
         2.1844         7.55846         1.49619 
        2.19054         7.52409          1.4858 
        2.19666         7.50017         1.47553 
         2.2028         7.47293         1.46534 
        2.20893         7.44256         1.45524 
        2.21508         7.40546         1.44523 
        2.22122         7.37595         1.43531 
        2.22736         7.34905          1.4255 
        2.23349         7.31829         1.41578 
        2.23962         7.29672         1.40615 
        2.24577         7.29014         1.39661 
         2.2519         7.25205         1.38716 
        2.25802         7.21283         1.37782 
        2.26417         7.19805         1.36853 
        2.27031         7.17253         1.35933 
        2.27644         7.15469         1.35023 
        2.28257         7.09814         1.34122 
        2.28872         7.09213         1.33227 
        2.29486         7.07045         1.32341 
        2.30099         7.03385         1.31464 
        2.30712         6.99634         1.30595 
        2.31326         6.98237         1.29733 
         2.3194         6.94705         1.28879 
        2.32553          6.9299         1.28034 
        2.33166         6.89135         1.27196 
         2.3378         6.88638         1.26366 
        2.34394         6.84941         1.25542 
        2.35007         6.83267         1.24727 
        2.35619          6.8101          1.2392 
        2.36233         6.77549         1.23118 
        2.36848         6.74578         1.22322 
        2.37462         6.72776         1.21534 
        2.38075          6.6926         1.20754 
        2.38689         6.68616          1.1998 
        2.39303         6.65864         1.19213 
        2.39916         6.64258         1.18454 
        2.40529         6.62568         1.17701 
        2.41143         6.59276         1.16955 
        2.41757          6.5606         1.16214 
         2.4237         6.53811         1.15481 
        2.42983           6.526         1.14755 
        2.43598         6.49534         1.14033 
        2.44211          6.4695         1.13318 
        2.44823         6.44838         1.12611 
        2.45437         6.43157         1.11908 
        2.46052         6.41478         1.11211 
        2.46665         6.39399         1.10521 
        2.47279         6.36584         1.09836 
        2.47892         6.33804         1.09158 
        2.48507         6.31967         1.08484 
         2.4912         6.29854         1.07817 
