#  k  (h/Mpc)          P(k)  (Mpc/h)^3     P_linear(k) (Mpc/h)^3
     0.00783031         2443.36         2470.47 
       0.013688         2646.57         2646.47 
       0.019231         2372.76         2369.52 
      0.0249154         1925.76         1934.74 
      0.0312784         1469.82         1466.59 
      0.0375637         1126.24         1118.95 
      0.0433917         912.124         910.636 
      0.0492413         791.483         788.269 
      0.0555754         712.029         715.493 
      0.0619321         670.791         666.279 
       0.067871         613.898         616.318 
      0.0738098          550.39         552.129 
      0.0800417         470.979         473.071 
      0.0862327         396.048         394.875 
      0.0921407         334.582         331.766 
      0.0982031         286.188         284.613 
       0.104506         258.894         254.385 
       0.110769         242.116         238.629 
       0.116806         232.137         230.472 
       0.122832         225.257         222.976 
       0.129052         211.701         211.307 
       0.135211         195.199         194.384 
       0.141259         176.617         174.217 
       0.147318         157.132         153.707 
       0.153489         138.566         135.603 
       0.159709         125.398         121.999 
       0.165845         117.457         113.298 
       0.171974         111.009         108.222 
       0.178125         108.045         105.049 
       0.184229         104.879         102.057 
        0.19034          99.524         97.9605 
       0.196428         94.8145         92.3454 
       0.202534         89.0128         85.5475 
       0.208729         81.4586         78.3408 
       0.214876         74.7133         71.8041 
       0.220989         69.9196         66.5174 
       0.227147         65.5636         62.5921 
        0.23329         62.7016         59.8619 
       0.239377         60.9213          57.875 
       0.245482         58.1868          56.096 
       0.251667         56.8765         54.0987 
       0.257832         54.4178         51.7071 
       0.263955          51.751         48.9783 
       0.270079         48.8683         46.1007 
        0.27624         46.5688         43.3173 
       0.282372         44.2621         40.8735 
        0.28843         41.9461         38.8713 
       0.294538         40.1942         37.2552 
       0.300721         39.1437         35.9189 
        0.30691         37.5293         34.7359 
       0.313033         36.3324           33.58 
       0.319153         34.6804         32.3581 
       0.325316         33.8834         31.0385 
        0.33145         32.3572         29.6778 
       0.337538         31.1519         28.3447 
       0.343633         29.7462         27.0973 
       0.349808         28.7359         25.9625 
       0.355968          27.771         24.9754 
       0.362074         26.8201         24.1161 
       0.368217         25.9629         23.3352 
       0.374374         25.1248         22.5946 
       0.380519         24.4532         21.8618 
       0.386598         23.7408         21.1313 
       0.392688         23.1111         20.3929 
        0.39888         22.2763         19.6503 
       0.405048         21.5836         18.9398 
       0.411186         20.9456         18.2754 
       0.417313         20.2376         17.6631 
       0.423458         19.6523         17.1004 
       0.429607         19.0916         16.5779 
       0.435692         18.4709         16.0898 
       0.441815         18.0448         15.6176 
       0.447964          17.671         15.1532 
       0.454126         16.9833         14.6946 
       0.460267         16.6351         14.2473 
       0.466387         16.0822         13.8149 
        0.47254         15.7455         13.3971 
       0.478662         15.4328         13.0022 
       0.484765         14.8904          12.631 
       0.490885          14.534          12.279 
       0.497035         14.3341          11.942 
       0.503198         13.8974         11.6183 
       0.509342         13.5309         11.3067 
       0.515458         13.2115         11.0056 
       0.521598         12.9295         10.7108 
       0.527764          12.587         10.4231 
       0.533884         12.3784         10.1471 
           0.54         12.0474         9.88204 
       0.546137         11.8241         9.62682 
       0.552299         11.5856         9.38086 
       0.558452         11.2194          9.1451 
       0.564573         11.0303         8.91953 
       0.570708         10.8038         8.70151 
       0.576825         10.5255         8.49122 
       0.582926         10.2979         8.28761 
       0.589034         10.0281          8.0895 
       0.595184           9.872         7.89594 
       0.601379         9.63357         7.70726 
       0.607522          9.4676         7.52653 
       0.613639          9.3279         7.35279 
       0.619772         9.06366         7.18452 
       0.625918         8.98759          7.0214 
       0.632068         8.83199         6.86333 
       0.638161         8.60523         6.71148 
         0.6443         8.42458         6.56306 
       0.650464         8.24398         6.41852 
       0.656582         8.17125         6.27931 
       0.662703          8.0058         6.14415 
       0.668861         7.84452         6.01218 
       0.675024          7.6844         5.88397 
       0.681124         7.54651          5.7608 
       0.687237         7.41651         5.64091 
       0.693381         7.31076         5.52391 
       0.699536         7.10267         5.41005 
       0.705665         7.03453         5.29992 
       0.711789         6.89016         5.19299 
       0.717957         6.76731         5.08829 
        0.72409         6.64871         4.98707 
       0.730186         6.55224         4.88922 
       0.736317         6.47156         4.79346 
       0.742472         6.35891          4.6999 
       0.748622         6.25561         4.60892 
        0.75476         6.13441         4.52055 
       0.760888         6.03213         4.43462 
       0.767043         5.94739         4.35058 
       0.773185         5.82835          4.2689 
       0.779291         5.77628         4.18978 
       0.785407         5.68733         4.11255 
       0.791564         5.59467         4.03679 
       0.797719         5.47478         3.96297 
       0.803834         5.44581         3.89147 
       0.809972         5.37308         3.82149 
       0.816124         5.25989         3.75307 
       0.822261         5.16529         3.68652 
       0.828378         5.10133         3.62178 
       0.834502          5.0575         3.55854 
       0.840667         4.95629          3.4964 
       0.846816         4.86408         3.43593 
       0.852925         4.81915         3.37726 
       0.859047         4.74872         3.31984 
       0.865192         4.70397         3.26357 
       0.871341         4.64413         3.20856 
       0.877463         4.56779         3.15506 
       0.883569         4.48982         3.10292 
       0.889708         4.41416         3.05169 
       0.895864         4.35383         3.00148 
       0.902008         4.31402          2.9525 
       0.908149         4.26717         2.90465 
       0.914301         4.20532         2.85777 
       0.920448         4.13994         2.81198 
       0.926574         4.08247         2.76734 
       0.932687         4.02939         2.72377 
       0.938823         3.97782         2.68098 
       0.944975         3.92771         2.63901 
       0.951105         3.87842         2.59809 
       0.957225          3.8569         2.55811 
       0.963368         3.80426         2.51883 
       0.969511         3.74748         2.48038 
       0.975621         3.70019         2.44294 
       0.981748         3.65391         2.40617 
       0.987916         3.61937         2.36993 
        0.99406         3.55287         2.33456 
        1.00019          3.5073         2.29999 
        1.00632          3.4856         2.26616 
        1.01246         3.43967         2.23295 
        1.01859         3.38765         2.20046 
        1.02471         3.35792         2.16865 
        1.03085         3.31399         2.13737 
        1.03698         3.26698         2.10676 
        1.04314         3.23924         2.07663 
        1.04929         3.20146         2.04715 
        1.05541         3.16104         2.01836 
        1.06154         3.12845         1.99006 
        1.06769         3.11235         1.96225 
        1.07382         3.05801         1.93507 
        1.07993         3.01972         1.90845 
        1.08607         3.00275         1.88223 
        1.09222          2.9621         1.85648 
        1.09836         2.92805         1.83123 
        1.10449         2.90277         1.80648 
        1.11063          2.8609         1.78216 
        1.11677         2.84073          1.7583 
         1.1229         2.81457         1.73491 
        1.12903         2.77549         1.71193 
        1.13518         2.74427         1.68934 
        1.14131         2.71281         1.66718 
        1.14745         2.67767         1.64542 
        1.15359         2.66017         1.62404 
        1.15973         2.62432         1.60304 
        1.16584         2.59885         1.58249 
        1.17197         2.57186         1.56228 
        1.17811         2.55825         1.54236 
        1.18424         2.52618         1.52284 
        1.19038         2.51027         1.50361 
        1.19652         2.47808         1.48471 
        1.20267         2.45331         1.46614 
        1.20881         2.43756         1.44788 
        1.21495         2.40837         1.42997 
        1.22108         2.38351         1.41236 
         1.2272         2.36442         1.39509 
        1.23334          2.3349         1.37807 
        1.23949          2.3087         1.36129 
        1.24562          2.2945         1.34484 
        1.25174         2.26944         1.32868 
        1.25789         2.25112         1.31274 
        1.26402         2.23113         1.29708 
        1.27014         2.20919         1.28172 
        1.27628         2.19026         1.26656 
        1.28244         2.16292         1.25162 
        1.28858         2.15359         1.23694 
        1.29471         2.12379         1.22252 
        1.30084         2.10102         1.20835 
        1.30697         2.09793         1.19438 
        1.31312         2.06144         1.18061 
        1.31925         2.04529          1.1671 
        1.32537         2.02596         1.15381 
        1.33151         2.01881         1.14068 
        1.33765         1.99041         1.12777 
        1.34378         1.98023         1.11507 
        1.34992          1.9638         1.10256 
        1.35606         1.93527         1.09022 
         1.3622         1.92764         1.07809 
        1.36833         1.90634         1.06617 
        1.37445         1.89002         1.05443 
        1.38059         1.88422         1.04284 
        1.38675         1.86689         1.03139 
        1.39288         1.85114         1.02016 
        1.39901          1.8271          1.0091 
        1.40515         1.81369        0.998176 
         1.4113          1.8011         0.98742 
        1.41742         1.78532        0.976862 
        1.42355         1.77019        0.966439 
         1.4297         1.75651        0.956136 
        1.43585         1.74425        0.945986 
        1.44198         1.73208        0.936023 
        1.44809         1.71482         0.92622 
        1.45423         1.70025        0.916522 
        1.46036          1.6835         0.90698 
        1.46649         1.67416        0.897569 
        1.47263         1.65724        0.888284 
        1.47877         1.64448        0.879134 
        1.48491         1.63207        0.870098 
        1.49104         1.61991        0.861208 
        1.49718         1.60746        0.852435 
        1.50333         1.59593         0.84377 
        1.50947         1.58084        0.835242 
         1.5156         1.56944        0.826844 
        1.52172         1.55746        0.818561 
        1.52787          1.5454        0.810374 
          1.534         1.53085        0.802309 
        1.54013          1.5208        0.794361 
        1.54627         1.51006        0.786506 
        1.55241          1.4961        0.778756 
        1.55855         1.48656         0.77112 
        1.56467          1.4772        0.763608 
         1.5708         1.46459        0.756174 
        1.57695         1.45372        0.748827 
        1.58308         1.43968        0.741594 
        1.58922         1.43422        0.734452 
        1.59535           1.423        0.727406 
         1.6015         1.40986        0.720442 
        1.60764         1.40177        0.713572 
        1.61376          1.3928         0.70681 
        1.61989         1.38022         0.70013 
        1.62604         1.37046        0.693521 
        1.63218         1.36571        0.687001 
        1.63831         1.35037        0.680579 
        1.64444         1.34339        0.674237 
        1.65059         1.33118         0.66796 
        1.65673         1.32368        0.661769 
        1.66285         1.31342        0.655673 
        1.66898          1.3065        0.649652 
        1.67512         1.29422        0.643695 
        1.68127         1.28562        0.637806 
         1.6874         1.28089        0.632004 
        1.69353         1.26549        0.626278 
        1.69967         1.25843        0.620608 
        1.70581         1.25286        0.615011 
        1.71193          1.2411        0.609503 
        1.71806         1.23589        0.604051 
        1.72421         1.22657        0.598655 
        1.73035         1.21832         0.59333 
        1.73649         1.21026        0.588071 
        1.74262         1.20103         0.58288 
        1.74876         1.19506        0.577747 
        1.75489         1.18391        0.572687 
        1.76101         1.17542        0.567688 
        1.76715          1.1716        0.562742 
        1.77329         1.16359        0.557848 
        1.77943         1.15264         0.55301 
        1.78557         1.14457        0.548237 
        1.79171         1.14171        0.543518 
        1.79785         1.13078        0.538854 
        1.80399         1.12474        0.534246 
        1.81012          1.1167        0.529697 
        1.81625         1.11166        0.525203 
        1.82239         1.10335        0.520754 
        1.82853         1.09359        0.516359 
        1.83466         1.08792        0.512018 
        1.84078         1.08337        0.507731 
        1.84692         1.07668        0.503487 
        1.85306         1.06779        0.499286 
         1.8592         1.06013        0.495138 
        1.86533         1.05437         0.49104 
        1.87147         1.04839        0.486984 
        1.87761         1.04171        0.482971 
        1.88375         1.03503        0.479008 
        1.88988         1.03082        0.475094 
        1.89601         1.02228         0.47122 
        1.90215         1.01299        0.467387 
        1.90829         1.00735        0.463598 
        1.91442         1.00425         0.45985 
        1.92056         0.99655        0.456147 
         1.9267        0.989867        0.452481 
        1.93284        0.987219        0.448852 
        1.93897        0.979936         0.44527 
        1.94509        0.973898        0.441735 
        1.95123        0.966891        0.438228 
        1.95737        0.960154        0.434758 
        1.96349        0.956998        0.431333 
        1.96964        0.951794        0.427935 
        1.97578        0.942317        0.424573 
        1.98192        0.938972        0.421253 
        1.98805        0.933899        0.417968 
        1.99419        0.930188        0.414717 
        2.00033        0.924437          0.4115 
        2.00647        0.917293        0.408317 
         2.0126        0.914112        0.405173 
        2.01874        0.905925        0.402057 
        2.02488        0.902091        0.398971 
        2.03101        0.895331        0.395923 
        2.03714         0.89122        0.392909 
        2.04328        0.885988        0.389923 
        2.04941         0.87967        0.386971 
        2.05554        0.875474        0.384051 
        2.06167        0.870454        0.381157 
        2.06781        0.867216        0.378292 
        2.07396         0.86224        0.375452 
        2.08009         0.85652        0.372647 
        2.08622        0.852536        0.369873 
        2.09237        0.845608        0.367121 
        2.09851        0.841936        0.364398 
        2.10464        0.839342        0.361706 
        2.11077         0.83238        0.359044 
        2.11691        0.828294        0.356403 
        2.12305        0.824301        0.353789 
        2.12918        0.819933        0.351206 
        2.13531        0.813855         0.34865 
        2.14145        0.810978        0.346112 
         2.1476        0.804516        0.343597 
        2.15372        0.801816        0.341119 
        2.15985         0.79666        0.338663 
        2.16599        0.792251        0.336224 
        2.17213         0.78584        0.333812 
        2.17827        0.784553        0.331424 
         2.1844        0.780482        0.329061 
        2.19054         0.77685         0.32672 
        2.19666        0.772015        0.324405 
         2.2028        0.768048         0.32211 
        2.20893        0.764678        0.319837 
        2.21508        0.759643        0.317582 
        2.22122        0.754384        0.315349 
        2.22736        0.751877        0.313141 
        2.23349        0.748478        0.310955 
        2.23962        0.742806        0.308789 
        2.24577        0.741005        0.306641 
         2.2519        0.736869        0.304517 
        2.25802        0.732488        0.302415 
        2.26417        0.728785        0.300328 
        2.27031        0.725675        0.298259 
        2.27644        0.720901        0.296215 
        2.28257        0.715648         0.29419 
        2.28872        0.714254         0.29218 
        2.29486        0.709155        0.290189 
        2.30099        0.705505        0.288221 
        2.30712        0.702343        0.286269 
        2.31326        0.699209        0.284333 
         2.3194        0.696892        0.282416 
        2.32553        0.693567        0.280519 
        2.33166        0.688769         0.27864 
         2.3378        0.684906        0.276776 
        2.34394        0.680292        0.274929 
        2.35007         0.67835          0.2731 
        2.35619        0.675607        0.271291 
        2.36233        0.670558        0.269493 
        2.36848        0.667843        0.267708 
        2.37462        0.665561        0.265943 
        2.38075        0.662022        0.264195 
        2.38689        0.658918        0.262461 
        2.39303        0.654129        0.260744 
        2.39916        0.652358        0.259043 
        2.40529        0.648833        0.257357 
        2.41143        0.645363        0.255685 
        2.41757        0.642979        0.254027 
         2.4237        0.640852        0.252387 
        2.42983        0.636338        0.250762 
        2.43598        0.633955        0.249146 
        2.44211        0.631041        0.247547 
        2.44823        0.627828        0.245966 
        2.45437        0.624662        0.244394 
        2.46052        0.622953        0.242834 
        2.46665        0.618567        0.241291 
        2.47279        0.615623        0.239762 
        2.47892        0.612162        0.238244 
        2.48507        0.611037        0.236739 
         2.4912        0.606143        0.235249 
