# k  (h/Mpc)    Pcb(k)  (Mpc/h)^3    Pcb_linear(k)  (Mpc/h)^3
     0.00783031         10741.3         10796.6 
       0.013688         13078.8         13381.7 
       0.019231         13397.2         13572.3 
      0.0249154         12580.3         12558.5 
      0.0312784         10801.7           10891 
      0.0375637         9172.15         9309.89 
      0.0433917         8117.55         8153.97 
      0.0492413         7238.51            7325 
      0.0555754         6674.85         6709.42 
      0.0619321         6038.83         6240.49 
       0.067871            5707         5818.99 
      0.0738098         5286.54         5350.84 
      0.0800417         4770.18         4806.23 
      0.0862327         4215.42         4255.74 
      0.0921407         3768.04         3776.77 
      0.0982031          3417.1         3373.59 
       0.104506         3065.25         3063.95 
       0.110769         2866.81         2852.69 
       0.116806         2762.01         2708.72 
       0.122832         2605.26         2587.73 
       0.129052         2471.96         2455.82 
       0.135211         2366.79         2302.19 
       0.141259         2173.96         2130.69 
       0.147318         1986.97         1952.36 
       0.153489         1850.05         1782.39 
       0.159709         1754.94         1637.78 
       0.165845          1605.7         1527.42 
       0.171974         1569.75         1446.47 
       0.178125         1516.44         1385.66 
       0.184229         1412.79         1334.17 
        0.19034         1385.51         1281.45 
       0.196428         1337.89          1221.9 
       0.202534         1245.31         1154.52 
       0.208729          1213.7         1082.13 
       0.214876         1154.36         1012.17 
       0.220989         1082.09         949.743 
       0.227147         1053.81         897.132 
        0.23329         1013.28          855.11 
       0.239377         1001.23         821.666 
       0.245482         952.461         792.897 
       0.251667         916.966         765.034 
       0.257832         904.718         735.982 
       0.263955         857.203         704.924 
       0.270079         828.012         672.218 
        0.27624         792.053         639.318 
       0.282372         776.214         608.374 
        0.28843         767.148         580.923 
       0.294538         728.251          556.93 
       0.300721           709.1         536.092 
        0.30691         696.052          517.79 
       0.313033         666.102         501.004 
       0.319153         656.327         484.551 
       0.325316         645.299         467.671 
        0.33145         630.438         450.498 
       0.337538          607.51         433.375 
       0.343633          590.47         416.693 
       0.349808         576.312         400.799 
       0.355968         565.344         386.262 
       0.362074         546.506         373.253 
       0.368217         543.449         361.353 
       0.374374         533.614         350.319 
       0.380519         512.544          339.81 
       0.386598         507.225         329.621 
       0.392688         495.408         319.507 
        0.39888         482.455         309.284 
       0.405048         473.547         299.306 
       0.411186         471.759         289.743 
       0.417313          465.84          280.68 
       0.423458         452.145         272.167 
       0.429607         439.846         264.223 
       0.435692         433.425         256.831 
       0.441815         426.042         249.764 
       0.447964         417.072         242.939 
       0.454126         412.108         236.272 
       0.460267         405.378         229.764 
       0.466387         398.149         223.432 
        0.47254         392.466         217.247 
       0.478662         383.848         211.308 
       0.484765         379.377         205.641 
       0.490885         375.339         200.234 
       0.497035         367.977         195.058 
       0.503198         367.097         190.097 
       0.509342         358.211         185.344 
       0.515458         352.379         180.775 
       0.521598         346.776         176.322 
       0.527764         341.749         171.964 
       0.533884         339.995         167.756 
           0.54         334.869          163.68 
       0.546137         327.677          159.73 
       0.552299         326.651         155.907 
       0.558452          321.24          152.23 
       0.564573         318.474         148.705 
       0.570708         313.543         145.297 
       0.576825         308.028         142.016 
       0.582926          305.78         138.845 
       0.589034         301.135         135.761 
       0.595184          299.12          132.74 
       0.601379           294.2         129.782 
       0.607522          288.38         126.935 
       0.613639         287.122         124.187 
       0.619772         285.734          121.52 
       0.625918         281.138         118.932 
       0.632068         277.346         116.421 
       0.638161           275.3         114.008 
         0.6443         272.452         111.647 
       0.650464         268.293         109.344 
       0.656582         265.913         107.122 
       0.662703         264.184         104.962 
       0.668861         259.341         102.848 
       0.675024         258.378         100.791 
       0.681124         255.155         98.8113 
       0.687237         253.018         96.8809 
       0.693381         249.714         94.9936 
       0.699536         247.869         93.1539 
       0.705665         245.265         91.3717 
       0.711789         242.957         89.6387 
       0.717957         240.381         87.9397 
        0.72409         237.505         86.2949 
       0.730186         238.847         84.7026 
       0.736317         234.613         83.1422 
       0.742472         231.837         81.6157 
       0.748622           228.9          80.129 
        0.75476         229.271         78.6827 
       0.760888         226.246         77.2744 
       0.767043         223.272         75.8952 
       0.773185         221.909         74.5527 
       0.779291          218.83         73.2506 
       0.785407         218.003          71.978 
       0.791564         215.924         70.7279 
       0.797719         212.464         69.5083 
       0.803834         213.846         68.3256 
       0.809972         211.198         67.1664 
       0.816124         208.007         66.0318 
       0.822261         206.538         64.9267 
       0.828378         206.198         63.8505 
       0.834502         203.275         62.7979 
       0.840667          203.14         61.7625 
       0.846816         199.616         60.7536 
       0.852925         199.005         59.7738 
       0.859047         197.058         58.8137 
       0.865192         196.635         57.8717 
       0.871341         194.047         56.9499 
       0.877463         192.395         56.0526 
       0.883569         192.167          55.177 
       0.889708         190.265         54.3157 
       0.895864         188.544         53.4708 
       0.902008         186.732         52.6457 
       0.908149         185.095         51.8387 
       0.914301         184.219         51.0475 
       0.920448         183.738         50.2736 
       0.926574         181.348         49.5185 
       0.932687         180.812         48.7807 
       0.938823         179.327         48.0554 
       0.944975         178.219         47.3432 
       0.951105         176.424         46.6482 
       0.957225         175.436         45.9684 
       0.963368         174.451         45.2999 
       0.969511         172.181         44.6447 
       0.975621         170.859         44.0061 
       0.981748         170.031         43.3785 
       0.987916         169.277         42.7592 
        0.99406         167.972         42.1544 
        1.00019         166.903         41.5626 
        1.00632         165.908         40.9828 
        1.01246           164.7         40.4132 
        1.01859         163.342         39.8553 
        1.02471         162.129         39.3088 
        1.03085         161.054         38.7707 
        1.03698         159.927         38.2439 
        1.04314         159.623         37.7247 
        1.04929         158.664         37.2164 
        1.05541         157.518         36.7195 
        1.06154         156.089         36.2306 
        1.06769         155.173         35.7499 
        1.07382         154.529         35.2795 
        1.07993         153.058         34.8187 
        1.08607         152.283         34.3643 
        1.09222         151.206         33.9176 
        1.09836           150.4         33.4794 
        1.10449         149.181         33.0495 
        1.11063         148.236         32.6268 
        1.11677         147.548         32.2116 
         1.1229         146.359         31.8044 
        1.12903          145.58         31.4039 
        1.13518         144.545         31.0101 
        1.14131         143.844         30.6232 
        1.14745         142.821         30.2432 
        1.15359         141.495         29.8696 
        1.15973         141.139         29.5023 
        1.16584         140.324         29.1427 
        1.17197         139.553         28.7887 
        1.17811         138.242         28.4395 
        1.18424         137.656         28.0971 
        1.19038         136.808         27.7594 
        1.19652         135.926         27.4275 
        1.20267         135.041         27.1009 
        1.20881         134.094         26.7798 
        1.21495         133.746         26.4644 
        1.22108         132.753         26.1542 
         1.2272         131.797         25.8497 
        1.23334         131.367         25.5493 
        1.23949         130.776         25.2531 
        1.24562         129.747         24.9623 
        1.25174         129.023         24.6766 
        1.25789         128.052         24.3945 
        1.26402         127.815         24.1174 
        1.27014         126.871         23.8452 
        1.27628          125.66         23.5765 
        1.28244         125.429         23.3113 
        1.28858         124.397         23.0507 
        1.29471         123.709         22.7946 
        1.30084         122.895         22.5426 
        1.30697          122.27         22.2942 
        1.31312         121.487         22.0491 
        1.31925         120.606         21.8084 
        1.32537         120.207         21.5717 
        1.33151         119.813         21.3376 
        1.33765         118.613         21.1071 
        1.34378         118.443         20.8805 
        1.34992         117.864         20.6571 
        1.35606          117.01         20.4365 
         1.3622         116.756         20.2196 
        1.36833         115.399         20.0063 
        1.37445         115.276         19.7962 
        1.38059         114.561         19.5885 
        1.38675         113.765         19.3833 
        1.39288         113.007         19.1818 
        1.39901           112.4         18.9834 
        1.40515         112.007         18.7873 
         1.4113         111.302          18.594 
        1.41742          110.62         18.4042 
        1.42355         110.338         18.2167 
         1.4297         109.402         18.0313 
        1.43585         108.837         17.8486 
        1.44198         107.961          17.669 
        1.44809         107.381         17.4923 
        1.45423         107.241         17.3174 
        1.46036         106.244         17.1451 
        1.46649         105.688         16.9752 
        1.47263          105.26         16.8074 
        1.47877         104.508          16.642 
        1.48491         104.141         16.4786 
        1.49104         102.993         16.3177 
        1.49718         102.866         16.1588 
        1.50333         102.477         16.0018 
        1.50947         101.866         15.8472 
         1.5156         101.383         15.6949 
        1.52172          100.62         15.5446 
        1.52787         100.222          15.396 
          1.534         99.6287         15.2495 
        1.54013         99.1804         15.1051 
        1.54627         98.4021         14.9622 
        1.55241         98.1895         14.8213 
        1.55855         97.4235         14.6823 
        1.56467         96.7621         14.5455 
         1.5708         96.1684         14.4101 
        1.57695         95.9497         14.2761 
        1.58308         95.3151         14.1443 
        1.58922         95.2875         14.0139 
        1.59535         94.7881         13.8853 
         1.6015         93.8971         13.7581 
        1.60764          93.344         13.6326 
        1.61376         92.9812          13.509 
        1.61989         92.4627         13.3868 
        1.62604         91.9697         13.2659 
        1.63218          91.617         13.1466 
        1.63831         91.0103          13.029 
        1.64444         90.4673         12.9128 
        1.65059         89.9831         12.7977 
        1.65673         89.7043         12.6842 
        1.66285         89.1377         12.5723 
        1.66898         88.5448         12.4618 
        1.67512         88.0758         12.3524 
        1.68127         87.7569         12.2442 
         1.6874         87.1061         12.1376 
        1.69353          86.655         12.0322 
        1.69967         86.2898         11.9279 
        1.70581         85.9676         11.8249 
        1.71193          85.382         11.7235 
        1.71806         84.9766         11.6231 
        1.72421         84.4645         11.5236 
        1.73035         84.1593         11.4254 
        1.73649         83.5708         11.3284 
        1.74262         83.1646         11.2326 
        1.74876         82.6835         11.1378 
        1.75489         82.2885         11.0444 
        1.76101         81.8317          10.952 
        1.76715         81.4173         10.8606 
        1.77329         81.0136         10.7701 
        1.77943         80.6953         10.6806 
        1.78557         80.3152         10.5922 
        1.79171         79.8093         10.5048 
        1.79785         79.2317         10.4185 
        1.80399         79.1405          10.333 
        1.81012         78.5068         10.2487 
        1.81625         78.1094         10.1654 
        1.82239         77.7934         10.0828 
        1.82853         77.2635         10.0012 
        1.83466         76.8162         9.92062 
        1.84078         76.6185         9.84099 
        1.84692         76.3883         9.76211 
        1.85306         75.8919           9.684 
         1.8592          75.522         9.60686 
        1.86533         75.0935         9.53062 
        1.87147         74.6889         9.45511 
        1.87761         74.0847         9.38039 
        1.88375         73.8742         9.30657 
        1.88988         73.2828         9.23362 
        1.89601         73.2414         9.16141 
        1.90215         72.6257         9.08992 
        1.90829         72.2622         9.01923 
        1.91442         71.9477         8.94929 
        1.92056         71.7791         8.88015 
         1.9267         71.2261         8.81167 
        1.93284         70.9664         8.74387 
        1.93897         70.5949         8.67692 
        1.94509         70.1965         8.61081 
        1.95123          69.878         8.54522 
        1.95737          69.536         8.48027 
        1.96349         69.2351         8.41617 
        1.96964         68.8609         8.35254 
        1.97578         68.4312         8.28954 
        1.98192         68.0172         8.22733 
        1.98805         67.5658         8.16574 
        1.99419         67.4846         8.10478 
        2.00033         66.9207         8.04442 
        2.00647         66.6829         7.98469 
         2.0126         66.3759         7.92566 
        2.01874          66.237         7.86715 
        2.02488         65.8314         7.80917 
        2.03101         65.3938         7.75189 
        2.03714         65.1682         7.69524 
        2.04328         64.8444         7.63909 
        2.04941         64.3257         7.58354 
        2.05554          64.135         7.52859 
        2.06167         63.7781         7.47411 
        2.06781         63.4503         7.42017 
        2.07396         63.1823         7.36667 
        2.08009         62.8089          7.3138 
        2.08622         62.5592         7.26151 
        2.09237         62.2687         7.20963 
        2.09851         61.7083         7.15824 
        2.10464          61.599         7.10745 
        2.11077         61.3744          7.0572 
        2.11691         61.0275         7.00734 
        2.12305         60.6294         6.95795 
        2.12918         60.3454         6.90916 
        2.13531         60.0819         6.86083 
        2.14145         59.7091         6.81286 
         2.1476         59.6043         6.76529 
        2.15372         59.1783         6.71841 
        2.15985         58.8411         6.67193 
        2.16599         58.5746         6.62576 
        2.17213          58.251         6.58007 
        2.17827         57.9307         6.53483 
         2.1844         57.6433         6.49005 
        2.19054         57.5035         6.44568 
        2.19666         57.2539         6.40179 
         2.2028         56.8073         6.35826 
        2.20893         56.5389         6.31512 
        2.21508         56.1683         6.27233 
        2.22122         55.9485         6.22993 
        2.22736         55.6916           6.188 
        2.23349         55.4325         6.14647 
        2.23962         55.2347          6.1053 
        2.24577         54.8473         6.06447 
         2.2519         54.6095         6.02408 
        2.25802         54.3645         5.98411 
        2.26417         54.0468          5.9444 
        2.27031         53.8361         5.90501 
        2.27644         53.6339         5.86609 
        2.28257         53.2623         5.82753 
        2.28872         53.0723         5.78924 
        2.29486         52.8475          5.7513 
        2.30099         52.4235         5.71378 
        2.30712         52.3247         5.67658 
        2.31326         52.0883         5.63965 
         2.3194         51.7583         5.60306 
        2.32553          51.535         5.56687 
        2.33166         51.2607         5.53101 
         2.3378         50.9779         5.49542 
        2.34394         50.7641         5.46013 
        2.35007         50.5152         5.42519 
        2.35619         50.2644         5.39061 
        2.36233         50.0279         5.35625 
        2.36848         49.7838         5.32212 
        2.37462           49.47         5.28835 
        2.38075          49.309         5.25491 
        2.38689         49.0222         5.22173 
        2.39303         48.8307         5.18885 
        2.39916         48.5804         5.15628 
        2.40529         48.3926           5.124 
        2.41143          48.157         5.09196 
        2.41757         47.9207         5.06019 
         2.4237         47.7695         5.02875 
        2.42983         47.4444         4.99758 
        2.43598         47.2835         4.96658 
        2.44211         46.9165         4.93591 
        2.44823         46.7731         4.90556 
        2.45437         46.5305         4.87538 
        2.46052         46.2245         4.84544 
        2.46665         46.0355          4.8158 
        2.47279         45.8471         4.78641 
        2.47892         45.6511         4.75725 
        2.48507         45.4697         4.72831 
         2.4912         45.1489         4.69967 
