# k  (h/Mpc)    P(k)  (Mpc/h)^3    P_linear(k)  (Mpc/h)^3
     0.00783031         1256.47         1259.79 
       0.013688          1560.8         1549.27 
       0.019231         1569.33         1555.05 
      0.0249154         1421.82         1417.21 
      0.0312784         1212.58         1202.32 
      0.0375637         1015.79         1003.26 
      0.0433917         868.293         861.071 
      0.0492413          771.02         762.663 
      0.0555754         697.839         694.356 
      0.0619321          656.26         647.224 
       0.067871          610.29         606.901 
      0.0738098         563.451         560.768 
      0.0800417         505.094          503.94 
      0.0862327         446.441         443.448 
      0.0921407         392.979         388.861 
      0.0982031         344.773          341.95 
       0.104506         311.362         305.927 
       0.110769         287.026         282.345 
       0.116806         270.749         267.995 
       0.122832         261.276         257.697 
       0.129052         248.865         247.107 
       0.135211         235.385         233.852 
       0.141259         220.169         217.478 
       0.147318         202.437         198.927 
       0.153489         182.959         180.056 
       0.159709         166.589         163.288 
       0.165845         154.824         150.293 
       0.171974         144.251         141.054 
       0.178125         138.163         134.826 
       0.184229         133.805         130.401 
        0.19034         128.128          126.35 
       0.196428         124.286         121.621 
       0.202534         119.281         115.689 
       0.208729         111.628          108.61 
       0.214876         103.711         101.161 
       0.220989         97.7336         94.1008 
       0.227147         90.7913         87.9653 
        0.23329         86.0276         83.1207 
       0.239377         82.7293          79.525 
       0.245482         79.1384         76.7992 
       0.251667         77.4874          74.478 
       0.257832         74.9657         72.1594 
       0.263955         72.2961         69.5498 
       0.270079          69.318         66.5536 
        0.27624         66.6307         63.2628 
       0.282372         63.3601         59.9428 
        0.28843         60.0261         56.8692 
       0.294538         57.2746         54.1522 
       0.300721         55.4545          51.872 
        0.30691         53.1138         50.0093 
       0.313033         51.5306         48.4605 
       0.319153          49.413          47.041 
       0.325316         48.6868         45.6063 
        0.33145         46.9059         44.0813 
       0.337538         45.4318         42.4665 
       0.343633         43.5986         40.7869 
       0.349808         42.0869         39.1081 
       0.355968         40.5926         37.5335 
       0.362074         39.1171         36.1281 
       0.368217         37.8783         34.8892 
       0.374374         36.6357         33.7988 
       0.380519         35.7552         32.8213 
       0.386598         34.8226          31.906 
       0.392688         34.0364         30.9972 
        0.39888         32.9784         30.0581 
       0.405048         32.0999         29.0988 
       0.411186         31.1958         28.1423 
       0.417313         30.0878         27.2103 
       0.423458         29.2412         26.3217 
       0.429607         28.3608          25.499 
       0.435692          27.509         24.7548 
       0.441815         26.9194         24.0648 
       0.447964         26.4203         23.4191 
       0.454126         25.4587         22.8014 
       0.460267         24.9465         22.1975 
       0.466387         24.1804         21.5988 
        0.47254         23.7343         21.0018 
       0.478662          23.243         20.4156 
       0.484765         22.5194         19.8459 
       0.490885          21.963         19.2983 
       0.497035         21.6353         18.7789 
       0.503198         21.0378          18.289 
       0.509342         20.5128          17.827 
       0.515458         20.0266         17.3894 
       0.521598         19.6446         16.9674 
       0.527764         19.1801         16.5556 
       0.533884          18.842         16.1539 
           0.54         18.4044         15.7591 
       0.546137          18.054         15.3719 
       0.552299         17.7076          14.995 
       0.558452         17.1604         14.6322 
       0.564573         16.9055         14.2851 
       0.570708         16.5736         13.9513 
       0.576825         16.1442         13.6324 
       0.582926         15.8517         13.3273 
       0.589034         15.4101         13.0323 
       0.595184         15.1834         12.7437 
       0.601379         14.8567         12.4598 
       0.607522         14.6231         12.1844 
       0.613639         14.4257         11.9171 
       0.619772         14.0325         11.6567 
       0.625918         13.9081         11.4042 
       0.632068         13.6769         11.1601 
       0.638161         13.3417         10.9261 
         0.6443         13.0673         10.6978 
       0.650464         12.8036         10.4755 
       0.656582         12.6983         10.2613 
       0.662703         12.4544          10.053 
       0.668861         12.2183          9.8493 
       0.675024         11.9748         9.65099 
       0.681124         11.7637         9.45999 
       0.687237         11.5768         9.27361 
       0.693381         11.4213         9.09121 
       0.699536         11.1109         8.91333 
       0.705665         10.9972         8.74098 
       0.711789         10.7984         8.57341 
       0.717957         10.6175         8.40924 
        0.72409          10.439         8.25048 
       0.730186         10.2956         8.09695 
       0.736317         10.1759          7.9466 
       0.742472         10.0092         7.79961 
       0.748622         9.84816         7.65651 
        0.75476         9.64308          7.5173 
       0.760888         9.51641         7.38173 
       0.767043         9.39769         7.24893 
       0.773185         9.20527         7.11965 
       0.779291         9.13072         6.99424 
       0.785407         8.98672         6.87168 
       0.791564          8.8404         6.75129 
       0.797719         8.67705         6.63386 
       0.803834         8.61952         6.52001 
       0.809972         8.52145         6.40845 
       0.816124         8.33676         6.29928 
       0.822261          8.2095         6.19298 
       0.828378         8.11175         6.08948 
       0.834502         8.03919         5.98828 
       0.840667         7.88908         5.88875 
       0.846816         7.75114         5.79179 
       0.852925         7.68209         5.69763 
       0.859047         7.58045         5.60539 
       0.865192         7.50632         5.51491 
       0.871341         7.42182         5.42638 
       0.877463         7.30001         5.34021 
       0.883569         7.18194         5.25614 
       0.889708          7.0643         5.17346 
       0.895864         6.99728         5.09237 
       0.902008         6.92056         5.01319 
       0.908149         6.84408         4.93575 
       0.914301         6.74149         4.85983 
       0.920448         6.64154         4.78559 
       0.926574         6.55726         4.71316 
       0.932687         6.49141          4.6424 
       0.938823         6.40452         4.57284 
       0.944975         6.32045         4.50456 
       0.951105         6.25643         4.43793 
       0.957225         6.22274         4.37276 
       0.963368          6.1335         4.30868 
       0.969511         6.05663          4.2459 
       0.975621         5.97645          4.1847 
       0.981748         5.91263         4.12457 
       0.987916         5.85327         4.06524 
        0.99406         5.75659         4.00731 
        1.00019         5.67701         3.95062 
        1.00632         5.64988          3.8951 
        1.01246         5.58253         3.84056 
        1.01859         5.50488         3.78715 
        1.02471         5.45323         3.73484 
        1.03085         5.39051         3.68333 
        1.03698         5.31715         3.63291 
        1.04314         5.27502         3.58323 
        1.04929         5.20784         3.53459 
        1.05541         5.14688         3.48706 
        1.06154         5.10263         3.44029 
        1.06769         5.07278         3.39431 
        1.07382         4.98899         3.34932 
        1.07993         4.93299         3.30526 
        1.08607         4.90373         3.26181 
        1.09222         4.84657         3.21911 
        1.09836         4.79718         3.17722 
        1.10449         4.74794         3.13613 
        1.11063         4.69483         3.09573 
        1.11677         4.65872         3.05606 
         1.1229         4.61368         3.01715 
        1.12903         4.55702         2.97889 
        1.13518         4.51065         2.94127 
        1.14131         4.45585         2.90431 
        1.14745         4.40152         2.86802 
        1.15359         4.37815         2.83235 
        1.15973         4.32599         2.79726 
        1.16584         4.28176         2.76294 
        1.17197         4.24333         2.72914 
        1.17811         4.21588          2.6958 
        1.18424         4.17609         2.66312 
        1.19038         4.14527         2.63089 
        1.19652         4.09956         2.59921 
        1.20267         4.05603         2.56805 
        1.20881         4.02614         2.53741 
        1.21495          3.9902         2.50732 
        1.22108         3.94815         2.47772 
         1.2272          3.9232         2.44867 
        1.23334         3.87135         2.42002 
        1.23949         3.83503         2.39177 
        1.24562         3.81378         2.36404 
        1.25174         3.76908          2.3368 
        1.25789         3.74295          2.3099 
        1.26402         3.70848         2.28348 
        1.27014         3.67358         2.25754 
        1.27628         3.64691         2.23192 
        1.28244         3.60121         2.20665 
        1.28858          3.5874         2.18181 
        1.29471         3.54394         2.15741 
        1.30084         3.51067          2.1334 
        1.30697         3.50553         2.10973 
        1.31312         3.44029         2.08638 
        1.31925         3.42406         2.06346 
        1.32537         3.39367         2.04091 
        1.33151           3.378         2.01861 
        1.33765         3.33328         1.99666 
        1.34378         3.31131         1.97509 
        1.34992         3.29559         1.95382 
        1.35606         3.24832         1.93281 
         1.3622          3.2361         1.91216 
        1.36833         3.20721         1.89185 
        1.37445         3.18038         1.87185 
        1.38059         3.16694         1.85208 
        1.38675         3.14297         1.83255 
        1.39288         3.11197         1.81338 
        1.39901         3.07817          1.7945 
        1.40515         3.05767         1.77584 
         1.4113         3.03666         1.75745 
        1.41742         3.01495          1.7394 
        1.42355         2.99137         1.72156 
         1.4297          2.9638         1.70392 
        1.43585         2.95028         1.68654 
        1.44198         2.93187         1.66947 
        1.44809         2.89921         1.65266 
        1.45423         2.87646         1.63603 
        1.46036         2.85183         1.61965 
        1.46649         2.83254         1.60349 
        1.47263         2.80932         1.58755 
        1.47877          2.7852         1.57182 
        1.48491         2.76678         1.55628 
        1.49104         2.75156         1.54099 
        1.49718         2.73092         1.52589 
        1.50333         2.71252         1.51097 
        1.50947           2.691         1.49628 
         1.5156         2.67107         1.48181 
        1.52172         2.65344         1.46753 
        1.52787         2.63529          1.4534 
          1.534         2.61304         1.43949 
        1.54013         2.59783         1.42577 
        1.54627          2.5737          1.4122 
        1.55241         2.55476         1.39881 
        1.55855          2.5434         1.38561 
        1.56467         2.52622         1.37262 
         1.5708         2.50355         1.35976 
        1.57695         2.48612         1.34704 
        1.58308         2.46691         1.33452 
        1.58922         2.45702         1.32215 
        1.59535         2.43915         1.30993 
         1.6015         2.42077         1.29786 
        1.60764         2.40632         1.28595 
        1.61376         2.39197         1.27421 
        1.61989         2.37288         1.26262 
        1.62604         2.35543         1.25114 
        1.63218         2.34862         1.23982 
        1.63831         2.32557         1.22866 
        1.64444         2.31067         1.21763 
        1.65059         2.29607         1.20671 
        1.65673         2.28374         1.19594 
        1.66285         2.26441         1.18533 
        1.66898         2.25302         1.17485 
        1.67512         2.23298         1.16447 
        1.68127         2.22075         1.15421 
         1.6874         2.21399         1.14409 
        1.69353         2.18702         1.13411 
        1.69967         2.17699         1.12422 
        1.70581          2.1703         1.11445 
        1.71193         2.15202         1.10483 
        1.71806         2.14237         1.09531 
        1.72421         2.12803         1.08588 
        1.73035         2.11455         1.07657 
        1.73649         2.09983         1.06737 
        1.74262         2.08666         1.05829 
        1.74876         2.07876         1.04931 
        1.75489         2.06048         1.04045 
        1.76101          2.0461         1.03169 
        1.76715         2.03757         1.02303 
        1.77329          2.0275         1.01445 
        1.77943         2.00787         1.00597 
        1.78557         1.99939        0.997596 
        1.79171         1.99181        0.989318 
        1.79785          1.9745        0.981132 
        1.80399         1.96427         0.97304 
        1.81012         1.95563        0.965051 
        1.81625         1.94203        0.957155 
        1.82239         1.92853        0.949336 
        1.82853         1.91373        0.941608 
        1.83466         1.90917        0.933973 
        1.84078         1.89742        0.926431 
        1.84692         1.88844        0.918961 
        1.85306         1.87263        0.911564 
         1.8592         1.86192        0.904259 
        1.86533         1.85133        0.897039 
        1.87147          1.8447         0.88989 
        1.87761           1.832        0.882816 
        1.88375         1.81942        0.875827 
        1.88988         1.81219        0.868921 
        1.89601         1.80005        0.862086 
        1.90215         1.78618        0.855319 
        1.90829         1.77574        0.848628 
        1.91442         1.77121        0.842008 
        1.92056          1.7586        0.835465 
         1.9267         1.74988        0.828984 
        1.93284         1.74436        0.822569 
        1.93897         1.73278        0.816233 
        1.94509         1.72078        0.809978 
        1.95123          1.7099        0.803773 
        1.95737         1.70069        0.797628 
        1.96349         1.69362        0.791563 
        1.96964         1.68704        0.785544 
        1.97578         1.67391        0.779585 
        1.98192         1.66671        0.773699 
        1.98805         1.65707        0.767874 
        1.99419         1.65076        0.762108 
        2.00033         1.64487        0.756399 
        2.00647         1.63075         0.75075 
         2.0126         1.62537        0.745168 
        2.01874         1.61251        0.739635 
        2.02488          1.6077        0.734152 
        2.03101          1.5942        0.728736 
        2.03714         1.58693        0.723379 
        2.04328         1.58146         0.71807 
        2.04941         1.56902        0.712819 
        2.05554         1.56456        0.707624 
        2.06167         1.55568        0.702474 
        2.06781         1.55021        0.697374 
        2.07396         1.54123        0.692318 
        2.08009         1.53322         0.68732 
        2.08622         1.52345        0.682378 
        2.09237         1.51772        0.677474 
        2.09851         1.50934        0.672618 
        2.10464          1.5058        0.667818 
        2.11077         1.49488         0.66307 
        2.11691          1.4867        0.658358 
        2.12305         1.48158        0.653691 
        2.12918         1.47404        0.649081 
        2.13531         1.46644        0.644515 
        2.14145         1.45819        0.639982 
         2.1476         1.44945        0.635487 
        2.15372         1.44325        0.631059 
        2.15985         1.43574        0.626668 
        2.16599         1.43052        0.622306 
        2.17213            1.42        0.617991 
        2.17827         1.41629        0.613717 
         2.1844         1.41028        0.609488 
        2.19054         1.40442        0.605297 
        2.19666         1.39613        0.601151 
         2.2028         1.38917        0.597041 
        2.20893         1.38298        0.592967 
        2.21508         1.37789        0.588927 
        2.22122          1.3669        0.584923 
        2.22736         1.36153        0.580964 
        2.23349         1.35908        0.577043 
        2.23962         1.34889        0.573156 
        2.24577         1.34471        0.569302 
         2.2519         1.33661        0.565488 
        2.25802         1.33311        0.561715 
        2.26417         1.32588        0.557967 
        2.27031         1.32043        0.554249 
        2.27644         1.31369        0.550575 
        2.28257         1.30713        0.546935 
        2.28872         1.30184        0.543322 
        2.29486         1.29504        0.539741 
        2.30099          1.2888          0.5362 
        2.30712         1.28231         0.53269 
        2.31326         1.27997        0.529205 
         2.3194         1.27331        0.525753 
        2.32553         1.26833        0.522337 
        2.33166         1.25985        0.518954 
         2.3378         1.25437        0.515595 
        2.34394         1.24833        0.512266 
        2.35007          1.2432         0.50897 
        2.35619         1.24061        0.505708 
        2.36233         1.23174        0.502466 
        2.36848         1.22754        0.499247 
        2.37462         1.22299        0.496062 
        2.38075         1.21707        0.492908 
        2.38689         1.21259        0.489779 
        2.39303         1.20622        0.486677 
        2.39916         1.20088        0.483606 
        2.40529         1.19641        0.480561 
        2.41143         1.19012         0.47754 
        2.41757         1.18558        0.474544 
         2.4237         1.18293        0.471579 
        2.42983         1.17479         0.46864 
        2.43598         1.17257        0.465718 
        2.44211         1.16676        0.462826 
        2.44823         1.16125        0.459965 
        2.45437         1.15675         0.45712 
        2.46052         1.15297        0.454296 
        2.46665         1.14748        0.451502 
        2.47279           1.142        0.448732 
        2.47892         1.13699        0.445983 
        2.48507         1.13352        0.443255 
         2.4912         1.12744        0.440555 
