# k  (h/Mpc)    Pcb(k)  (Mpc/h)^3    Pcb_linear(k)  (Mpc/h)^3
     0.00783031         19824.3         20130.5 
       0.013688         25036.3         24769.5 
       0.019231           24903         24854.7 
      0.0249154         22093.1           22643 
      0.0312784         18943.8         19203.9 
      0.0375637         16020.7         16021.5 
      0.0433917         13480.9         13748.9 
      0.0492413         12087.6         12176.4 
      0.0555754         10700.3         11084.9 
      0.0619321         10332.9         10331.8 
       0.067871         9365.84          9687.7 
      0.0738098         8658.88         8950.96 
      0.0800417         7698.35          8043.6 
      0.0862327         6902.68         7077.88 
      0.0921407          6227.2          6206.5 
      0.0982031         5483.01         5457.68 
       0.104506         5104.42         4882.67 
       0.110769         4710.83         4506.22 
       0.116806         4461.21         4277.15 
       0.122832         4267.21         4112.74 
       0.129052         3978.18          3943.7 
       0.135211         3775.44         3732.14 
       0.141259         3608.91          3470.8 
       0.147318         3381.08         3174.73 
       0.153489         3074.72         2873.53 
       0.159709         2887.97         2605.92 
       0.165845         2772.81         2398.53 
       0.171974         2623.31         2251.08 
       0.178125         2499.33         2151.67 
       0.184229         2389.68         2081.05 
        0.19034         2280.37          2016.4 
       0.196428         2231.01         1940.91 
       0.202534         2141.25         1846.25 
       0.208729         2042.66         1733.28 
       0.214876         1962.29         1614.39 
       0.220989         1887.82         1501.72 
       0.227147         1811.09         1403.81 
        0.23329         1738.67          1326.5 
       0.239377         1713.21          1269.1 
       0.245482          1611.7          1225.6 
       0.251667         1604.16         1188.56 
       0.257832         1540.35         1151.55 
       0.263955         1489.31         1109.91 
       0.270079         1438.68         1062.09 
        0.27624         1420.06         1009.57 
       0.282372          1362.4         956.593 
        0.28843         1357.07         907.544 
       0.294538         1290.72         864.191 
       0.300721          1280.5         827.792 
        0.30691         1235.21         798.066 
       0.313033          1209.7         773.351 
       0.319153         1192.19         750.697 
       0.325316         1153.63         727.793 
        0.33145         1128.92         703.465 
       0.337538          1105.9         677.695 
       0.343633         1085.58          650.89 
       0.349808         1049.64         624.101 
       0.355968         1041.14         598.972 
       0.362074         1032.49         576.542 
       0.368217          998.87         556.771 
       0.374374         964.506         539.373 
       0.380519         966.871         523.773 
       0.386598         937.749         509.166 
       0.392688         933.844         494.663 
        0.39888         907.458         479.673 
       0.405048         898.388         464.368 
       0.411186         885.813         449.103 
       0.417313         867.226          434.23 
       0.423458         851.248         420.047 
       0.429607         842.682         406.922 
       0.435692         825.097         395.043 
       0.441815         817.232         384.034 
       0.447964         801.509         373.727 
       0.454126         796.399         363.872 
       0.460267         775.637         354.231 
       0.466387         765.562         344.679 
        0.47254         765.064          335.15 
       0.478662         754.137         325.797 
       0.484765         732.942         316.705 
       0.490885         728.484         307.969 
       0.497035         713.782         299.677 
       0.503198         709.614          291.86 
       0.509342         702.169         284.487 
       0.515458         698.563         277.504 
       0.521598         680.996          270.77 
       0.527764         670.615         264.198 
       0.533884         667.211         257.788 
           0.54         661.828         251.486 
       0.546137         654.473         245.308 
       0.552299         647.111         239.293 
       0.558452         641.256         233.503 
       0.564573         634.042         227.965 
       0.570708         626.783         222.637 
       0.576825         611.627         217.549 
       0.582926         613.938         212.679 
       0.589034         607.146         207.971 
       0.595184          602.13         203.366 
       0.601379         593.457         198.836 
       0.607522         585.129         194.441 
       0.613639         584.598         190.175 
       0.619772         574.697         186.021 
       0.625918         570.432         181.991 
       0.632068         563.168         178.095 
       0.638161         560.273         174.361 
         0.6443         552.127         170.717 
       0.650464         550.227          167.17 
       0.656582         543.893         163.752 
       0.662703         542.972         160.428 
       0.668861         534.522         157.177 
       0.675024         529.995         154.012 
       0.681124         526.174         150.964 
       0.687237         522.723          147.99 
       0.693381         515.393         145.079 
       0.699536         507.295         142.241 
       0.705665         507.098          139.49 
       0.711789         504.804         136.816 
       0.717957         500.188         134.196 
        0.72409          497.82         131.663 
       0.730186         490.411         129.213 
       0.736317         488.096         126.813 
       0.742472         484.354         124.468 
       0.748622         479.715         122.184 
        0.75476         472.703         119.962 
       0.760888         469.065         117.799 
       0.767043         468.785          115.68 
       0.773185         464.709         113.617 
       0.779291         459.793         111.615 
       0.785407         456.626         109.659 
       0.791564         452.185         107.738 
       0.797719         450.736         105.864 
       0.803834         444.564         104.047 
       0.809972         444.097         102.267 
       0.816124         442.434         100.525 
       0.822261         436.637         98.8286 
       0.828378         434.491          97.177 
       0.834502         429.416          95.562 
       0.840667         426.642         93.9737 
       0.846816         424.812         92.4263 
       0.852925         422.315         90.9238 
       0.859047         420.093         89.4518 
       0.865192         414.659         88.0078 
       0.871341         411.414          86.595 
       0.877463         411.581         85.2199 
       0.883569         407.246         83.8783 
       0.889708         405.065          82.559 
       0.895864          404.41         81.2648 
       0.902008         400.425         80.0013 
       0.908149         394.846         78.7655 
       0.914301         393.517          77.554 
       0.920448         391.851         76.3692 
       0.926574         386.133         75.2134 
       0.932687         385.317         74.0842 
       0.938823         381.783         72.9742 
       0.944975         381.895         71.8846 
       0.951105         378.097         70.8212 
       0.957225         375.649         69.7812 
       0.963368         371.052         68.7587 
       0.969511         370.436         67.7567 
       0.975621         368.697         66.7802 
       0.981748         365.782         65.8206 
       0.987916         364.182         64.8738 
        0.99406         359.326         63.9493 
        1.00019         357.497         63.0447 
        1.00632         356.249         62.1586 
        1.01246         353.194         61.2882 
        1.01859         353.012          60.436 
        1.02471         348.421         59.6012 
        1.03085         347.269         58.7792 
        1.03698         345.363         57.9746 
        1.04314         343.033         57.1817 
        1.04929         339.735         56.4056 
        1.05541         340.434          55.647 
        1.06154         334.996         54.9007 
        1.06769         334.254         54.1669 
        1.07382         331.452          53.449 
        1.07993         330.102         52.7459 
        1.08607         329.252         52.0526 
        1.09222         325.305         51.3711 
        1.09836         323.108         50.7026 
        1.10449         321.426         50.0469 
        1.11063         317.666         49.4021 
        1.11677         318.438          48.769 
         1.1229         315.519         48.1481 
        1.12903         313.904         47.5376 
        1.13518         310.934         46.9372 
        1.14131         309.604         46.3475 
        1.14745         307.815         45.7683 
        1.15359         306.083          45.199 
        1.15973         304.304         44.6392 
        1.16584         301.889         44.0913 
        1.17197         301.765          43.552 
        1.17811         298.419           43.02 
        1.18424         296.275         42.4985 
        1.19038         295.478         41.9842 
        1.19652         293.174         41.4785 
        1.20267         292.535         40.9813 
        1.20881         290.002         40.4923 
        1.21495         288.225         40.0121 
        1.22108         286.486         39.5398 
         1.2272         284.981         39.0762 
        1.23334         283.911         38.6191 
        1.23949         280.563         38.1681 
        1.24562         279.815         37.7257 
        1.25174         278.832          37.291 
        1.25789         276.378         36.8618 
        1.26402         274.466         36.4401 
        1.27014         272.984         36.0261 
        1.27628         270.859         35.6173 
        1.28244         270.996         35.2141 
        1.28858          268.53         34.8177 
        1.29471         267.644         34.4283 
        1.30084         264.945         34.0452 
        1.30697         264.324         33.6674 
        1.31312         261.592         33.2948 
        1.31925         260.104          32.929 
        1.32537         259.764         32.5691 
        1.33151         257.484         32.2133 
        1.33765         255.295         31.8631 
        1.34378         254.909         31.5187 
        1.34992         253.525         31.1793 
        1.35606         252.427         30.8441 
         1.3622         249.822         30.5145 
        1.36833         248.878         30.1905 
        1.37445         247.228         29.8713 
        1.38059         245.623         29.5558 
        1.38675         244.579         29.2442 
        1.39288         243.389         28.9382 
        1.39901         241.678         28.6369 
        1.40515         240.689         28.3391 
         1.4113          239.14         28.0457 
        1.41742         237.436         27.7576 
        1.42355         236.396         27.4729 
         1.4297         234.715         27.1915 
        1.43585         233.448         26.9141 
        1.44198         233.092         26.6416 
        1.44809          230.89         26.3735 
        1.45423         229.768          26.108 
        1.46036          228.39         25.8467 
        1.46649         227.252         25.5888 
        1.47263         226.255         25.3343 
        1.47877         224.496         25.0834 
        1.48491         222.436         24.8354 
        1.49104         221.933         24.5914 
        1.49718         220.149         24.3504 
        1.50333         219.608         24.1123 
        1.50947         218.056         23.8779 
         1.5156         216.457         23.6469 
        1.52172         215.761          23.419 
        1.52787         213.918         23.1937 
          1.534         213.548         22.9716 
        1.54013         211.594         22.7526 
        1.54627         210.834         22.5361 
        1.55241         209.562         22.3224 
        1.55855         207.597         22.1118 
        1.56467          207.39         21.9044 
         1.5708         205.988         21.6992 
        1.57695         205.085         21.4963 
        1.58308         203.642         21.2964 
        1.58922         202.194          21.099 
        1.59535         200.952         20.9041 
         1.6015         199.808         20.7115 
        1.60764         199.148         20.5213 
        1.61376         198.071         20.3341 
        1.61989         197.036         20.1491 
        1.62604         195.617         19.9659 
        1.63218         194.847         19.7852 
        1.63831         193.185         19.6071 
        1.64444         192.451         19.4311 
        1.65059         191.628         19.2569 
        1.65673          190.44          19.085 
        1.66285         189.063         18.9157 
        1.66898         188.464         18.7484 
        1.67512         187.323         18.5828 
        1.68127         185.676          18.419 
         1.6874         185.302         18.2576 
        1.69353         183.963         18.0982 
        1.69967         182.705         17.9404 
        1.70581         181.895         17.7845 
        1.71193         180.507          17.631 
        1.71806         180.061          17.479 
        1.72421         178.824         17.3286 
        1.73035         178.158           17.18 
        1.73649         177.016         17.0332 
        1.74262         176.091         16.8883 
        1.74876         174.634          16.745 
        1.75489         174.119         16.6036 
        1.76101         172.642         16.4639 
        1.76715         172.238         16.3256 
        1.77329         170.941         16.1887 
        1.77943         170.333         16.0534 
        1.78557         169.286         15.9198 
        1.79171         168.495         15.7877 
        1.79785          167.25          15.657 
        1.80399         166.598         15.5279 
        1.81012         165.716         15.4004 
        1.81625         165.009         15.2744 
        1.82239         163.694         15.1496 
        1.82853         163.031         15.0263 
        1.83466         162.261         14.9045 
        1.84078         161.248         14.7841 
        1.84692         160.129         14.6649 
        1.85306         159.714         14.5469 
         1.8592         158.681         14.4303 
        1.86533         158.212         14.3151 
        1.87147          156.91          14.201 
        1.87761         156.012         14.0881 
        1.88375          155.26         13.9766 
        1.88988         153.769         13.8664 
        1.89601         153.674         13.7573 
        1.90215         152.847         13.6493 
        1.90829         151.624         13.5425 
        1.91442         151.268         13.4369 
        1.92056         150.126         13.3325 
         1.9267         149.253         13.2291 
        1.93284         148.327         13.1267 
        1.93897         147.878         13.0256 
        1.94509         147.242         12.9258 
        1.95123         146.321         12.8267 
        1.95737         145.371         12.7287 
        1.96349         144.807         12.6319 
        1.96964         143.781         12.5358 
        1.97578          142.89         12.4407 
        1.98192         142.205         12.3468 
        1.98805         141.714         12.2539 
        1.99419         140.646         12.1619 
        2.00033         140.049         12.0707 
        2.00647         139.277         11.9806 
         2.0126          138.37         11.8915 
        2.01874         137.908         11.8032 
        2.02488          137.49         11.7157 
        2.03101         136.166         11.6293 
        2.03714         135.745         11.5438 
        2.04328         134.734         11.4591 
        2.04941         134.348         11.3753 
        2.05554         133.302         11.2924 
        2.06167         132.805         11.2102 
        2.06781         131.783         11.1288 
        2.07396         131.583         11.0481 
        2.08009         130.534         10.9684 
        2.08622         129.674         10.8895 
        2.09237         129.255         10.8112 
        2.09851          128.54         10.7338 
        2.10464         128.055         10.6571 
        2.11077         127.343         10.5814 
        2.11691         126.624         10.5062 
        2.12305         126.142         10.4317 
        2.12918         125.371         10.3581 
        2.13531          124.53         10.2853 
        2.14145         123.941         10.2129 
         2.1476         123.083         10.1412 
        2.15372          122.88         10.0705 
        2.15985         121.954         10.0005 
        2.16599         121.295         9.93085 
        2.17213         120.907         9.86199 
        2.17827         120.041         9.79379 
         2.1844         119.379          9.7263 
        2.19054         119.033         9.65942 
        2.19666         118.208         9.59327 
         2.2028         117.515         9.52767 
        2.20893         117.079         9.46266 
        2.21508         116.281         9.39818 
        2.22122         115.813         9.33429 
        2.22736          115.23         9.27112 
        2.23349         114.738         9.20854 
        2.23962         114.192         9.14652 
        2.24577         113.389         9.08501 
         2.2519          112.88         9.02415 
        2.25802         112.075         8.96394 
        2.26417         111.819         8.90412 
        2.27031         111.085         8.84479 
        2.27644         110.595         8.78617 
        2.28257         110.081         8.72808 
        2.28872         109.336         8.67041 
        2.29486           108.8         8.61328 
        2.30099         108.221         8.55677 
        2.30712         107.715         8.50075 
        2.31326         107.129         8.44513 
         2.3194         106.498         8.39005 
        2.32553         105.935         8.33554 
        2.33166         105.363         8.28155 
         2.3378         105.098         8.22796 
        2.34394         104.386         8.17483 
        2.35007         103.893         8.12224 
        2.35619         103.353         8.07018 
        2.36233         102.959         8.01845 
        2.36848         102.279         7.96706 
        2.37462         101.894         7.91624 
        2.38075          101.25         7.86591 
        2.38689         100.738         7.81597 
        2.39303         100.167         7.76648 
        2.39916         99.6993         7.71747 
        2.40529         99.4768         7.66888 
        2.41143         98.8784         7.62068 
        2.41757         98.2737         7.57287 
         2.4237         97.8041         7.52555 
        2.42983         97.3059         7.47865 
        2.43598         96.6642         7.43202 
        2.44211         96.3114         7.38586 
        2.44823         95.7421          7.3402 
        2.45437         95.3735          7.2948 
        2.46052         94.7492         7.24975 
        2.46665          94.483         7.20515 
        2.47279         93.9012         7.16095 
        2.47892         93.4127         7.11708 
        2.48507         93.0551         7.07355 
         2.4912         92.5538         7.03046 
