# k  (h/Mpc)    Pcb(k)  (Mpc/h)^3    Pcb_linear(k)  (Mpc/h)^3
     0.00783031         1485.45         1500.41 
       0.013688         1845.11         1846.47 
       0.019231         1854.53         1853.89 
      0.0249154         1679.32         1689.81 
      0.0312784         1432.58         1433.72 
      0.0375637         1200.43         1196.43 
      0.0433917         1025.74         1026.89 
      0.0492413         911.093         909.557 
      0.0555754         824.206          828.11 
      0.0619321          775.76         771.911 
       0.067871         720.941         723.828 
      0.0738098           665.6         668.813 
      0.0800417         596.534          601.04 
      0.0862327         527.452         528.895 
      0.0921407         464.493         463.792 
      0.0982031         407.444         407.843 
       0.104506         368.282          364.88 
       0.110769         339.491         336.754 
       0.116806          320.14          319.64 
       0.122832         308.999         307.357 
       0.129052         294.146         294.728 
       0.135211         278.237         278.919 
       0.141259         260.391          259.39 
       0.147318         239.518         237.264 
       0.153489         216.462         214.756 
       0.159709         197.231         194.756 
       0.165845          183.45         179.258 
       0.171974         170.895         168.239 
       0.178125         163.704          160.81 
       0.184229         158.539         155.532 
        0.19034         151.652         150.701 
       0.196428         147.226          145.06 
       0.202534         141.379         137.985 
       0.208729         132.318         129.543 
       0.214876         122.945         120.657 
       0.220989          115.98         112.237 
       0.227147         107.748         104.919 
        0.23329         102.139          99.141 
       0.239377         98.2955         94.8519 
       0.245482         93.9093         91.6007 
       0.251667          92.027          88.832 
       0.257832         89.0553         86.0662 
       0.263955           85.87          82.954 
       0.270079         82.3489         79.3804 
        0.27624         79.2508         75.4551 
       0.282372         75.3928         71.4956 
        0.28843         71.4589         67.8297 
       0.294538         68.1958         64.5896 
       0.300721         66.1029         61.8692 
        0.30691         63.2919         59.6475 
       0.313033         61.4182         57.8004 
       0.319153          58.861         56.1072 
       0.325316         58.0175         54.3955 
        0.33145         55.8826         52.5772 
       0.337538         54.1861         50.6511 
       0.343633         52.0163         48.6478 
       0.349808         50.2307         46.6456 
       0.355968          48.488         44.7674 
       0.362074          46.743          43.091 
       0.368217         45.2735         41.6134 
       0.374374         43.8144          40.313 
       0.380519         42.7628         39.1471 
       0.386598         41.6445         38.0554 
       0.392688          40.725         36.9714 
        0.39888         39.4719          35.851 
       0.405048         38.4385         34.7072 
       0.411186          37.379         33.5662 
       0.417313         36.0599         32.4547 
       0.423458         35.0543         31.3947 
       0.429607         34.0203         30.4137 
       0.435692         32.9831         29.5258 
       0.441815         32.3187          28.703 
       0.447964         31.7324         27.9327 
       0.454126          30.546         27.1961 
       0.460267         29.9595         26.4755 
       0.466387         29.0485         25.7616 
        0.47254         28.5337         25.0494 
       0.478662          27.963         24.3504 
       0.484765         27.0946         23.6708 
       0.490885         26.4347         23.0179 
       0.497035          26.051         22.3981 
       0.503198         25.3365         21.8139 
       0.509342         24.6959         21.2628 
       0.515458         24.1294         20.7409 
       0.521598         23.6836         20.2376 
       0.527764         23.1403         19.7464 
       0.533884         22.7334         19.2673 
           0.54          22.213         18.7964 
       0.546137         21.8068         18.3346 
       0.552299         21.4041          17.885 
       0.558452         20.7382         17.4523 
       0.564573         20.4332         17.0384 
       0.570708          20.049         16.6402 
       0.576825         19.5334         16.2599 
       0.582926         19.1751         15.8959 
       0.589034         18.6488          15.544 
       0.595184         18.3865         15.1998 
       0.601379         18.0002         14.8612 
       0.607522         17.7076         14.5327 
       0.613639         17.4839         14.2139 
       0.619772         17.0118         13.9034 
       0.625918         16.8802         13.6022 
       0.632068         16.5993          13.311 
       0.638161         16.2021          13.032 
         0.6443         15.8702         12.7596 
       0.650464           15.56         12.4945 
       0.656582         15.4431          12.239 
       0.662703          15.147         11.9906 
       0.668861         14.8557         11.7476 
       0.675024         14.5688         11.5111 
       0.681124         14.3153         11.2833 
       0.687237         14.0838         11.0609 
       0.693381         13.9128         10.8434 
       0.699536         13.5362         10.6312 
       0.705665         13.4188         10.4257 
       0.711789         13.1645         10.2258 
       0.717957         12.9543           10.03 
        0.72409         12.7421         9.84063 
       0.730186         12.5699          9.6575 
       0.736317         12.4225         9.47819 
       0.742472         12.2183         9.30286 
       0.748622         12.0385         9.13218 
        0.75476         11.7932         8.96614 
       0.760888         11.6375         8.80445 
       0.767043         11.4928         8.64605 
       0.773185         11.2628         8.49185 
       0.779291         11.1807         8.34228 
       0.785407         11.0135         8.19609 
       0.791564         10.8282         8.05249 
       0.797719         10.6175         7.91244 
       0.803834         10.5635         7.77664 
       0.809972         10.4525         7.64357 
       0.816124         10.2195         7.51337 
       0.822261          10.077         7.38658 
       0.828378         9.95878         7.26313 
       0.834502         9.87033         7.14243 
       0.840667         9.69735         7.02372 
       0.846816         9.52396         6.90806 
       0.852925         9.43773         6.79576 
       0.859047         9.31925         6.68574 
       0.865192         9.23201         6.57782 
       0.871341         9.13329         6.47223 
       0.877463         8.97911         6.36945 
       0.883569         8.84115         6.26918 
       0.889708         8.69567         6.17057 
       0.895864         8.61975         6.07384 
       0.902008         8.53552          5.9794 
       0.908149         8.44015         5.88704 
       0.914301         8.32791         5.79648 
       0.920448         8.19616         5.70793 
       0.926574          8.0993         5.62155 
       0.932687         8.01753         5.53715 
       0.938823          7.9084         5.45419 
       0.944975         7.80682         5.37275 
       0.951105         7.73115         5.29327 
       0.957225         7.68655         5.21554 
       0.963368         7.58282         5.13911 
       0.969511          7.4957         5.06423 
       0.975621         7.40128         4.99124 
       0.981748         7.31888         4.91951 
       0.987916          7.2534         4.84875 
        0.99406         7.13664         4.77965 
        1.00019         7.03161         4.71205 
        1.00632         7.00924         4.64581 
        1.01246         6.92553         4.58076 
        1.01859         6.82469         4.51707 
        1.02471         6.77022         4.45467 
        1.03085         6.69493         4.39324 
        1.03698          6.6008          4.3331 
        1.04314         6.55329         4.27384 
        1.04929         6.46925         4.21583 
        1.05541         6.39391         4.15913 
        1.06154         6.34287         4.10335 
        1.06769         6.30922         4.04851 
        1.07382         6.20595         3.99485 
        1.07993          6.1423          3.9423 
        1.08607         6.10199         3.89048 
        1.09222         6.03654         3.83954 
        1.09836         5.97085         3.78958 
        1.10449         5.91325         3.74058 
        1.11063         5.85025         3.69238 
        1.11677         5.81044         3.64506 
         1.1229         5.75879         3.59866 
        1.12903         5.68766         3.55303 
        1.13518         5.62518         3.50815 
        1.14131         5.56537         3.46408 
        1.14745         5.50289         3.42079 
        1.15359         5.47186         3.37824 
        1.15973         5.41272         3.33639 
        1.16584         5.34706         3.29545 
        1.17197         5.30423         3.25514 
        1.17811         5.27513         3.21538 
        1.18424         5.22433          3.1764 
        1.19038         5.19269         3.13796 
        1.19652         5.13285         3.10017 
        1.20267         5.07722           3.063 
        1.20881         5.04951         3.02645 
        1.21495         5.00313         2.99056 
        1.22108          4.9475         2.95526 
         1.2272          4.9171         2.92061 
        1.23334         4.85406         2.88644 
        1.23949         4.81123         2.85274 
        1.24562         4.78551         2.81967 
        1.25174         4.73417         2.78718 
        1.25789         4.70086          2.7551 
        1.26402         4.66477         2.72359 
        1.27014         4.62121         2.69264 
        1.27628         4.57998         2.66209 
        1.28244         4.52654         2.63195 
        1.28858         4.51528         2.60232 
        1.29471          4.4602         2.57322 
        1.30084         4.41824         2.54458 
        1.30697         4.41609         2.51635 
        1.31312         4.33358          2.4885 
        1.31925         4.31141         2.46116 
        1.32537         4.27546         2.43426 
        1.33151         4.25904         2.40767 
        1.33765         4.20379         2.38149 
        1.34378         4.17618         2.35575 
        1.34992         4.15524         2.33038 
        1.35606         4.10109         2.30533 
         1.3622          4.0844         2.28069 
        1.36833          4.0489         2.25648 
        1.37445         4.01815         2.23262 
        1.38059         4.00347         2.20904 
        1.38675         3.97017         2.18575 
        1.39288         3.93716         2.16288 
        1.39901         3.89235         2.14036 
        1.40515         3.86864          2.1181 
         1.4113         3.84218         2.09617 
        1.41742          3.8154         2.07464 
        1.42355         3.78224         2.05337 
         1.4297         3.75344         2.03233 
        1.43585         3.73667          2.0116 
        1.44198         3.71584         1.99123 
        1.44809         3.67596         1.97119 
        1.45423         3.64692         1.95135 
        1.46036         3.61632         1.93181 
        1.46649         3.59309         1.91254 
        1.47263         3.56415         1.89352 
        1.47877         3.53629         1.87476 
        1.48491         3.51404         1.85623 
        1.49104          3.4936         1.83799 
        1.49718         3.46851         1.81998 
        1.50333         3.44814         1.80219 
        1.50947         3.41849         1.78466 
         1.5156         3.39575          1.7674 
        1.52172         3.37482         1.75037 
        1.52787         3.35413         1.73353 
          1.534         3.32414         1.71693 
        1.54013         3.30845         1.70056 
        1.54627         3.27696         1.68438 
        1.55241         3.25424         1.66841 
        1.55855         3.24075         1.65266 
        1.56467         3.21839         1.63717 
         1.5708         3.19437         1.62183 
        1.57695         3.16857         1.60666 
        1.58308         3.14425         1.59173 
        1.58922         3.13538         1.57697 
        1.59535          3.1138          1.5624 
         1.6015         3.08904           1.548 
        1.60764         3.06985         1.53379 
        1.61376         3.05312          1.5198 
        1.61989         3.03144         1.50597 
        1.62604         3.00961         1.49228 
        1.63218         3.00172         1.47877 
        1.63831         2.97504         1.46546 
        1.64444         2.95666         1.45231 
        1.65059         2.93264         1.43929 
        1.65673         2.92359         1.42644 
        1.66285         2.89684         1.41379 
        1.66898         2.88237         1.40128 
        1.67512          2.8596         1.38891 
        1.68127         2.84425         1.37667 
         1.6874         2.83562          1.3646 
        1.69353         2.80295         1.35269 
        1.69967         2.79245         1.34089 
        1.70581         2.78086         1.32924 
        1.71193         2.76021         1.31777 
        1.71806         2.74731         1.30641 
        1.72421         2.72952         1.29516 
        1.73035         2.71509         1.28406 
        1.73649          2.6955         1.27309 
        1.74262         2.67839         1.26226 
        1.74876         2.66985         1.25154 
        1.75489         2.64972         1.24098 
        1.76101         2.62888         1.23053 
        1.76715         2.62026          1.2202 
        1.77329         2.60806         1.20997 
        1.77943         2.58116         1.19985 
        1.78557         2.57305         1.18987 
        1.79171         2.56144         1.17999 
        1.79785         2.54229         1.17023 
        1.80399         2.52836         1.16058 
        1.81012         2.51693         1.15105 
        1.81625          2.5016         1.14163 
        1.82239         2.48543         1.13231 
        1.82853          2.4676         1.12309 
        1.83466         2.46201         1.11398 
        1.84078         2.44811         1.10499 
        1.84692         2.43672         1.09608 
        1.85306         2.41574         1.08725 
         1.8592         2.40155         1.07854 
        1.86533          2.3897         1.06993 
        1.87147          2.3816          1.0614 
        1.87761         2.36525         1.05296 
        1.88375          2.3515         1.04463 
        1.88988         2.33997         1.03639 
        1.89601          2.3262         1.02824 
        1.90215          2.3109         1.02017 
        1.90829         2.29657         1.01219 
        1.91442         2.29087         1.00429 
        1.92056          2.2742        0.996487 
         1.9267         2.26447        0.988758 
        1.93284         2.25621        0.981106 
        1.93897         2.24347         0.97355 
        1.94509         2.22776        0.966089 
        1.95123          2.2153        0.958688 
        1.95737         2.20183        0.951359 
        1.96349         2.19541        0.944125 
        1.96964          2.1875        0.936946 
        1.97578         2.16887        0.929838 
        1.98192         2.16123        0.922818 
        1.98805         2.15091         0.91587 
        1.99419          2.1408        0.908993 
        2.00033         2.13311        0.902183 
        2.00647          2.1176        0.895446 
         2.0126         2.11081        0.888788 
        2.01874         2.09291        0.882188 
        2.02488         2.08777        0.875649 
        2.03101         2.07064        0.869188 
        2.03714         2.06338        0.862799 
        2.04328         2.05441        0.856467 
        2.04941         2.03859        0.850204 
        2.05554         2.03419        0.844007 
        2.06167         2.02458        0.837865 
        2.06781         2.01592        0.831782 
        2.07396         2.00636        0.825751 
        2.08009         1.99573        0.819791 
        2.08622         1.98368        0.813896 
        2.09237         1.97524        0.808047 
        2.09851          1.9658        0.802255 
        2.10464         1.96121        0.796529 
        2.11077          1.9476        0.790866 
        2.11691         1.93808        0.785246 
        2.12305          1.9313         0.77968 
        2.12918          1.9235        0.774181 
        2.13531         1.91299        0.768735 
        2.14145         1.90323        0.763328 
         2.1476         1.89154        0.757968 
        2.15372         1.88355        0.752685 
        2.15985         1.87553        0.747448 
        2.16599         1.86822        0.742246 
        2.17213         1.85461        0.737099 
        2.17827         1.85022        0.732001 
         2.1844         1.84218        0.726957 
        2.19054         1.83478        0.721958 
        2.19666         1.82418        0.717014 
         2.2028          1.8156        0.712111 
        2.20893         1.80864        0.707252 
        2.21508         1.80036        0.702433 
        2.22122         1.78925        0.697657 
        2.22736         1.78231        0.692936 
        2.23349         1.77715        0.688259 
        2.23962         1.76568        0.683623 
        2.24577           1.761        0.679026 
         2.2519         1.75142        0.674477 
        2.25802         1.74619        0.669977 
        2.26417         1.73852        0.665506 
        2.27031         1.72977        0.661071 
        2.27644          1.7225         0.65669 
        2.28257         1.71302        0.652349 
        2.28872         1.70833        0.648038 
        2.29486         1.69811        0.643768 
        2.30099         1.69068        0.639545 
        2.30712         1.68214        0.635357 
        2.31326         1.67827          0.6312 
         2.3194         1.67087        0.627083 
        2.32553         1.66428         0.62301 
        2.33166          1.6557        0.618974 
         2.3378         1.64887        0.614968 
        2.34394         1.64078        0.610997 
        2.35007         1.63408        0.607066 
        2.35619         1.63011        0.603175 
        2.36233         1.62041        0.599309 
        2.36848         1.61409        0.595469 
        2.37462         1.60899         0.59167 
        2.38075         1.60048        0.587908 
        2.38689         1.59594        0.584176 
        2.39303         1.58718        0.580477 
        2.39916          1.5817        0.576813 
        2.40529         1.57501        0.573182 
        2.41143         1.56713        0.569579 
        2.41757         1.56155        0.566005 
         2.4237         1.55795        0.562469 
        2.42983          1.5466        0.558963 
        2.43598         1.54542        0.555478 
        2.44211          1.5365        0.552028 
        2.44823          1.5313        0.548615 
        2.45437         1.52455        0.545222 
        2.46052         1.52019        0.541855 
        2.46665         1.51334        0.538522 
        2.47279         1.50595        0.535218 
        2.47892         1.50086        0.531939 
        2.48507          1.4959        0.528685 
         2.4912         1.48643        0.525465 
