# k  (h/Mpc)    Pcb(k)  (Mpc/h)^3    Pcb_linear(k)  (Mpc/h)^3
     0.00783031         1621.23         1634.26 
       0.013688         1905.31         1927.68 
       0.019231         1853.92         1863.08 
      0.0249154          1636.2          1633.4 
      0.0312784          1328.2         1327.31 
      0.0375637         1064.34          1065.4 
      0.0433917         892.665          889.24 
      0.0492413         774.915         774.473 
      0.0555754         704.459         700.799 
      0.0619321         649.269         654.065 
       0.067871         614.013         614.448 
      0.0738098         566.677         566.611 
      0.0800417         506.421         504.849 
      0.0862327          438.13         437.646 
      0.0921407         377.926         376.896 
      0.0982031         328.386         325.365 
       0.104506         287.563         286.948 
       0.110769         264.269         263.202 
       0.116806         252.778         250.181 
       0.122832         242.706         241.925 
       0.129052         234.805         233.402 
       0.135211          223.71         221.529 
       0.141259          206.78         205.609 
       0.147318         187.205         186.755 
       0.153489         168.676         167.193 
       0.159709         152.292          149.76 
       0.165845         137.538         136.421 
       0.171974         130.402         127.257 
       0.178125         124.251         121.502 
       0.184229         119.622         117.841 
        0.19034         117.153         114.695 
       0.196428         113.052         110.833 
       0.202534         106.447         105.599 
       0.208729         101.116         98.9854 
       0.214876          94.588         91.7752 
       0.220989         86.7398         84.8138 
       0.227147         81.8678         78.7307 
        0.23329         77.2563          73.963 
       0.239377          74.046          70.515 
       0.245482         71.1609         68.0371 
       0.251667         68.5632         66.0583 
       0.257832         67.3837         64.1362 
       0.263955         64.3615         61.9393 
       0.270079         61.6788         59.3198 
        0.27624         58.5196         56.3408 
       0.282372         55.6623          53.261 
        0.28843         53.5602         50.3548 
       0.294538         50.8059         47.7698 
       0.300721         48.2788          45.598 
        0.30691         47.0131         43.8583 
       0.313033         45.3103         42.4511 
       0.319153          44.475           41.21 
       0.325316          42.623         39.9764 
        0.33145         41.1654         38.6724 
       0.337538          39.821          37.266 
       0.343633         38.5386          35.783 
       0.349808         36.9339         34.2686 
       0.355968         35.4952         32.8307 
       0.362074         34.5466          31.535 
       0.368217         33.3127         30.3893 
       0.374374          32.482         29.3927 
       0.380519         31.2223         28.5098 
       0.386598         30.2925         27.7024 
       0.392688         29.3752         26.9128 
        0.39888         28.7499         26.0984 
       0.405048         27.9818         25.2696 
       0.411186         27.0982         24.4324 
       0.417313          26.238         23.6077 
       0.423458         25.3344         22.8165 
       0.429607         24.8188         22.0756 
       0.435692         24.2806         21.4029 
       0.441815         23.3653         20.7844 
       0.447964         22.6353         20.2083 
       0.454126         22.2294         19.6619 
       0.460267         21.8971         19.1355 
       0.466387         21.2419         18.6177 
        0.47254         20.8395         18.0988 
       0.478662         20.1788         17.5889 
       0.484765         19.6863         17.0925 
       0.490885         19.0726         16.6118 
       0.497035         18.6374         16.1513 
       0.503198         18.2683         15.7165 
       0.509342         17.7145          15.309 
       0.515458         17.4349         14.9237 
       0.521598           17.03         14.5529 
       0.527764         16.7397         14.1928 
       0.533884          16.259         13.8449 
           0.54          15.962         13.5044 
       0.546137         15.4739         13.1692 
       0.552299         15.1734          12.841 
       0.558452         14.8137         12.5242 
       0.564573         14.5967         12.2215 
       0.570708         14.2533         11.9307 
       0.576825         13.9942         11.6522 
       0.582926         13.6945         11.3851 
       0.589034         13.4183         11.1272 
       0.595184         13.2408         10.8762 
       0.601379         12.8774         10.6309 
       0.607522         12.6218         10.3939 
       0.613639          12.371         10.1635 
       0.619772         12.1603         9.93834 
       0.625918         11.9053         9.71917 
       0.632068         11.7478         9.50685 
       0.638161         11.5035         9.30369 
         0.6443         11.2826         9.10596 
       0.650464         11.0098         8.91391 
       0.656582         10.9123         8.72905 
       0.662703         10.7381         8.54931 
       0.668861         10.4516         8.37335 
       0.675024         10.2709         8.20192 
       0.681124         10.2445         8.03685 
       0.687237         10.0033         7.87592 
       0.693381         9.74962         7.71868 
       0.699536         9.68349         7.56556 
       0.705665         9.49016         7.41736 
       0.711789         9.30189         7.27336 
       0.717957         9.10768         7.13226 
        0.72409         9.01175         6.99573 
       0.730186         8.94577         6.86363 
       0.736317         8.72904         6.73424 
       0.742472         8.62274         6.60771 
       0.748622         8.48432         6.48458 
        0.75476         8.26253         6.36486 
       0.760888         8.20644         6.24838 
       0.767043         8.02948         6.13438 
       0.773185         7.92787          6.0235 
       0.779291         7.87107         5.91602 
       0.785407         7.71458         5.81103 
       0.791564          7.6141         5.70796 
       0.797719         7.46425         5.60745 
       0.803834         7.40446         5.51002 
       0.809972         7.25772         5.41455 
       0.816124         7.17041         5.32115 
       0.822261         7.07275          5.2302 
       0.828378         6.97532         5.14166 
       0.834502         6.88366          5.0551 
       0.840667         6.80525         4.96999 
       0.846816         6.65667         4.88708 
       0.852925         6.60368          4.8066 
       0.859047         6.50574         4.72778 
       0.865192         6.41344         4.65048 
       0.871341         6.32675         4.57487 
       0.877463         6.23494          4.5013 
       0.883569         6.17999         4.42955 
       0.889708         6.08066         4.35901 
       0.895864         6.00202         4.28983 
       0.902008         5.91633         4.22231 
       0.908149          5.8335         4.15629 
       0.914301         5.77414         4.09159 
       0.920448         5.70594         4.02833 
       0.926574         5.66451         3.96663 
       0.932687         5.56491         3.90637 
       0.938823         5.47316         3.84714 
       0.944975         5.44315         3.78902 
       0.951105         5.34364         3.73231 
       0.957225         5.31267         3.67687 
       0.963368         5.23721         3.62237 
       0.969511         5.17441         3.56897 
       0.975621         5.10945         3.51695 
       0.981748          5.0293         3.46584 
       0.987916         4.98307         3.41542 
        0.99406         4.94097         3.36621 
        1.00019         4.88705         3.31806 
        1.00632          4.8398         3.27091 
        1.01246         4.76921         3.22461 
        1.01859         4.71638         3.17928 
        1.02471         4.64457         3.13489 
        1.03085         4.61567         3.09119 
        1.03698         4.56421         3.04842 
        1.04314         4.51255         3.00629 
        1.04929         4.45174         2.96505 
        1.05541         4.40524         2.92475 
        1.06154         4.36645         2.88511 
        1.06769          4.3412         2.84614 
        1.07382         4.26414         2.80802 
        1.07993         4.21676          2.7707 
        1.08607         4.19117          2.7339 
        1.09222         4.13385         2.69773 
        1.09836         4.11926         2.66226 
        1.10449         4.03521         2.62748 
        1.11063         4.01494         2.59328 
        1.11677         3.97864          2.5597 
         1.1229         3.93485         2.52678 
        1.12903         3.90419         2.49441 
        1.13518         3.84758         2.46258 
        1.14131         3.81013         2.43133 
        1.14745         3.76416         2.40063 
        1.15359         3.72787         2.37047 
        1.15973         3.68946         2.34081 
        1.16584         3.66175          2.3118 
        1.17197         3.61955         2.28324 
        1.17811         3.58461         2.25507 
        1.18424         3.55004         2.22747 
        1.19038         3.52272         2.20024 
        1.19652         3.49187         2.17349 
        1.20267         3.46199         2.14718 
        1.20881         3.42333         2.12132 
        1.21495         3.39277         2.09592 
        1.22108         3.35999         2.07094 
         1.2272         3.31969         2.04643 
        1.23334         3.30996         2.02227 
        1.23949         3.26483         1.99844 
        1.24562          3.2429         1.97506 
        1.25174         3.22189         1.95208 
        1.25789         3.17089         1.92941 
        1.26402         3.15113         1.90714 
        1.27014         3.12385         1.88527 
        1.27628         3.09198         1.86369 
        1.28244         3.07231          1.8424 
        1.28858           3.049         1.82147 
        1.29471         3.00815         1.80092 
        1.30084         2.98233          1.7807 
        1.30697         2.96897         1.76076 
        1.31312          2.9382          1.7411 
        1.31925         2.91142          1.7218 
        1.32537         2.89252         1.70281 
        1.33151         2.86093         1.68405 
        1.33765          2.8392         1.66557 
        1.34378         2.82585         1.64741 
        1.34992         2.79779         1.62951 
        1.35606         2.77598         1.61184 
         1.3622         2.75176         1.59447 
        1.36833         2.72312         1.57739 
        1.37445         2.69682         1.56057 
        1.38059          2.6757         1.54394 
        1.38675         2.65527         1.52752 
        1.39288          2.6442          1.5114 
        1.39901          2.6109         1.49553 
        1.40515         2.59718         1.47984 
         1.4113         2.57673         1.46439 
        1.41742         2.55287         1.44922 
        1.42355         2.53277         1.43423 
         1.4297         2.51525         1.41942 
        1.43585         2.49917         1.40482 
        1.44198         2.47489         1.39048 
        1.44809         2.46029         1.37636 
        1.45423         2.43979         1.36239 
        1.46036         2.42335         1.34865 
        1.46649          2.3978         1.33508 
        1.47263         2.38989          1.3217 
        1.47877         2.37209          1.3085 
        1.48491          2.3481         1.29546 
        1.49104         2.33189         1.28263 
        1.49718         2.31848         1.26996 
        1.50333         2.29555         1.25744 
        1.50947         2.27891         1.24512 
         1.5156         2.26501         1.23298 
        1.52172         2.24815           1.221 
        1.52787         2.23322         1.20916 
          1.534         2.21918         1.19749 
        1.54013         2.20264         1.18599 
        1.54627         2.18273         1.17462 
        1.55241         2.16536         1.16339 
        1.55855         2.15473         1.15233 
        1.56467         2.14101         1.14144 
         1.5708         2.12357         1.13066 
        1.57695         2.10424         1.12001 
        1.58308         2.08799         1.10952 
        1.58922         2.08183         1.09915 
        1.59535         2.06295         1.08892 
         1.6015         2.04632         1.07881 
        1.60764         2.03911         1.06883 
        1.61376         2.01765         1.05901 
        1.61989         2.00367          1.0493 
        1.62604          1.9891         1.03969 
        1.63218         1.98222          1.0302 
        1.63831         1.97084         1.02086 
        1.64444         1.95314         1.01163 
        1.65059         1.94591         1.00249 
        1.65673         1.92495        0.993477 
        1.66285         1.91438        0.984598 
        1.66898         1.90215        0.975825 
        1.67512           1.887        0.967142 
        1.68127         1.87592        0.958557 
         1.6874         1.86801        0.950095 
        1.69353         1.85084        0.941741 
        1.69967         1.83805        0.933468 
        1.70581          1.8327        0.925297 
        1.71193         1.80957        0.917256 
        1.71806          1.8055        0.909292 
        1.72421         1.79615        0.901408 
        1.73035         1.78031        0.893626 
        1.73649         1.77213        0.885938 
        1.74262         1.76046        0.878347 
        1.74876         1.74998        0.870839 
        1.75489         1.73672        0.863435 
        1.76101         1.72387        0.856119 
        1.76715         1.71913        0.848878 
        1.77329         1.70513        0.841712 
        1.77943         1.69526        0.834625 
        1.78557         1.68575        0.827631 
        1.79171         1.67585        0.820716 
        1.79785         1.66693        0.813879 
        1.80399         1.65469        0.807121 
        1.81012         1.64603        0.800449 
        1.81625         1.63086        0.793855 
        1.82239         1.62619        0.787326 
        1.82853         1.61606        0.780873 
        1.83466         1.60177        0.774499 
        1.84078         1.59351        0.768203 
        1.84692         1.58436        0.761967 
        1.85306          1.5773        0.755792 
         1.8592         1.56534        0.749696 
        1.86533         1.55935         0.74367 
        1.87147          1.5507        0.737704 
        1.87761          1.5424          0.7318 
        1.88375         1.53073        0.725968 
        1.88988         1.52204        0.720206 
        1.89601          1.5113        0.714503 
        1.90215         1.50372        0.708858 
        1.90829         1.49842        0.703276 
        1.91442         1.48661        0.697754 
        1.92056          1.4818        0.692296 
         1.9267         1.47273        0.686891 
        1.93284         1.46276        0.681541 
        1.93897         1.45341        0.676257 
        1.94509         1.44485        0.671042 
        1.95123         1.43866        0.665868 
        1.95737         1.43304        0.660744 
        1.96349         1.42233        0.655688 
        1.96964         1.41789        0.650671 
        1.97578         1.40678        0.645703 
        1.98192         1.39544        0.640798 
        1.98805          1.3911        0.635943 
        1.99419         1.38244        0.631137 
        2.00033         1.37425         0.62638 
        2.00647         1.37113        0.621672 
         2.0126         1.36397        0.617021 
        2.01874         1.35471         0.61241 
        2.02488         1.34803        0.607843 
        2.03101         1.33908         0.60333 
        2.03714         1.33425        0.598868 
        2.04328         1.32701        0.594446 
        2.04941         1.31955        0.590071 
        2.05554         1.31126        0.585745 
        2.06167         1.30473        0.581455 
        2.06781          1.2981        0.577208 
        2.07396         1.29185        0.572998 
        2.08009         1.28704        0.568836 
        2.08622         1.27856        0.564721 
        2.09237         1.27416        0.560639 
        2.09851         1.26452        0.556596 
        2.10464         1.25892          0.5526 
        2.11077         1.25407        0.548647 
        2.11691         1.24538        0.544725 
        2.12305         1.23907        0.540841 
        2.12918         1.23193        0.537004 
        2.13531         1.22811        0.533204 
        2.14145         1.22145        0.529432 
         2.1476         1.21178        0.525692 
        2.15372         1.20847        0.522007 
        2.15985         1.20128        0.518354 
        2.16599         1.19729        0.514725 
        2.17213         1.19158        0.511135 
        2.17827         1.18429        0.507579 
         2.1844         1.17843        0.504061 
        2.19054         1.17194        0.500575 
        2.19666          1.1676        0.497127 
         2.2028         1.16043        0.493708 
        2.20893         1.15671         0.49032 
        2.21508         1.14999         0.48696 
        2.22122         1.14422         0.48363 
        2.22736         1.13766        0.480339 
        2.23349         1.13207        0.477078 
        2.23962         1.13049        0.473847 
        2.24577         1.12297        0.470642 
         2.2519         1.11734        0.467471 
        2.25802         1.11323        0.464335 
        2.26417         1.10695        0.461219 
        2.27031         1.10207        0.458128 
        2.27644         1.09611        0.455075 
        2.28257         1.09046         0.45205 
        2.28872         1.08743        0.449047 
        2.29486         1.08099        0.446071 
        2.30099         1.07537        0.443129 
        2.30712         1.07291        0.440211 
        2.31326          1.0666        0.437315 
         2.3194         1.06022        0.434447 
        2.32553         1.05678        0.431609 
        2.33166         1.05269        0.428798 
         2.3378         1.04827        0.426008 
        2.34394         1.04149        0.423242 
        2.35007         1.03536        0.420504 
        2.35619         1.03321        0.417794 
        2.36233         1.02862        0.415102 
        2.36848         1.02404        0.412427 
        2.37462         1.01874        0.409782 
        2.38075         1.01482        0.407163 
        2.38689         1.01176        0.404564 
        2.39303         1.00573        0.401988 
        2.39916         1.00187        0.399438 
        2.40529        0.996694        0.396909 
        2.41143        0.990713        0.394401 
        2.41757        0.988201        0.391914 
         2.4237        0.982818        0.389452 
        2.42983        0.978302        0.387012 
        2.43598        0.975465        0.384586 
        2.44211        0.970341        0.382185 
        2.44823        0.966619         0.37981 
        2.45437        0.962636        0.377449 
        2.46052        0.958958        0.375105 
        2.46665        0.954951        0.372786 
        2.47279         0.95059        0.370487 
        2.47892        0.946421        0.368206 
        2.48507        0.943178        0.365942 
         2.4912        0.938442        0.363701 
