# k  (h/Mpc)    P(k)  (Mpc/h)^3    P_linear(k)  (Mpc/h)^3
     0.00783031         6765.12         6870.83 
       0.013688         8186.48         8164.19 
       0.019231         7951.39         7942.43 
      0.0249154         6936.23         7023.98 
      0.0312784            5764         5785.05 
      0.0375637         4743.81         4722.72 
      0.0433917         3985.43         4007.24 
      0.0492413         3540.11         3537.29 
      0.0555754         3181.37         3224.66 
      0.0619321         3029.63          3007.3 
       0.067871         2777.27         2808.41 
      0.0738098         2542.11         2570.61 
      0.0800417         2241.83         2278.18 
      0.0862327         1965.72         1976.04 
      0.0921407          1728.2          1714.8 
      0.0982031         1507.49         1501.34 
       0.104506         1383.07         1346.83 
       0.110769          1281.8         1251.78 
       0.116806         1213.27          1195.5 
       0.122832         1171.98         1151.51 
       0.129052         1101.36         1099.26 
       0.135211         1035.31         1030.37 
       0.141259         967.445         947.152 
       0.147318         887.234         857.414 
       0.153489         798.131         771.356 
       0.159709         736.125         699.566 
       0.165845         693.948         647.348 
       0.171974         651.959         612.145 
       0.178125         626.613         588.582 
       0.184229         606.033         570.095 
        0.19034         571.072         550.368 
       0.196428         556.757         525.816 
       0.202534          533.97         495.746 
       0.208729         499.175         461.895 
       0.214876          465.74         428.546 
       0.220989         443.692           398.9 
       0.227147         417.319         374.552 
        0.23329         398.931         356.037 
       0.239377         388.597         342.252 
       0.245482         365.047          331.08 
       0.251667         360.779           320.4 
       0.257832          348.44         308.822 
       0.263955         334.966         295.787 
       0.270079          320.54         281.478 
        0.27624         312.797         266.699 
       0.282372         299.281         252.696 
        0.28843         287.241         240.349 
       0.294538         273.871         229.805 
       0.300721         270.036         220.948 
        0.30691         257.751          213.45 
       0.313033         251.532         206.727 
       0.319153           241.4         200.138 
       0.325316          235.83          193.24 
        0.33145         227.236          186.05 
       0.337538         223.038         178.722 
       0.343633         214.884         171.501 
       0.349808         207.639         164.585 
       0.355968         203.626         158.314 
       0.362074          197.94          152.77 
       0.368217         192.278           147.8 
       0.374374         185.871         143.267 
       0.380519         182.576         138.983 
       0.386598         177.665         134.837 
       0.392688         174.766         130.677 
        0.39888         170.079         126.429 
       0.405048         165.712         122.246 
       0.411186         161.898         118.204 
       0.417313         158.115         114.374 
       0.423458         154.527         110.796 
       0.429607         150.832         107.471 
       0.435692         145.992          104.41 
       0.441815         144.741          101.51 
       0.447964         142.046         98.7151 
       0.454126         135.827         95.9831 
       0.460267         134.259         93.3156 
       0.466387         132.174         90.7057 
        0.47254          129.27         88.1408 
       0.478662         128.017         85.6753 
       0.484765         124.061         83.3267 
       0.490885         121.964         81.0863 
       0.497035         120.323         78.9454 
       0.503198         116.953          76.906 
       0.509342         114.848         74.9616 
       0.515458          113.12         73.0944 
       0.521598         111.314         71.2712 
       0.527764         109.654         69.4872 
       0.533884         107.914         67.7654 
           0.54         105.792         66.0957 
       0.546137         104.772         64.4732 
       0.552299         103.001          62.901 
       0.558452         100.792         61.3911 
       0.564573         99.0114         59.9491 
       0.570708         97.4745         58.5588 
       0.576825         96.1753         57.2204 
       0.582926         94.1962         55.9267 
       0.589034         92.6325         54.6677 
       0.595184         91.4184         53.4361 
       0.601379         90.1989         52.2319 
       0.607522         88.1141         51.0733 
       0.613639          87.803         49.9542 
       0.619772          85.856         48.8665 
       0.625918         84.8439         47.8101 
       0.632068         83.8671         46.7863 
       0.638161         82.8349         45.8038 
         0.6443         81.7048         44.8444 
       0.650464         80.6833         43.9101 
       0.656582         79.4948         43.0094 
       0.662703         78.0745         42.1331 
       0.668861          77.092         41.2751 
       0.675024         76.2134         40.4395 
       0.681124         75.2698         39.6351 
       0.687237         73.8623         38.8511 
       0.693381         73.0624         38.0852 
       0.699536         72.1485         37.3395 
       0.705665         72.3337         36.6179 
       0.711789         70.3867         35.9167 
       0.717957         69.8805         35.2295 
        0.72409         68.8688         34.5644 
       0.730186         67.7398         33.9205 
       0.736317         67.5419         33.2893 
       0.742472         66.7106         32.6718 
       0.748622         65.9544         32.0704 
        0.75476         65.2361         31.4856 
       0.760888         64.2757         30.9163 
       0.767043          63.664          30.359 
       0.773185         62.8809         29.8168 
       0.779291         62.3908         29.2912 
       0.785407         61.8435         28.7777 
       0.791564          61.098         28.2736 
       0.797719         60.0661         27.7819 
       0.803834         59.8335         27.3052 
       0.809972         58.7831         26.8381 
       0.816124         58.3386          26.381 
       0.822261         57.8747         25.9358 
       0.828378         57.4475         25.5023 
       0.834502         56.7916         25.0785 
       0.840667         56.2166         24.6616 
       0.846816         55.4389         24.2554 
       0.852925         55.0159          23.861 
       0.859047         54.2792         23.4746 
       0.865192         53.9387         23.0956 
       0.871341         53.6609         22.7247 
       0.877463         52.6708         22.3638 
       0.883569         52.3313         22.0117 
       0.889708          52.011         21.6654 
       0.895864         51.5364         21.3258 
       0.902008         51.0344         20.9942 
       0.908149         50.6467         20.6699 
       0.914301          50.218         20.3521 
       0.920448         49.7538         20.0412 
       0.926574         49.2307          19.738 
       0.932687         48.9665         19.4418 
       0.938823         48.1948         19.1506 
       0.944975         47.9915         18.8648 
       0.951105         47.5241         18.5859 
       0.957225         46.9368         18.3132 
       0.963368          46.916         18.0451 
       0.969511         46.4981         17.7823 
       0.975621         46.1418         17.5263 
       0.981748         45.5968         17.2747 
       0.987916         45.2681         17.0265 
        0.99406         45.0009         16.7841 
        1.00019         44.4839          16.547 
        1.00632         44.2501         16.3147 
        1.01246         43.9285         16.0866 
        1.01859         43.3096         15.8632 
        1.02471         43.3257         15.6444 
        1.03085         42.8933         15.4289 
        1.03698         42.4581         15.2181 
        1.04314          42.114         15.0103 
        1.04929         41.8345         14.8069 
        1.05541         41.3917         14.6081 
        1.06154         41.3629         14.4124 
        1.06769          40.945         14.2201 
        1.07382         40.7089          14.032 
        1.07993         40.4862         13.8477 
        1.08607         40.0633          13.666 
        1.09222         39.8774         13.4874 
        1.09836          39.559         13.3122 
        1.10449         39.2538         13.1403 
        1.11063         38.8218         12.9714 
        1.11677         38.6184         12.8054 
         1.1229         38.4187         12.6427 
        1.12903          37.895         12.4827 
        1.13518         37.9957         12.3253 
        1.14131         37.7479         12.1708 
        1.14745         37.2285          12.019 
        1.15359         37.2125         11.8698 
        1.15973         36.7611          11.723 
        1.16584         36.5445         11.5795 
        1.17197         36.3938         11.4381 
        1.17811         36.1382         11.2987 
        1.18424         35.7815          11.162 
        1.19038         35.6684         11.0272 
        1.19652         35.5373         10.8948 
        1.20267         35.2442         10.7645 
        1.20881         34.9697         10.6363 
        1.21495         34.7083         10.5105 
        1.22108         34.5241         10.3867 
         1.2272         34.1514         10.2653 
        1.23334         34.0539         10.1455 
        1.23949         33.9905         10.0274 
        1.24562         33.6325         9.91143 
        1.25174           33.53         9.79753 
        1.25789         33.2979         9.68508 
        1.26402         33.0376         9.57461 
        1.27014         32.7383         9.46614 
        1.27628         32.6211         9.35903 
        1.28244         32.4183         9.25339 
        1.28858         32.2864         9.14953 
        1.29471         32.1483          9.0475 
        1.30084         31.9546         8.94713 
        1.30697         31.7015         8.84814 
        1.31312          31.432         8.75051 
        1.31925         31.3385         8.65466 
        1.32537         31.1799         8.56035 
        1.33151         30.9282         8.46712 
        1.33765         30.8801         8.37534 
        1.34378         30.6638          8.2851 
        1.34992         30.3709         8.19614 
        1.35606         30.2257          8.1083 
         1.3622         30.0758         8.02191 
        1.36833         29.8695           7.937 
        1.37445         29.8558         7.85336 
        1.38059         29.6265         7.77068 
        1.38675         29.3383           7.689 
        1.39288         29.3258         7.60882 
        1.39901          29.057         7.52984 
        1.40515         28.9374          7.4518 
         1.4113         28.8185          7.3749 
        1.41742         28.5562         7.29939 
        1.42355         28.4809          7.2248 
         1.4297         28.3143         7.15103 
        1.43585         28.2483         7.07833 
        1.44198         27.9726         7.00692 
        1.44809         27.8712         6.93664 
        1.45423         27.7455         6.86706 
        1.46036         27.6632         6.79857 
        1.46649         27.4456           6.731 
        1.47263         27.2972          6.6643 
        1.47877         27.2203         6.59853 
        1.48491         27.1195         6.53355 
        1.49104         26.9293         6.46959 
        1.49718         26.6803         6.40644 
        1.50333         26.6565         6.34404 
        1.50947         26.5407          6.2826 
         1.5156         26.3722         6.22206 
        1.52172         26.2024         6.16233 
        1.52787         26.1815         6.10326 
          1.534         25.9736         6.04504 
        1.54013         25.7915         5.98765 
        1.54627         25.7342          5.9309 
        1.55241         25.5415         5.87488 
        1.55855         25.4442         5.81966 
        1.56467         25.2625         5.76531 
         1.5708         25.2653         5.71151 
        1.57695         25.0034         5.65831 
        1.58308         24.9986         5.60592 
        1.58922         24.8716         5.55416 
        1.59535         24.7088         5.50307 
         1.6015         24.5715         5.45256 
        1.60764         24.5018          5.4027 
        1.61376         24.3057         5.35361 
        1.61989         24.1698          5.3051 
        1.62604         24.1585         5.25708 
        1.63218         24.0118         5.20968 
        1.63831         23.9053         5.16298 
        1.64444         23.7904         5.11684 
        1.65059         23.6364         5.07116 
        1.65673         23.5079         5.02608 
        1.66285         23.4534         4.98168 
        1.66898         23.3363         4.93781 
        1.67512         23.2614         4.89438 
        1.68127         23.0899         4.85144 
         1.6874         22.9994         4.80911 
        1.69353         22.9154         4.76731 
        1.69967         22.7688         4.72591 
        1.70581         22.6789         4.68503 
        1.71193         22.6093         4.64478 
        1.71806         22.4595         4.60492 
        1.72421         22.3474         4.56546 
        1.73035         22.2352          4.5265 
        1.73649          22.201           4.488 
        1.74262         22.0676         4.44999 
        1.74876         22.0361         4.41239 
        1.75489         21.8855         4.37531 
        1.76101         21.7751         4.33866 
        1.76715         21.7006         4.30239 
        1.77329         21.6339         4.26649 
        1.77943         21.4945         4.23098 
        1.78557         21.4045         4.19593 
        1.79171         21.3273         4.16128 
        1.79785         21.1953         4.12701 
        1.80399         21.1154         4.09313 
        1.81012         21.0698         4.05968 
        1.81625         20.9651         4.02662 
        1.82239         20.9212         3.99389 
        1.82853         20.7473         3.96153 
        1.83466          20.656         3.92956 
        1.84078         20.5291         3.89799 
        1.84692         20.4985         3.86671 
        1.85306         20.3961         3.83573 
         1.8592         20.2913         3.80515 
        1.86533         20.2063         3.77491 
        1.87147         20.1243         3.74497 
        1.87761          20.095         3.71535 
        1.88375         20.0204         3.68608 
        1.88988         19.9094         3.65716 
        1.89601          19.772         3.62853 
        1.90215         19.7395         3.60019 
        1.90829         19.6934         3.57216 
        1.91442         19.5637         3.54444 
        1.92056         19.4928         3.51703 
         1.9267         19.3879         3.48989 
        1.93284         19.2942         3.46301 
        1.93897         19.2551         3.43647 
        1.94509         19.1661         3.41027 
        1.95123         19.0751         3.38428 
        1.95737         19.0044         3.35854 
        1.96349          18.919         3.33313 
        1.96964         18.8357         3.30792 
        1.97578         18.7801         3.28295 
        1.98192         18.6705          3.2583 
        1.98805         18.6274         3.23389 
        1.99419         18.5423         3.20974 
        2.00033         18.4044         3.18582 
        2.00647         18.3617         3.16215 
         2.0126         18.2918         3.13876 
        2.01874         18.2144         3.11557 
        2.02488         18.1952          3.0926 
        2.03101         18.0814          3.0699 
        2.03714         18.0165         3.04746 
        2.04328         17.9249         3.02521 
        2.04941         17.8548          3.0032 
        2.05554         17.8133         2.98143 
        2.06167         17.7518         2.95985 
        2.06781         17.6739         2.93847 
        2.07396          17.619         2.91728 
        2.08009         17.5609         2.89634 
        2.08622         17.4189         2.87562 
        2.09237         17.3808         2.85507 
        2.09851         17.3271         2.83471 
        2.10464         17.2631         2.81459 
        2.11077         17.1487         2.79469 
        2.11691         17.1135         2.77494 
        2.12305         17.0547         2.75538 
        2.12918         16.9934         2.73605 
        2.13531          16.906         2.71691 
        2.14145         16.8613         2.69791 
         2.1476         16.7879         2.67907 
        2.15372         16.7196          2.6605 
        2.15985         16.6113         2.64209 
        2.16599         16.5955          2.6238 
        2.17213         16.5376         2.60571 
        2.17827         16.4438         2.58779 
         2.1844         16.3677         2.57006 
        2.19054         16.3219         2.55248 
        2.19666         16.2909          2.5351 
         2.2028         16.2312         2.51786 
        2.20893         16.1456         2.50078 
        2.21508         16.0555         2.48384 
        2.22122         15.9787         2.46704 
        2.22736          15.973         2.45044 
        2.23349         15.8811           2.434 
        2.23962         15.8152          2.4177 
        2.24577          15.744         2.40153 
         2.2519         15.7277         2.38554 
        2.25802         15.6648         2.36971 
        2.26417         15.6253         2.35399 
        2.27031         15.5269         2.33839 
        2.27644         15.4898         2.32299 
        2.28257         15.4125         2.30772 
        2.28872          15.343         2.29256 
        2.29486         15.2908         2.27754 
        2.30099         15.2298         2.26269 
        2.30712         15.2173         2.24796 
        2.31326         15.1332         2.23334 
         2.3194         15.0995         2.21885 
        2.32553         15.0199         2.20453 
        2.33166         14.9435         2.19033 
         2.3378         14.8931         2.17624 
        2.34394         14.8602         2.16227 
        2.35007         14.7826         2.14844 
        2.35619         14.6927         2.13475 
        2.36233         14.6885         2.12115 
        2.36848         14.6311         2.10763 
        2.37462         14.5875         2.09427 
        2.38075         14.5143         2.08103 
        2.38689         14.4974          2.0679 
        2.39303         14.4108         2.05488 
        2.39916          14.373         2.04199 
        2.40529         14.3064         2.02921 
        2.41143         14.2668         2.01653 
        2.41757         14.2166         2.00396 
         2.4237         14.1574         1.99151 
        2.42983         14.1087         1.97917 
        2.43598         14.0672         1.96691 
        2.44211         14.0105         1.95477 
        2.44823         13.9437         1.94276 
        2.45437          13.912         1.93081 
        2.46052         13.8585         1.91896 
        2.46665         13.8141         1.90723 
        2.47279         13.7343          1.8956 
        2.47892         13.7165         1.88406 
        2.48507         13.6671         1.87261 
         2.4912         13.6235         1.86127 
