# k  (h/Mpc)    Pcb(k)  (Mpc/h)^3    Pcb_linear(k)  (Mpc/h)^3
     0.00783031         3188.59         3224.95 
       0.013688         3843.76         3838.96 
       0.019231         3742.41         3737.45 
      0.0249154         3280.66         3306.62 
      0.0312784         2721.59         2724.12 
      0.0375637         2234.47         2224.26 
      0.0433917          1883.8         1887.49 
      0.0492413         1669.53         1666.26 
      0.0555754          1507.6         1519.09 
      0.0619321         1426.04         1416.76 
       0.067871         1315.04          1323.1 
      0.0738098         1203.27          1211.1 
      0.0800417         1062.84         1073.35 
      0.0862327         928.667         931.021 
      0.0921407         811.774         807.949 
      0.0982031          708.34         707.384 
       0.104506          644.99         634.591 
       0.110769         598.137          589.81 
       0.116806         566.627         563.297 
       0.122832         547.936         542.571 
       0.129052         517.692         517.955 
       0.135211         485.742           485.5 
       0.141259         451.188          446.29 
       0.147318          411.95         404.007 
       0.153489         370.191         363.459 
       0.159709         338.678         329.634 
       0.165845         317.492         305.029 
       0.171974         297.636         288.442 
       0.178125          286.65         277.339 
       0.184229         277.762         268.629 
        0.19034         263.472         259.335 
       0.196428         255.212         247.767 
       0.202534         243.914         233.597 
       0.208729          227.02         217.647 
       0.214876         210.619         201.933 
       0.220989         199.437         187.964 
       0.227147         186.416         176.491 
        0.23329         177.794         167.767 
       0.239377         172.329         161.272 
       0.245482         163.619         156.007 
       0.251667         160.733         150.974 
       0.257832          155.15          145.52 
       0.263955          148.84         139.377 
       0.270079         142.199         132.634 
        0.27624         137.329         125.671 
       0.282372         131.007         119.073 
        0.28843         124.689         113.255 
       0.294538          119.26         108.286 
       0.300721         116.522         104.113 
        0.30691         111.497          100.58 
       0.313033         108.316         97.4122 
       0.319153         103.515         94.3063 
       0.325316         101.735         91.0571 
        0.33145         97.6801         87.6693 
       0.337538         95.0873          84.216 
       0.343633         91.3401         80.8132 
       0.349808         88.3287         77.5548 
       0.355968          85.788         74.5995 
       0.362074         82.9454          71.987 
       0.368217         80.4401         69.6454 
       0.374374         78.0448         67.5091 
       0.380519          76.192         65.4906 
       0.386598         74.0979         63.5368 
       0.392688         72.5365         61.5766 
        0.39888         70.3509         59.5749 
       0.405048         68.5171         57.6037 
       0.411186         66.7767         55.6994 
       0.417313         64.6476         53.8945 
       0.423458         62.9557         52.2085 
       0.429607         61.2932          50.642 
       0.435692         59.2791         49.1996 
       0.441815         58.4367          47.833 
       0.447964         57.4011         46.5159 
       0.454126         54.9594         45.2286 
       0.460267         54.1283         43.9716 
       0.466387         52.6755         42.7418 
        0.47254         51.7538         41.5332 
       0.478662          50.895         40.3714 
       0.484765         49.3225         39.2648 
       0.490885         48.2454          38.209 
       0.497035          47.607         37.2003 
       0.503198         46.2812         36.2392 
       0.509342         45.1038          35.323 
       0.515458         44.2267         34.4431 
       0.521598         43.4985          33.584 
       0.527764          42.622         32.7434 
       0.533884         41.9084         31.9321 
           0.54         40.9462         31.1453 
       0.546137         40.3657         30.3808 
       0.552299         39.7086         29.6399 
       0.558452         38.5131         28.9284 
       0.564573          37.878         28.2489 
       0.570708         37.3048         27.5938 
       0.576825         36.4845         26.9631 
       0.582926         35.7273         26.3535 
       0.589034          34.859         25.7603 
       0.595184         34.4225         25.1799 
       0.601379          33.797         24.6125 
       0.607522         33.0982         24.0665 
       0.613639         32.8354         23.5392 
       0.619772          31.998         23.0266 
       0.625918          31.788         22.5289 
       0.632068         31.2934         22.0464 
       0.638161          30.669         21.5835 
         0.6443         30.0883         21.1314 
       0.650464         29.5709         20.6911 
       0.656582         29.3608         20.2667 
       0.662703           28.78         19.8537 
       0.668861         28.2719         19.4495 
       0.675024         27.8039         19.0557 
       0.681124         27.3158         18.6767 
       0.687237          26.846         18.3072 
       0.693381         26.6328         17.9463 
       0.699536         25.9743         17.5949 
       0.705665         25.9507         17.2549 
       0.711789         25.3196         16.9245 
       0.717957          24.989         16.6007 
        0.72409         24.6463         16.2873 
       0.730186         24.2784         15.9839 
       0.736317         24.0394         15.6865 
       0.742472         23.6161         15.3955 
       0.748622         23.3944         15.1121 
        0.75476         22.9976         14.8365 
       0.760888         22.6407         14.5682 
       0.767043         22.3701         14.3056 
       0.773185         21.9996         14.0501 
       0.779291         21.8907         13.8025 
       0.785407         21.6499         13.5605 
       0.791564         21.2559          13.323 
       0.797719         20.7731         13.0913 
       0.803834         20.7527         12.8667 
       0.809972         20.5425         12.6465 
       0.816124         20.0937         12.4311 
       0.822261         19.9027         12.2214 
       0.828378         19.7274         12.0171 
       0.834502         19.5254         11.8174 
       0.840667         19.2613         11.6209 
       0.846816         18.9166         11.4295 
       0.852925         18.7429         11.2437 
       0.859047         18.5373         11.0616 
       0.865192         18.3484          10.883 
       0.871341         18.2204         10.7083 
       0.877463         17.8845         10.5382 
       0.883569         17.6777         10.3723 
       0.889708          17.432         10.2091 
       0.895864         17.2794         10.0491 
       0.902008         17.1506         9.89281 
       0.908149         16.9626         9.74001 
       0.914301          16.876         9.59023 
       0.920448         16.5516         9.44376 
       0.926574         16.4067         9.30088 
       0.932687         16.2223          9.1613 
       0.938823         16.0105          9.0241 
       0.944975         15.8571         8.88942 
       0.951105         15.7066           8.758 
       0.957225         15.5459         8.62949 
       0.963368         15.4397         8.50314 
       0.969511         15.2883         8.37934 
       0.975621         15.1505         8.25869 
       0.981748         14.9317         8.14012 
       0.987916         14.8502         8.02316 
        0.99406         14.6556         7.90896 
        1.00019         14.4611         7.79722 
        1.00632         14.4027         7.68776 
        1.01246         14.2837         7.58025 
        1.01859         14.0465         7.47499 
        1.02471         14.0039         7.37188 
        1.03085         13.8642         7.27037 
        1.03698         13.6388         7.17101 
        1.04314         13.5688         7.07309 
        1.04929         13.4062         6.97724 
        1.05541         13.2611         6.88356 
        1.06154         13.1864         6.79138 
        1.06769         13.1149         6.70077 
        1.07382         12.9414         6.61211 
        1.07993         12.8522         6.52527 
        1.08607         12.7124         6.43965 
        1.09222         12.6323         6.35548 
        1.09836         12.4762         6.27293 
        1.10449         12.3923         6.19195 
        1.11063         12.2471         6.11232 
        1.11677         12.2036         6.03413 
         1.1229         12.1299         5.95745 
        1.12903         11.9667         5.88205 
        1.13518         11.8257         5.80789 
        1.14131         11.7917         5.73507 
        1.14745         11.6835         5.66354 
        1.15359         11.6081         5.59323 
        1.15973         11.4895         5.52409 
        1.16584         11.3324         5.45643 
        1.17197         11.2989         5.38983 
        1.17811         11.2065         5.32413 
        1.18424         11.1083         5.25973 
        1.19038         11.0631         5.19622 
        1.19652         10.9497         5.13379 
        1.20267         10.8524         5.07239 
        1.20881         10.8031         5.01202 
        1.21495         10.7279         4.95272 
        1.22108         10.6019         4.89441 
         1.2272         10.5203         4.83717 
        1.23334         10.4419         4.78073 
        1.23949          10.344         4.72506 
        1.24562         10.3031         4.67043 
        1.25174         10.2333         4.61676 
        1.25789         10.1443         4.56377 
        1.26402         10.1072         4.51172 
        1.27014         10.0078          4.4606 
        1.27628         9.88938         4.41014 
        1.28244         9.83012         4.36035 
        1.28858         9.81812         4.31141 
        1.29471         9.71092         4.26334 
        1.30084         9.61793         4.21604 
        1.30697         9.58476         4.16939 
        1.31312         9.46664         4.12339 
        1.31925         9.39899         4.07822 
        1.32537         9.36496         4.03378 
        1.33151          9.3029         3.98985 
        1.33765         9.23216          3.9466 
        1.34378          9.1665         3.90408 
        1.34992         9.08194         3.86216 
        1.35606         9.05146         3.82077 
         1.3622         8.99542         3.78006 
        1.36833         8.90191         3.74005 
        1.37445         8.86715         3.70064 
        1.38059         8.81466         3.66168 
        1.38675         8.72382         3.62319 
        1.39288         8.70335         3.58541 
        1.39901         8.61446         3.54819 
        1.40515          8.5775         3.51141 
         1.4113         8.51539         3.47518 
        1.41742         8.45439          3.4396 
        1.42355         8.39278         3.40445 
         1.4297         8.36179         3.36969 
        1.43585         8.31762         3.33543 
        1.44198         8.26595         3.30178 
        1.44809         8.20614         3.26866 
        1.45423         8.14595         3.23588 
        1.46036         8.09071          3.2036 
        1.46649          8.0604         3.17176 
        1.47263           7.982         3.14033 
        1.47877         7.93728         3.10934 
        1.48491         7.90532         3.07872 
        1.49104         7.85288         3.04858 
        1.49718         7.80695         3.01883 
        1.50333         7.76382         2.98942 
        1.50947         7.70432         2.96047 
         1.5156         7.66404         2.93194 
        1.52172         7.63273         2.90379 
        1.52787         7.57472         2.87596 
          1.534         7.52056         2.84853 
        1.54013         7.47952         2.82148 
        1.54627         7.42471         2.79474 
        1.55241         7.39301         2.76834 
        1.55855         7.35871         2.74233 
        1.56467         7.30224         2.71672 
         1.5708         7.29116         2.69136 
        1.57695         7.22697         2.66629 
        1.58308         7.17526         2.64161 
        1.58922         7.15484         2.61721 
        1.59535         7.12065         2.59314 
         1.6015         7.05819         2.56934 
        1.60764         7.01151         2.54585 
        1.61376          6.9974         2.52272 
        1.61989         6.94731         2.49985 
        1.62604         6.91833         2.47723 
        1.63218         6.88944         2.45489 
        1.63831         6.84581         2.43289 
        1.64444         6.80225         2.41114 
        1.65059         6.74474         2.38962 
        1.65673         6.74766         2.36838 
        1.66285          6.6748         2.34746 
        1.66898          6.6503         2.32678 
        1.67512         6.62393         2.30632 
        1.68127         6.58243         2.28608 
         1.6874          6.5547         2.26613 
        1.69353         6.49986         2.24644 
        1.69967         6.48329         2.22693 
        1.70581         6.45678         2.20767 
        1.71193          6.4048          2.1887 
        1.71806         6.38537         2.16992 
        1.72421         6.34468         2.15132 
        1.73035         6.32305         2.13296 
        1.73649         6.28965         2.11483 
        1.74262         6.25219         2.09691 
        1.74876         6.23437          2.0792 
        1.75489         6.19658         2.06172 
        1.76101          6.1519         2.04445 
        1.76715         6.13747         2.02736 
        1.77329         6.08957         2.01044 
        1.77943         6.05981         1.99371 
        1.78557         6.04938          1.9772 
        1.79171         6.01592         1.96087 
        1.79785         5.97391         1.94472 
        1.80399         5.94717         1.92875 
        1.81012         5.92549         1.91299 
        1.81625         5.89121         1.89742 
        1.82239         5.86727         1.88199 
        1.82853         5.83065         1.86674 
        1.83466         5.80425         1.85168 
        1.84078         5.77842          1.8368 
        1.84692         5.76543         1.82206 
        1.85306         5.72447         1.80746 
         1.8592         5.69257         1.79305 
        1.86533         5.67306         1.77881 
        1.87147         5.64718          1.7647 
        1.87761         5.62377         1.75074 
        1.88375          5.5809         1.73694 
        1.88988         5.57734         1.72332 
        1.89601         5.54564         1.70983 
        1.90215         5.51588         1.69647 
        1.90829         5.48755         1.68327 
        1.91442         5.46304          1.6702 
        1.92056         5.44834         1.65729 
         1.9267         5.41296          1.6445 
        1.93284          5.3861         1.63183 
        1.93897         5.35886         1.61933 
        1.94509         5.34683         1.60698 
        1.95123         5.32083         1.59473 
        1.95737         5.28989          1.5826 
        1.96349         5.27478         1.57063 
        1.96964         5.24426         1.55875 
        1.97578         5.21747         1.54699 
        1.98192           5.204         1.53537 
        1.98805         5.18195         1.52387 
        1.99419         5.15147         1.51248 
        2.00033         5.14239         1.50121 
        2.00647         5.11166         1.49006 
         2.0126         5.09368         1.47904 
        2.01874         5.07076         1.46811 
        2.02488         5.04876         1.45729 
        2.03101           5.023         1.44659 
        2.03714          4.9926         1.43602 
        2.04328         4.98159         1.42553 
        2.04941         4.94991         1.41516 
        2.05554         4.94024          1.4049 
        2.06167         4.91012         1.39473 
        2.06781         4.89837         1.38466 
        2.07396         4.88561         1.37468 
        2.08009         4.85996         1.36481 
        2.08622         4.83183         1.35504 
        2.09237         4.81551         1.34536 
        2.09851          4.8049         1.33577 
        2.10464            4.78         1.32629 
        2.11077         4.74821         1.31691 
        2.11691         4.72989          1.3076 
        2.12305         4.71731         1.29838 
        2.12918         4.70574         1.28928 
        2.13531          4.6818         1.28026 
        2.14145         4.66234          1.2713 
         2.1476          4.6421         1.26242 
        2.15372         4.62329         1.25367 
        2.15985         4.61918           1.245 
        2.16599         4.58393         1.23638 
        2.17213         4.57132         1.22786 
        2.17827         4.55916         1.21941 
         2.1844         4.53736         1.21106 
        2.19054         4.50552         1.20278 
        2.19666         4.49663         1.19459 
         2.2028         4.48008         1.18646 
        2.20893         4.46528         1.17841 
        2.21508         4.44431         1.17043 
        2.22122         4.42371         1.16252 
        2.22736         4.41088         1.15469 
        2.23349         4.39882         1.14694 
        2.23962          4.3827         1.13926 
        2.24577          4.3617         1.13164 
         2.2519         4.35238         1.12411 
        2.25802         4.32589         1.11665 
        2.26417         4.31395         1.10924 
        2.27031         4.29277         1.10189 
        2.27644         4.27459         1.09463 
        2.28257         4.25579         1.08744 
        2.28872         4.25151          1.0803 
        2.29486         4.23467         1.07322 
        2.30099         4.21532         1.06622 
        2.30712         4.19854         1.05928 
        2.31326         4.17655         1.05239 
         2.3194         4.16541         1.04556 
        2.32553          4.1567         1.03881 
        2.33166         4.14206         1.03212 
         2.3378         4.12093         1.02548 
        2.34394         4.10761          1.0189 
        2.35007         4.08868         1.01238 
        2.35619         4.07746         1.00593 
        2.36233         4.06096        0.999523 
        2.36848         4.04706        0.993155 
        2.37462         4.03824        0.986857 
        2.38075         4.02181         0.98062 
        2.38689         4.00939        0.974432 
        2.39303         3.98577        0.968298 
        2.39916         3.97473        0.962223 
        2.40529         3.96091        0.956202 
        2.41143           3.946        0.950227 
        2.41757         3.94599        0.944301 
         2.4237         3.92394        0.938437 
        2.42983         3.90581        0.932623 
        2.43598         3.89349        0.926843 
        2.44211         3.87772        0.921122 
        2.44823         3.86557        0.915462 
        2.45437         3.85451        0.909834 
        2.46052         3.84155        0.904249 
        2.46665         3.82895        0.898721 
        2.47279         3.80739        0.893241 
        2.47892         3.79649        0.887803 
        2.48507         3.78774        0.882406 
         2.4912         3.77038        0.877064 
