# k  (h/Mpc)    P(k)  (Mpc/h)^3    P_linear(k)  (Mpc/h)^3
     0.00783031         15123.3         15217.8 
       0.013688         17353.4         17803.3 
       0.019231         16998.7         17247.9 
      0.0249154         15378.2         15318.2 
      0.0312784         12686.5         12779.5 
      0.0375637         10464.3           10612 
      0.0433917         9110.08         9132.37 
      0.0492413          8045.4          8121.1 
      0.0555754         7374.79         7387.12 
      0.0619321         6605.53         6815.93 
       0.067871         6183.53         6283.92 
      0.0738098         5657.77         5691.48 
      0.0800417         5026.04         5022.19 
      0.0862327         4377.62         4376.69 
      0.0921407         3890.88         3844.13 
      0.0982031         3522.04         3419.79 
       0.104506         3156.43         3110.58 
       0.110769         2964.29         2905.66 
       0.116806         2853.55          2760.7 
       0.122832         2684.39         2625.74 
       0.129052         2521.34         2467.39 
       0.135211         2400.39          2283.3 
       0.141259         2182.66         2086.98 
       0.147318         1988.04         1894.94 
       0.153489         1845.93         1723.44 
       0.159709         1757.74         1586.31 
       0.165845         1612.68         1486.39 
       0.171974         1578.71         1413.54 
       0.178125         1524.89         1355.07 
       0.184229         1413.17         1299.53 
        0.19034          1382.3         1238.37 
       0.196428         1330.41         1169.58 
       0.202534         1233.63         1095.56 
       0.208729         1202.54         1021.16 
       0.214876         1139.65         953.865 
       0.220989         1073.19          897.02 
       0.227147         1043.98         850.633 
        0.23329         1002.98         813.358 
       0.239377         994.062         781.957 
       0.245482         943.275         752.474 
       0.251667         907.566         722.042 
       0.257832         891.654         690.023 
       0.263955         844.844         656.978 
       0.270079         814.982         624.123 
        0.27624         780.229         592.902 
       0.282372         765.839         564.894 
        0.28843         754.796         540.665 
       0.294538         716.911         519.385 
       0.300721         699.776         500.244 
        0.30691         684.404         482.429 
       0.313033         654.453         465.288 
       0.319153         645.263         448.132 
       0.325316         634.972         430.813 
        0.33145         619.149         413.786 
       0.337538         596.295         397.529 
       0.343633         580.587         382.262 
       0.349808         566.771         368.028 
       0.355968         556.078         355.063 
       0.362074         535.776         343.227 
       0.368217         533.301         332.081 
       0.374374         524.361         321.385 
       0.380519         503.232         310.998 
       0.386598          498.43         300.933 
       0.392688         485.831         291.071 
        0.39888         473.728         281.375 
       0.405048         463.695         272.145 
       0.411186           462.8         263.447 
       0.417313         457.145         255.284 
       0.423458         444.017         247.571 
       0.429607         430.906         240.254 
       0.435692         425.352         233.338 
       0.441815         417.447         226.629 
       0.447964         409.309         220.094 
       0.454126         404.676         213.745 
       0.460267         397.877         207.624 
       0.466387         389.854         201.743 
        0.47254          384.76         196.067 
       0.478662         376.947         190.672 
       0.484765         371.806         185.532 
       0.490885         368.221         180.596 
       0.497035         360.164         175.832 
       0.503198         359.698         171.237 
       0.509342         351.689         166.813 
       0.515458          345.04         162.547 
       0.521598         340.786         158.399 
       0.527764         335.172         154.373 
       0.533884         332.395         150.516 
           0.54         328.297           146.8 
       0.546137         321.441         143.204 
       0.552299         320.113         139.723 
       0.558452         314.748         136.372 
       0.564573         312.663         133.152 
       0.570708           307.5          130.03 
       0.576825          301.99         127.014 
       0.582926         300.482         124.098 
       0.589034         295.118         121.267 
       0.595184          293.18         118.506 
       0.601379         288.518         115.814 
       0.607522         282.398          113.23 
       0.613639         281.631         110.737 
       0.619772         280.493         108.315 
       0.625918         275.044         105.962 
       0.632068         272.488         103.678 
       0.638161         270.605         101.483 
         0.6443         266.666         99.3367 
       0.650464         263.531         97.2446 
       0.656582         260.867         95.2276 
       0.662703         259.553         93.2673 
       0.668861         254.387         91.3511 
       0.675024         253.517         89.4877 
       0.681124          249.73         87.6955 
       0.687237         248.421         85.9497 
       0.693381         244.485          84.244 
       0.699536         243.606         82.5823 
       0.705665         240.723         80.9732 
       0.711789         238.232         79.4088 
       0.717957         236.201         77.8755 
        0.72409         232.915         76.3913 
       0.730186         234.246          74.955 
       0.736317         230.287          73.548 
       0.742472         227.897         72.1722 
       0.748622          225.57         70.8331 
        0.75476         225.032         69.5311 
       0.760888         222.183         68.2641 
       0.767043         219.339         67.0239 
       0.773185         217.756         65.8174 
       0.779291         215.466         64.6478 
       0.785407         214.292         63.5051 
       0.791564         212.581         62.3831 
       0.797719         209.023         61.2889 
       0.803834         210.213         60.2282 
       0.809972         207.297         59.1889 
       0.816124         204.255          58.172 
       0.822261         203.034          57.182 
       0.828378         202.288         56.2181 
       0.834502          199.79         55.2757 
       0.840667         199.814          54.349 
       0.846816         195.892         53.4463 
       0.852925         195.922         52.5699 
       0.859047         193.947         51.7114 
       0.865192         193.352         50.8694 
       0.871341         191.038         50.0457 
       0.877463         189.438         49.2441 
       0.883569          188.98         48.4621 
       0.889708         187.256         47.6933 
       0.895864         185.122         46.9392 
       0.902008         183.675         46.2032 
       0.908149          182.15         45.4834 
       0.914301         180.941          44.778 
       0.920448         180.468         44.0882 
       0.926574          178.43         43.4154 
       0.932687         178.143         42.7583 
       0.938823         176.343         42.1124 
       0.944975         175.777         41.4785 
       0.951105          173.75           40.86 
       0.957225         172.487         40.2553 
       0.963368         172.198         39.6608 
       0.969511         169.715         39.0784 
       0.975621         167.963         38.5108 
       0.981748         167.739         37.9532 
       0.987916         166.866         37.4032 
        0.99406         165.468         36.8662 
        1.00019          164.54         36.3408 
        1.00632         163.442         35.8263 
        1.01246         162.308          35.321 
        1.01859         160.805         34.8263 
        1.02471         159.679         34.3417 
        1.03085          158.66         33.8647 
        1.03698         157.968         33.3979 
        1.04314         157.423         32.9379 
        1.04929          156.39         32.4877 
        1.05541         155.615         32.0477 
        1.06154         153.976         31.6148 
        1.06769         153.188         31.1893 
        1.07382         152.212         30.7731 
        1.07993         150.948         30.3655 
        1.08607         150.633         29.9636 
        1.09222         149.113         29.5685 
        1.09836         148.498         29.1811 
        1.10449         147.517         28.8011 
        1.11063         146.311         28.4275 
        1.11677         145.638         28.0607 
         1.1229         144.732          27.701 
        1.12903         143.505         27.3473 
        1.13518         142.696         26.9995 
        1.14131         142.252          26.658 
        1.14745         140.931         26.3226 
        1.15359          140.03          25.993 
        1.15973         139.525         25.6688 
        1.16584         138.585         25.3517 
        1.17197         137.993         25.0395 
        1.17811         136.779         24.7317 
        1.18424         136.068         24.4299 
        1.19038         135.361         24.1323 
        1.19652         134.308         23.8398 
        1.20267         133.446         23.5522 
        1.20881         132.563         23.2694 
        1.21495         132.444         22.9917 
        1.22108         131.282         22.7186 
         1.2272          130.58         22.4506 
        1.23334         129.778         22.1864 
        1.23949         129.248         21.9257 
        1.24562         128.262         21.6701 
        1.25174          127.98         21.4188 
        1.25789         126.793         21.1708 
        1.26402         126.376         20.9272 
        1.27014         125.535         20.6881 
        1.27628         124.851          20.452 
        1.28244         124.138         20.2191 
        1.28858         123.369         19.9901 
        1.29471         122.495         19.7652 
        1.30084         121.784          19.544 
        1.30697         120.985         19.3259 
        1.31312         120.481         19.1107 
        1.31925         119.486         18.8996 
        1.32537         119.074         18.6918 
        1.33151         118.621         18.4864 
        1.33765         117.715         18.2843 
        1.34378         117.472         18.0856 
        1.34992         116.593         17.8897 
        1.35606         116.107         17.6962 
         1.3622         115.507          17.506 
        1.36833         114.543         17.3191 
        1.37445         114.341          17.135 
        1.38059         113.477          16.953 
        1.38675          112.84         16.7732 
        1.39288         112.113         16.5968 
        1.39901         111.465          16.423 
        1.40515         111.085         16.2512 
         1.4113         110.359         16.0821 
        1.41742         109.934         15.9159 
        1.42355         109.437         15.7518 
         1.4297         108.637         15.5896 
        1.43585         108.133         15.4297 
        1.44198         107.218         15.2726 
        1.44809         106.911         15.1181 
        1.45423         106.582         14.9651 
        1.46036         105.527         14.8145 
        1.46649         105.071          14.666 
        1.47263          104.44         14.5193 
        1.47877         103.962         14.3748 
        1.48491         103.527         14.2319 
        1.49104         102.621         14.0914 
        1.49718         102.249         13.9526 
        1.50333         101.743         13.8155 
        1.50947         101.392         13.6805 
         1.5156         100.701         13.5475 
        1.52172         99.9968         13.4163 
        1.52787         99.7724         13.2866 
          1.534          99.179         13.1587 
        1.54013         98.5358         13.0327 
        1.54627         97.9744         12.9081 
        1.55241         97.7581         12.7851 
        1.55855         97.0104         12.6638 
        1.56467          96.527         12.5445 
         1.5708         95.6134         12.4264 
        1.57695         95.6132         12.3097 
        1.58308         94.9184         12.1947 
        1.58922         94.6091         12.0811 
        1.59535         94.3957         11.9689 
         1.6015         93.5423         11.8581 
        1.60764         93.0015         11.7487 
        1.61376         92.7677          11.641 
        1.61989         92.2321         11.5346 
        1.62604         91.6714         11.4292 
        1.63218         91.1928         11.3253 
        1.63831         90.6808         11.2228 
        1.64444         90.1126         11.1216 
        1.65059          89.715         11.0215 
        1.65673         89.6001         10.9226 
        1.66285         89.0762         10.8253 
        1.66898         88.3273         10.7291 
        1.67512           87.79         10.6339 
        1.68127         87.6142         10.5397 
         1.6874         86.9837         10.4469 
        1.69353         86.5682         10.3553 
        1.69967         86.0331         10.2646 
        1.70581         85.8154          10.175 
        1.71193          85.276         10.0868 
        1.71806         84.8074         9.99946 
        1.72421         84.3183         9.91299 
        1.73035         83.8976         9.82764 
        1.73649         83.4808         9.74332 
        1.74262         83.1155         9.66006 
        1.74876         82.5214         9.57771 
        1.75489         82.3352          9.4965 
        1.76101         81.9894         9.41625 
        1.76715         81.3886         9.33682 
        1.77329          80.941         9.25822 
        1.77943         80.6409         9.18048 
        1.78557         80.3493         9.10376 
        1.79171         79.7685         9.02789 
        1.79785         79.2813         8.95288 
        1.80399         79.1216         8.87874 
        1.81012         78.4411         8.80554 
        1.81625         78.1377          8.7332 
        1.82239         77.7361         8.66156 
        1.82853          77.327         8.59076 
        1.83466         76.8618         8.52083 
        1.84078         76.6713         8.45174 
        1.84692         76.3847         8.38331 
        1.85306         76.0969         8.31555 
         1.8592         75.6307         8.24865 
        1.86533         75.1112         8.18252 
        1.87147         74.8066         8.11704 
        1.87761         74.1102         8.05225 
        1.88375          74.018         7.98824 
        1.88988         73.4802           7.925 
        1.89601         73.4364         7.86241 
        1.90215         72.9395         7.80044 
        1.90829         72.4023         7.73918 
        1.91442         72.0087         7.67857 
        1.92056         71.8123         7.61866 
         1.9267         71.4597         7.55933 
        1.93284         71.2436          7.5006 
        1.93897         70.7195          7.4426 
        1.94509         70.4287         7.38534 
        1.95123         70.0559         7.32854 
        1.95737         69.8058          7.2723 
        1.96349         69.5244         7.21679 
        1.96964         69.1194          7.1617 
        1.97578         68.7133         7.10716 
        1.98192         68.2943          7.0533 
        1.98805         67.8826               7 
        1.99419         67.9111         6.94724 
        2.00033         67.2949           6.895 
        2.00647         66.9013         6.84331 
         2.0126          66.719         6.79224 
        2.01874         66.5285         6.74161 
        2.02488         66.1408         6.69145 
        2.03101         65.6673          6.6419 
        2.03714         65.4274          6.5929 
        2.04328           65.26         6.54434 
        2.04941         64.8535          6.4963 
        2.05554         64.4407         6.44879 
        2.06167         64.0684         6.40168 
        2.06781         63.8008         6.35504 
        2.07396          63.429          6.3088 
        2.08009         63.2217          6.2631 
        2.08622         62.8743          6.2179 
        2.09237         62.6288         6.17306 
        2.09851          62.153         6.12866 
        2.10464          61.927         6.08476 
        2.11077         61.7661         6.04135 
        2.11691         61.4384         5.99827 
        2.12305         61.0405          5.9556 
        2.12918          60.757         5.91346 
        2.13531         60.5035         5.87171 
        2.14145         60.1612         5.83028 
         2.1476         60.0566         5.78919 
        2.15372          59.548         5.74871 
        2.15985         59.3109         5.70857 
        2.16599         59.0799          5.6687 
        2.17213         58.7059         5.62926 
        2.17827         58.2918          5.5902 
         2.1844         58.1497         5.55155 
        2.19054         57.9561         5.51325 
        2.19666         57.6686         5.47536 
         2.2028         57.3818          5.4378 
        2.20893         57.0528         5.40057 
        2.21508         56.7347         5.36365 
        2.22122         56.4141         5.32706 
        2.22736         56.1535         5.29089 
        2.23349          55.925         5.25507 
        2.23962         55.7259         5.21955 
        2.24577         55.4172         5.18434 
         2.2519         55.1178          5.1495 
        2.25802         54.8832         5.11503 
        2.26417         54.6259         5.08078 
        2.27031         54.4212         5.04682 
        2.27644         54.0113         5.01326 
        2.28257         53.8539         4.98002 
        2.28872         53.5136         4.94701 
        2.29486         53.4031          4.9143 
        2.30099         52.9586         4.88196 
        2.30712         52.8138          4.8499 
        2.31326         52.5944         4.81806 
         2.3194          52.339         4.78654 
        2.32553         52.0151         4.75535 
        2.33166         51.8097         4.72444 
         2.3378          51.581         4.69378 
        2.34394         51.3084         4.66337 
        2.35007         51.0571         4.63328 
        2.35619         50.8893         4.60349 
        2.36233          50.658         4.57389 
        2.36848         50.3254         4.54449 
        2.37462         50.0776         4.51541 
        2.38075         49.8358         4.48661 
        2.38689         49.5471         4.45804 
        2.39303         49.4805         4.42973 
        2.39916         49.1378         4.40168 
        2.40529         49.0153         4.37389 
        2.41143         48.7911         4.34631 
        2.41757         48.4561         4.31896 
         2.4237         48.3564          4.2919 
        2.42983         48.0745         4.26507 
        2.43598         47.8596          4.2384 
        2.44211         47.5708           4.212 
        2.44823         47.4552         4.18588 
        2.45437         47.0479         4.15992 
        2.46052         46.8933         4.13415 
        2.46665         46.6257         4.10864 
        2.47279         46.4798         4.08336 
        2.47892         46.2459         4.05828 
        2.48507         46.0617         4.03338 
         2.4912         45.8138         4.00874 
