# k  (h/Mpc)    P(k)  (Mpc/h)^3    P_linear(k)  (Mpc/h)^3
     0.00783031         6578.91         6667.62 
       0.013688         8198.69          8170.8 
       0.019231         8185.11         8176.17 
      0.0249154         7330.34         7426.64 
      0.0312784         6245.83         6275.32 
      0.0375637         5232.11         5215.82 
      0.0433917         4430.37          4462.7 
      0.0492413         3942.79         3944.25 
      0.0555754         3532.79         3587.19 
      0.0619321         3364.75         3343.33 
       0.067871         3094.79         3135.66 
      0.0738098         2858.38         2897.24 
      0.0800417         2551.24         2602.01 
      0.0862327         2265.78         2286.58 
      0.0921407         2008.03         2001.45 
      0.0982031         1756.56         1756.41 
       0.104506         1606.26         1568.63 
       0.110769         1479.49          1446.4 
       0.116806         1392.47         1372.91 
       0.122832         1343.89            1321 
       0.129052         1268.13          1267.8 
       0.135211          1202.9         1200.51 
       0.141259         1135.29         1116.48 
       0.147318         1050.22         1020.57 
       0.153489         948.586         922.581 
       0.159709         875.029         835.353 
       0.165845         822.413         767.803 
       0.171974         768.393         719.996 
       0.178125         735.426         688.117 
       0.184229          710.98         665.856 
        0.19034         671.849          645.68 
       0.196428         659.302         621.964 
       0.202534         636.191         591.846 
       0.208729         598.337         555.528 
       0.214876         559.806         517.045 
       0.220989         534.015         480.452 
       0.227147         500.886         448.634 
        0.23329         477.566         423.558 
       0.239377         464.681         405.062 
       0.245482         436.086          391.23 
       0.251667          432.03         379.587 
       0.257832         418.416         367.976 
       0.263955         403.804          354.85 
       0.270079         387.881         339.599 
        0.27624         379.721         322.719 
       0.282372         362.989         305.611 
        0.28843         348.922          289.71 
       0.294538         332.274         275.686 
       0.300721          327.77         263.918 
        0.30691         312.659         254.412 
       0.313033         305.634         246.549 
       0.319153         294.026         239.419 
       0.325316         287.184         232.181 
        0.33145          277.56         224.493 
       0.337538         273.088         216.252 
       0.343633         263.403         207.667 
       0.349808         254.571         199.029 
       0.355968         249.901         190.918 
       0.362074         243.071         183.695 
       0.368217         236.306         177.327 
       0.374374         228.322         171.783 
       0.380519         224.561         166.815 
       0.386598          218.75         162.191 
       0.392688         215.721         157.611 
        0.39888         209.999         152.833 
       0.405048         204.933         147.964 
       0.411186         200.316         143.075 
       0.417313         195.896         138.289 
       0.423458         191.688         133.741 
       0.429607         187.169         129.528 
       0.435692         181.376         125.709 
       0.441815          179.99         122.206 
       0.447964         176.698         118.933 
       0.454126         169.221         115.793 
       0.460267         167.304         112.732 
       0.466387         164.925         109.707 
        0.47254         161.405         106.664 
       0.478662         159.981         103.666 
       0.484765         155.128          100.76 
       0.490885          152.67         97.9712 
       0.497035          150.63         95.3119 
       0.503198         146.565         92.8038 
       0.509342         144.228         90.4588 
       0.515458         142.161         88.2441 
       0.521598         139.985         86.1022 
       0.527764         137.917         84.0025 
       0.533884         135.765         81.9611 
           0.54         133.351         79.9623 
       0.546137         132.236         77.9967 
       0.552299         129.949         76.0722 
       0.558452         127.416         74.2146 
       0.564573         125.202         72.4429 
       0.570708         123.274         70.7503 
       0.576825          121.69         69.1359 
       0.582926         119.391         67.5859 
       0.589034         117.569         66.0827 
       0.595184         116.131         64.6102 
       0.601379         114.738         63.1667 
       0.607522         112.099         61.7727 
       0.613639         111.744         60.4202 
       0.619772         109.262         59.0994 
       0.625918         108.083         57.8132 
       0.632068         106.856         56.5655 
       0.638161         105.702         55.3699 
         0.6443         104.278         54.2074 
       0.650464         103.059         53.0805 
       0.656582         101.609         51.9973 
       0.662703         99.9119         50.9447 
       0.668861         98.6647         49.9134 
       0.675024         97.5813         48.9057 
       0.681124         96.5585         47.9323 
       0.687237         94.7906         46.9814 
       0.693381         93.6916         46.0512 
       0.699536          92.711         45.1453 
       0.705665         92.9653         44.2698 
       0.711789         90.4886         43.4207 
       0.717957         90.0083           42.59 
        0.72409         88.7013         41.7867 
       0.730186         87.2338         41.0095 
       0.736317         86.9977         40.2476 
       0.742472         86.0766         39.5014 
       0.748622         85.1868         38.7739 
        0.75476         84.2983         38.0657 
       0.760888         83.0885         37.3757 
       0.767043           82.38            36.7 
       0.773185         81.4186         36.0425 
       0.779291         80.6929         35.4052 
       0.785407         80.0385          34.783 
       0.791564         79.1467         34.1723 
       0.797719         77.9206          33.577 
       0.803834          77.607         32.9999 
       0.809972         76.3179         32.4347 
       0.816124         75.8852         31.8816 
       0.822261         75.2535         31.3429 
       0.828378         74.6351         30.8183 
       0.834502         73.9061         30.3052 
       0.840667          73.161         29.8005 
       0.846816         72.2367         29.3086 
       0.852925         71.6704         28.8309 
       0.859047         70.7443          28.363 
       0.865192         70.3933         27.9039 
       0.871341         69.9528         27.4547 
       0.877463         68.8065         27.0175 
       0.883569         68.3839          26.591 
       0.889708         67.9784         26.1716 
       0.895864          67.396         25.7603 
       0.902008         66.7586         25.3587 
       0.908149         66.3221          24.966 
       0.914301         65.6799         24.5811 
       0.920448         65.1673         24.2046 
       0.926574         64.5504         23.8375 
       0.932687         64.2716         23.4787 
       0.938823          63.245         23.1261 
       0.944975         62.9575           22.78 
       0.951105         62.3963         22.4422 
       0.957225         61.6322         22.1118 
       0.963368         61.5373         21.7871 
       0.969511          61.107         21.4688 
       0.975621          60.683         21.1587 
       0.981748         60.0191         20.8539 
       0.987916         59.5975         20.5533 
        0.99406         59.2302         20.2597 
        1.00019          58.576         19.9725 
        1.00632         58.3011         19.6911 
        1.01246         57.8046         19.4147 
        1.01859         57.0458         19.1441 
        1.02471         57.1732         18.8791 
        1.03085         56.5446         18.6181 
        1.03698         56.0828         18.3627 
        1.04314         55.5734          18.111 
        1.04929          55.255         17.8646 
        1.05541         54.6884         17.6238 
        1.06154         54.6562         17.3869 
        1.06769         54.1431          17.154 
        1.07382         53.8747         16.9262 
        1.07993         53.5786          16.703 
        1.08607         53.0568         16.4829 
        1.09222         52.8016         16.2667 
        1.09836           52.41         16.0545 
        1.10449         52.0292         15.8464 
        1.11063          51.535         15.6418 
        1.11677         51.2426         15.4409 
         1.1229         50.9497         15.2439 
        1.12903           50.26         15.0502 
        1.13518         50.4561         14.8596 
        1.14131         50.1165         14.6725 
        1.14745         49.4538         14.4888 
        1.15359         49.3999         14.3081 
        1.15973         48.8572         14.1305 
        1.16584         48.5884         13.9567 
        1.17197         48.3373         13.7856 
        1.17811         48.0891         13.6168 
        1.18424         47.5867         13.4514 
        1.19038           47.43         13.2882 
        1.19652         47.2512         13.1279 
        1.20267         46.8581         12.9701 
        1.20881         46.5628         12.8151 
        1.21495         46.1862         12.6627 
        1.22108         45.9627         12.5129 
         1.2272         45.4925         12.3659 
        1.23334         45.3538         12.2209 
        1.23949         45.2817         12.0779 
        1.24562         44.8509         11.9376 
        1.25174         44.6913         11.7997 
        1.25789         44.4249         11.6636 
        1.26402         44.0464         11.5299 
        1.27014         43.6761         11.3986 
        1.27628         43.5487          11.269 
        1.28244         43.2333         11.1411 
        1.28858         43.0753         11.0154 
        1.29471         42.9079          10.892 
        1.30084         42.6541         10.7705 
        1.30697         42.3287         10.6507 
        1.31312         41.9913         10.5326 
        1.31925         41.9117         10.4166 
        1.32537         41.6894         10.3025 
        1.33151          41.324         10.1897 
        1.33765         41.2729         10.0787 
        1.34378         40.9972         9.96957 
        1.34992         40.6132         9.86197 
        1.35606         40.4086         9.75572 
         1.3622         40.1996         9.65124 
        1.36833         39.9851         9.54854 
        1.37445          39.926         9.44739 
        1.38059         39.6509          9.3474 
        1.38675          39.324         9.24863 
        1.39288         39.2483         9.15167 
        1.39901         38.9256         9.05615 
        1.40515         38.7518         8.96179 
         1.4113         38.6302          8.8688 
        1.41742         38.3027          8.7775 
        1.42355         38.1484          8.6873 
         1.4297         37.9271         8.59811 
        1.43585         37.8361          8.5102 
        1.44198          37.533         8.42386 
        1.44809         37.3918         8.33888 
        1.45423         37.2258         8.25476 
        1.46036           37.08         8.17195 
        1.46649         36.8064         8.09025 
        1.47263         36.6256         8.00961 
        1.47877         36.5237          7.9301 
        1.48491         36.3935         7.85155 
        1.49104          36.116         7.77423 
        1.49718         35.7675          7.6979 
        1.50333         35.7482         7.62247 
        1.50947         35.5965         7.54821 
         1.5156         35.3651         7.47504 
        1.52172         35.1746         7.40285 
        1.52787         35.1602         7.33147 
          1.534          34.874         7.26112 
        1.54013         34.6514         7.19177 
        1.54627          34.572          7.1232 
        1.55241         34.3283         7.05551 
        1.55855         34.1809          6.9888 
        1.56467           33.91         6.92313 
         1.5708         33.9384         6.85813 
        1.57695         33.6191         6.79386 
        1.58308         33.5858         6.73057 
        1.58922         33.4716         6.66804 
        1.59535         33.2438         6.60633 
         1.6015         33.0172         6.54532 
        1.60764         32.9084          6.4851 
        1.61376         32.7204         6.42582 
        1.61989         32.4844         6.36722 
        1.62604         32.4659         6.30923 
        1.63218         32.2948         6.25199 
        1.63831         32.1358          6.1956 
        1.64444          32.003         6.13988 
        1.65059         31.7653         6.08471 
        1.65673         31.6128         6.03029 
        1.66285         31.5216         5.97667 
        1.66898         31.3401          5.9237 
        1.67512          31.251         5.87126 
        1.68127         31.0241         5.81941 
         1.6874         30.9341         5.76831 
        1.69353         30.7859         5.71785 
        1.69967         30.6234         5.66787 
        1.70581         30.5381         5.61851 
        1.71193         30.4004         5.56993 
        1.71806         30.1959         5.52182 
        1.72421          30.034         5.47418 
        1.73035         29.9033         5.42716 
        1.73649         29.8084          5.3807 
        1.74262         29.6439         5.33483 
        1.74876         29.6363         5.28946 
        1.75489         29.4185         5.24471 
        1.76101         29.2635         5.20049 
        1.76715         29.1669         5.15672 
        1.77329         29.0589          5.1134 
        1.77943         28.9129         5.07056 
        1.78557         28.7557         5.02827 
        1.79171         28.6456         4.98646 
        1.79785         28.4992         4.94512 
        1.80399         28.3934         4.90426 
        1.81012         28.3055         4.86391 
        1.81625         28.1453         4.82403 
        1.82239          28.082         4.78454 
        1.82853         27.8546         4.74552 
        1.83466         27.7692         4.70696 
        1.84078         27.5709         4.66888 
        1.84692         27.5217         4.63115 
        1.85306         27.3874          4.5938 
         1.8592         27.2563         4.55692 
        1.86533         27.1212         4.52046 
        1.87147         27.0271         4.48436 
        1.87761         26.9857         4.44864 
        1.88375         26.8606         4.41335 
        1.88988         26.7444         4.37848 
        1.89601         26.5587         4.34397 
        1.90215         26.5098          4.3098 
        1.90829         26.4512         4.27602 
        1.91442         26.2499         4.24259 
        1.92056          26.194         4.20956 
         1.9267         26.0187         4.17684 
        1.93284         25.8853         4.14445 
        1.93897         25.8414         4.11246 
        1.94509         25.7112         4.08088 
        1.95123         25.5914         4.04955 
        1.95737         25.4741         4.01853 
        1.96349         25.3814         3.98791 
        1.96964          25.246         3.95752 
        1.97578         25.2008         3.92744 
        1.98192         25.0349         3.89773 
        1.98805         24.9844         3.86832 
        1.99419         24.8451         3.83922 
        2.00033         24.6856          3.8104 
        2.00647         24.6274         3.78189 
         2.0126         24.5173         3.75371 
        2.01874         24.4434         3.72578 
        2.02488         24.4069         3.69811 
        2.03101          24.215         3.67077 
        2.03714         24.1304         3.64374 
        2.04328         24.0113         3.61694 
        2.04941         23.9486         3.59044 
        2.05554         23.8517         3.56422 
        2.06167         23.7538         3.53822 
        2.06781         23.6557         3.51248 
        2.07396         23.5839         3.48697 
        2.08009         23.5094         3.46175 
        2.08622         23.3475          3.4368 
        2.09237         23.2666         3.41206 
        2.09851         23.1845         3.38755 
        2.10464         23.1331         3.36333 
        2.11077         22.9468         3.33937 
        2.11691         22.9067         3.31559 
        2.12305         22.8127         3.29204 
        2.12918         22.7748         3.26878 
        2.13531         22.6452         3.24574 
        2.14145         22.5955         3.22287 
         2.1476         22.4458         3.20019 
        2.15372         22.3626         3.17785 
        2.15985         22.2414         3.15569 
        2.16599          22.203         3.13368 
        2.17213         22.1434         3.11191 
        2.17827         21.9693         3.09035 
         2.1844         21.8773         3.06901 
        2.19054         21.8093         3.04787 
        2.19666         21.7497         3.02695 
         2.2028         21.6829         3.00622 
        2.20893         21.5873         2.98566 
        2.21508         21.4822         2.96528 
        2.22122         21.3373         2.94508 
        2.22736         21.3481         2.92511 
        2.23349         21.2238         2.90533 
        2.23962         21.1348         2.88572 
        2.24577          21.028         2.86627 
         2.2519         20.9947         2.84703 
        2.25802          20.894           2.828 
        2.26417         20.8387         2.80909 
        2.27031         20.7481         2.79034 
        2.27644         20.6657         2.77181 
        2.28257         20.5656         2.75345 
        2.28872           20.46         2.73522 
        2.29486         20.4175         2.71716 
        2.30099         20.3171          2.6993 
        2.30712         20.2851         2.68159 
        2.31326         20.2041         2.66401 
         2.3194         20.1073          2.6466 
        2.32553          20.015         2.62938 
        2.33166         19.9148         2.61231 
         2.3378         19.8414         2.59537 
        2.34394         19.7945         2.57858 
        2.35007         19.7053         2.56196 
        2.35619          19.585         2.54551 
        2.36233         19.5709         2.52916 
        2.36848         19.4529         2.51292 
        2.37462         19.3903         2.49686 
        2.38075         19.3216         2.48095 
        2.38689         19.2829         2.46517 
        2.39303         19.1601         2.44953 
        2.39916         19.0982         2.43404 
        2.40529         19.0151         2.41868 
        2.41143         18.9669         2.40345 
        2.41757         18.8921         2.38834 
         2.4237         18.8041         2.37339 
        2.42983         18.7337         2.35857 
        2.43598         18.6851         2.34383 
        2.44211         18.5974         2.32925 
        2.44823         18.5058         2.31482 
        2.45437         18.4529         2.30048 
        2.46052         18.3937         2.28624 
        2.46665         18.3382         2.27215 
        2.47279         18.2352         2.25818 
        2.47892         18.2003         2.24432 
        2.48507         18.1204         2.23057 
         2.4912         18.0673         2.21696 
