# k  (h/Mpc)    P(k)  (Mpc/h)^3    P_linear(k)  (Mpc/h)^3
     0.00783031         14018.8           14056 
       0.013688         18105.6         18595.4 
       0.019231         19657.9         20000.3 
      0.0249154         19589.4         19659.6 
      0.0312784           17840         18182.1 
      0.0375637         15903.4         16381.4 
      0.0433917         14548.3         14831.5 
      0.0492413         13142.2         13557.1 
      0.0555754         12167.9         12499.7 
      0.0619321         10974.5         11674.3 
       0.067871         10473.7         10995.4 
      0.0738098         9896.74           10312 
      0.0800417         9149.46         9542.33 
      0.0862327         8335.86         8733.66 
      0.0921407         7637.82         7966.94 
      0.0982031         7047.47         7241.99 
       0.104506         6352.49            6601 
       0.110769         5901.57         6095.93 
       0.116806         5653.63         5722.34 
       0.122832         5315.71         5429.89 
       0.129052         5044.54         5172.46 
       0.135211         4908.43         4925.45 
       0.141259         4580.34         4668.17 
       0.147318         4273.02         4390.39 
       0.153489         4061.21         4096.26 
       0.159709         3920.73         3806.79 
       0.165845         3592.47         3546.42 
       0.171974         3497.66         3323.47 
       0.178125          3398.2         3140.18 
       0.184229         3136.71         2993.31 
        0.19034         3100.91         2870.72 
       0.196428          3024.3         2760.65 
       0.202534         2865.49         2651.77 
       0.208729         2807.07         2536.36 
       0.214876         2699.16         2415.72 
       0.220989          2583.6         2292.88 
       0.227147         2517.92         2171.92 
        0.23329         2424.33          2059.7 
       0.239377         2414.86         1960.68 
       0.245482         2313.36         1874.68 
       0.251667         2230.58          1799.8 
       0.257832         2197.29         1734.25 
       0.263955         2112.21         1674.27 
       0.270079         2072.32         1616.03 
        0.27624         1987.04         1557.06 
       0.282372         1973.57         1497.36 
        0.28843          1933.8         1438.15 
       0.294538          1858.1          1379.7 
       0.300721         1831.58         1323.57 
        0.30691         1784.69         1271.67 
       0.313033         1727.85         1225.11 
       0.319153         1714.24         1183.04 
       0.325316         1694.08         1144.34 
        0.33145         1661.89         1108.34 
       0.337538         1615.33         1074.04 
       0.343633         1582.42         1040.34 
       0.349808         1560.54         1006.59 
       0.355968         1526.76         973.319 
       0.362074         1492.93         941.154 
       0.368217         1488.12         910.041 
       0.374374         1464.14         880.508 
       0.380519         1421.25         852.903 
       0.386598         1420.37         827.375 
       0.392688         1383.56         803.418 
        0.39888         1362.55         780.354 
       0.405048         1338.02         758.344 
       0.411186         1328.77         737.143 
       0.417313         1330.21         716.482 
       0.423458         1290.77         696.254 
       0.429607         1259.12         676.568 
       0.435692          1251.9         657.724 
       0.441815         1228.73         639.512 
       0.447964         1221.12         622.063 
       0.454126         1204.31         605.402 
       0.460267          1192.1         589.583 
       0.466387         1174.74         574.517 
        0.47254         1152.81         559.954 
       0.478662         1143.51         545.945 
       0.484765         1133.89         532.403 
       0.490885         1120.13         519.213 
       0.497035         1102.67         506.328 
       0.503198         1102.45         493.815 
       0.509342         1081.97          481.76 
       0.515458         1061.63         470.193 
       0.521598          1064.8         459.005 
       0.527764         1038.61         448.186 
       0.533884         1028.85         437.844 
           0.54         1022.19         427.867 
       0.546137         1012.07         418.176 
       0.552299         1002.58         408.735 
       0.558452         995.564         399.586 
       0.564573         989.753         390.748 
       0.570708         978.642         382.148 
       0.576825         960.172         373.826 
       0.582926         958.076         365.776 
       0.589034         949.498         357.965 
       0.595184         937.256         350.351 
       0.601379         922.928         342.923 
       0.607522         913.838         335.782 
       0.613639         912.262         328.879 
       0.619772         901.611         322.154 
       0.625918         894.661         315.604 
       0.632068         886.622         309.232 
       0.638161           874.1         303.092 
         0.6443         867.589         297.074 
       0.650464         862.511         291.198 
       0.656582         856.823         285.525 
       0.662703         843.784         280.005 
       0.668861         836.525         274.605 
       0.675024          831.62         269.349 
       0.681124         818.559         264.289 
       0.687237         819.612         259.351 
       0.693381         804.191         254.519 
       0.699536         806.624         249.802 
       0.705665         796.152         245.225 
       0.711789         792.539         240.767 
       0.717957         784.555         236.391 
        0.72409         777.824         232.149 
       0.730186         773.813         228.039 
       0.736317         766.054         224.008 
       0.742472         755.805         220.063 
       0.748622         753.722         216.218 
        0.75476         744.728         212.476 
       0.760888         740.899         208.829 
       0.767043          738.43         205.254 
       0.773185         733.441         201.772 
       0.779291          724.64         198.391 
       0.785407          719.11         195.084 
       0.791564         714.223         191.832 
       0.797719         703.952         188.657 
       0.803834         704.149         185.576 
       0.809972         695.934         182.553 
       0.816124          691.86         179.592 
       0.822261         687.247         176.706 
       0.828378         684.757         173.894 
       0.834502         673.779         171.141 
       0.840667         672.232         168.431 
       0.846816         668.045         165.788 
       0.852925         663.453         163.219 
       0.859047         657.696         160.699 
       0.865192         653.541         158.226 
       0.871341          647.46         155.803 
       0.877463         646.588         153.443 
       0.883569         639.395         151.139 
       0.889708         632.213          148.87 
       0.895864         626.931         146.643 
       0.902008         625.797         144.467 
       0.908149         619.745         142.337 
       0.914301         617.377         140.246 
       0.920448         610.534         138.201 
       0.926574         607.189         136.204 
       0.932687         604.635         134.251 
       0.938823         598.114          132.33 
       0.944975         594.021         130.442 
       0.951105         590.731         128.599 
       0.957225         582.636         126.795 
       0.963368         583.722          125.02 
       0.969511         576.169         123.279 
       0.975621         573.626         121.581 
       0.981748         569.501         119.911 
       0.987916         566.739         118.263 
        0.99406         561.461         116.652 
        1.00019         556.528         115.075 
        1.00632         552.856         113.529 
        1.01246         549.601         112.009 
        1.01859         545.289          110.52 
        1.02471         543.658          109.06 
        1.03085         537.724         107.622 
        1.03698         536.876         106.213 
        1.04314         530.298         104.824 
        1.04929         529.265         103.463 
        1.05541         522.255         102.132 
        1.06154         520.958         100.822 
        1.06769         516.785         99.5329 
        1.07382          511.76         98.2708 
        1.07993         511.804         97.0338 
        1.08607         507.461         95.8132 
        1.09222         503.489         94.6125 
        1.09836         498.785         93.4341 
        1.10449         494.432         92.2774 
        1.11063         492.977         91.1392 
        1.11677          488.32         90.0208 
         1.1229         485.591         88.9232 
        1.12903         481.149         87.8433 
        1.13518         480.082         86.7806 
        1.14131         476.964         85.7362 
        1.14745          471.75         84.7098 
        1.15359         469.265         83.7002 
        1.15973         466.725         82.7069 
        1.16584         464.477         81.7342 
        1.17197          461.06         80.7761 
        1.17811         455.566         79.8305 
        1.18424         454.159         78.9029 
        1.19038         451.524         77.9876 
        1.19652         446.902         77.0873 
        1.20267         445.452         76.2014 
        1.20881         442.824         75.3297 
        1.21495         437.396         74.4733 
        1.22108         437.714         73.6304 
         1.2272         431.698         72.8027 
        1.23334         430.785          71.986 
        1.23949         426.324           71.18 
        1.24562         426.194         70.3887 
        1.25174         422.195         69.6108 
        1.25789         419.182         68.8424 
        1.26402         416.648         68.0871 
        1.27014         414.245         67.3451 
        1.27628         410.398         66.6121 
        1.28244         408.126         65.8887 
        1.28858         405.985         65.1771 
        1.29471         404.412         64.4778 
        1.30084         401.328         63.7894 
        1.30697         397.524         63.1102 
        1.31312         395.324           62.44 
        1.31925         392.598         61.7817 
        1.32537         390.868         61.1337 
        1.33151         387.142         60.4928 
        1.33765         384.575         59.8615 
        1.34378         382.202         59.2406 
        1.34992         379.137         58.6281 
        1.35606         376.699          58.023 
         1.3622         375.142         57.4276 
        1.36833         373.708         56.8421 
        1.37445         371.279         56.2651 
        1.38059         367.205         55.6944 
        1.38675         365.485         55.1303 
        1.39288         363.397         54.5764 
        1.39901         360.884         54.0304 
        1.40515         359.128         53.4907 
         1.4113         356.603         52.9587 
        1.41742         353.344          52.436 
        1.42355         352.487         51.9194 
         1.4297         350.523         51.4083 
        1.43585         345.838         50.9044 
        1.44198         345.665         50.4092 
        1.44809         343.326         49.9216 
        1.45423         340.417         49.4387 
        1.46036         338.964         48.9632 
        1.46649         336.778         48.4937 
        1.47263         333.521         48.0302 
        1.47877         332.734         47.5729 
        1.48491         329.315          47.121 
        1.49104         327.004         46.6759 
        1.49718         325.132         46.2363 
        1.50333         323.501         45.8017 
        1.50947         322.033         45.3737 
         1.5156         318.408         44.9518 
        1.52172          316.99         44.5353 
        1.52787         314.802         44.1233 
          1.534         313.955         43.7171 
        1.54013         311.295         43.3165 
        1.54627         309.089         42.9202 
        1.55241         307.851         42.5288 
        1.55855         305.033         42.1429 
        1.56467         303.255          41.763 
         1.5708         301.717         41.3866 
        1.57695         299.935         41.0144 
        1.58308         298.748         40.6476 
        1.58922         296.314         40.2851 
        1.59535         293.337         39.9272 
         1.6015         292.384         39.5732 
        1.60764         290.591         39.2237 
        1.61376         288.691         38.8794 
        1.61989         287.102          38.539 
        1.62604         285.017         38.2019 
        1.63218         283.257         37.8691 
        1.63831         281.805         37.5411 
        1.64444          279.81         37.2169 
        1.65059         278.594         36.8957 
        1.65673         276.327         36.5788 
        1.66285         274.725         36.2665 
        1.66898         273.205         35.9577 
        1.67512          270.69          35.652 
        1.68127         269.274         35.3496 
         1.6874         267.652         35.0514 
        1.69353         267.203         34.7569 
        1.69967         265.094          34.465 
        1.70581          262.64         34.1767 
        1.71193         261.703         33.8928 
        1.71806         259.597         33.6115 
        1.72421         258.329         33.3329 
        1.73035         256.167         33.0578 
        1.73649         254.773         32.7859 
        1.74262         253.591         32.5173 
        1.74876          251.59         32.2516 
        1.75489         250.517         31.9894 
        1.76101         248.951         31.7302 
        1.76715         247.183         31.4735 
        1.77329         245.092         31.2194 
        1.77943         243.758         30.9681 
        1.78557         242.816         30.7198 
        1.79171         241.384         30.4743 
        1.79785         239.405         30.2315 
        1.80399         238.485         29.9913 
        1.81012         236.713         29.7541 
        1.81625         235.347         29.5196 
        1.82239         233.676         29.2873 
        1.82853         232.793         29.0576 
        1.83466         231.025         28.8306 
        1.84078         229.567         28.6064 
        1.84692         228.427         28.3841 
        1.85306          226.76          28.164 
         1.8592          225.84         27.9465 
        1.86533         223.829         27.7315 
        1.87147         223.345         27.5185 
        1.87761         221.462         27.3077 
        1.88375         220.086         27.0994 
        1.88988         218.898         26.8934 
        1.89601         217.749         26.6896 
        1.90215          216.23         26.4877 
        1.90829         214.792         26.2879 
        1.91442         213.739         26.0903 
        1.92056         212.173         25.8949 
         1.9267         211.504         25.7013 
        1.93284         210.182         25.5095 
        1.93897         208.318         25.3201 
        1.94509           207.5         25.1331 
        1.95123         206.116         24.9475 
        1.95737         205.225         24.7636 
        1.96349         203.653         24.5821 
        1.96964          202.54         24.4019 
        1.97578         201.618         24.2234 
        1.98192         200.707         24.0471 
        1.98805         199.278         23.8725 
        1.99419         197.851         23.6997 
        2.00033          197.22         23.5285 
        2.00647         195.679         23.3591 
         2.0126         194.389         23.1916 
        2.01874         193.228         23.0255 
        2.02488         191.901         22.8609 
        2.03101         191.146         22.6983 
        2.03714         190.201         22.5374 
        2.04328         188.946         22.3779 
        2.04941         187.716           22.22 
        2.05554         186.957         22.0639 
        2.06167         185.296          21.909 
        2.06781         184.643         21.7556 
        2.07396         183.012         21.6034 
        2.08009         182.214          21.453 
        2.08622         181.535         21.3042 
        2.09237         179.983         21.1565 
        2.09851         179.359         21.0102 
        2.10464         178.405         20.8656 
        2.11077         177.248         20.7225 
        2.11691         176.153         20.5804 
        2.12305         175.004         20.4397 
        2.12918         174.062         20.3006 
        2.13531         173.003         20.1628 
        2.14145         172.152          20.026 
         2.1476         170.971         19.8903 
        2.15372         170.038         19.7565 
        2.15985         169.319         19.6239 
        2.16599          168.41         19.4921 
        2.17213         167.091         19.3616 
        2.17827         166.434         19.2324 
         2.1844         165.339         19.1045 
        2.19054         164.264         18.9778 
        2.19666         163.353         18.8523 
         2.2028          162.79         18.7279 
        2.20893         161.706         18.6046 
        2.21508         160.569         18.4823 
        2.22122         159.709          18.361 
        2.22736         158.767          18.241 
        2.23349         157.835         18.1222 
        2.23962         157.287         18.0044 
        2.24577         155.903         17.8875 
         2.2519         155.097         17.7718 
        2.25802           154.5         17.6574 
        2.26417         153.668         17.5436 
        2.27031         152.615         17.4308 
        2.27644         151.785         17.3192 
        2.28257         151.251         17.2087 
        2.28872         150.108         17.0989 
        2.29486         149.429         16.9902 
        2.30099         148.385         16.8825 
        2.30712          147.85         16.7758 
        2.31326         146.725         16.6698 
         2.3194         146.144         16.5649 
        2.32553         145.342          16.461 
        2.33166          144.68          16.358 
         2.3378          143.74         16.2558 
        2.34394         142.714         16.1544 
        2.35007         141.965         16.0541 
        2.35619         141.085         15.9547 
        2.36233         140.679          15.856 
        2.36848         139.863         15.7578 
        2.37462         139.195         15.6608 
        2.38075         138.308         15.5646 
        2.38689         137.221         15.4692 
        2.39303         136.856         15.3746 
        2.39916         136.001         15.2808 
        2.40529         135.166         15.1879 
        2.41143         134.531         15.0957 
        2.41757         133.465         15.0042 
         2.4237         133.143         14.9137 
        2.42983         132.381         14.8239 
        2.43598         131.446         14.7346 
        2.44211         130.945         14.6462 
        2.44823         130.138         14.5588 
        2.45437         129.645         14.4718 
        2.46052         128.811         14.3854 
        2.46665         128.124            14.3 
        2.47279          127.46         14.2152 
        2.47892         126.748         14.1311 
        2.48507         126.158         14.0476 
         2.4912         125.461         13.9649 
