# k  (h/Mpc)    Pcb(k)  (Mpc/h)^3    Pcb_linear(k)  (Mpc/h)^3
     0.00783031         8380.35         8425.47 
       0.013688         10215.9           10429 
       0.019231           10488         10607.5 
      0.0249154         9897.02          9879.8 
      0.0312784         8598.91         8658.27 
      0.0375637         7388.48         7484.57 
      0.0433917         6587.97         6611.02 
      0.0492413         5904.92         5966.79 
      0.0555754         5445.38         5467.06 
      0.0619321         4924.96         5069.26 
       0.067871         4634.66         4710.01 
      0.0738098         4279.96         4322.17 
      0.0800417         3865.32         3885.98 
      0.0862327         3428.86          3456.2 
      0.0921407         3077.86         3087.38 
      0.0982031         2803.16         2777.44 
       0.104506         2527.42          2535.9 
       0.110769         2365.15         2364.37 
       0.116806          2273.3         2239.75 
       0.122832         2136.24          2129.8 
       0.129052         2022.72         2011.02 
       0.135211         1925.76         1879.06 
       0.141259         1769.91         1738.64 
       0.147318         1618.23         1597.72 
       0.153489         1509.62         1466.32 
       0.159709         1431.68         1355.26 
       0.165845         1313.41         1269.34 
       0.171974         1284.05         1203.73 
       0.178125         1236.59         1151.14 
       0.184229         1154.09         1104.13 
        0.19034         1126.64         1055.89 
       0.196428         1084.01         1003.55 
       0.202534         1007.52         947.197 
       0.208729         980.182         889.128 
       0.214876         933.859          834.55 
       0.220989         872.931         786.398 
       0.227147         851.603         745.483 
        0.23329         819.591         711.799 
       0.239377         806.068         683.648 
       0.245482         766.318         658.232 
       0.251667         736.457         633.145 
       0.257832         726.628         607.455 
       0.263955         686.554          580.98 
       0.270079          661.86         554.163 
        0.27624         632.739         527.972 
       0.282372         618.215         503.723 
        0.28843         612.153         482.218 
       0.294538         581.154         463.082 
       0.300721         563.532          445.95 
        0.30691         554.054         430.344 
       0.313033         530.066         415.707 
       0.319153          521.19         401.326 
       0.325316         510.384         386.851 
        0.33145         498.111         372.489 
       0.337538         479.975         358.537 
       0.343633         465.496         345.169 
       0.349808         453.552         332.514 
       0.355968         444.477         320.867 
       0.362074         430.868         310.266 
       0.368217         426.905         300.367 
       0.374374         418.112         290.999 
       0.380519         401.357         282.007 
       0.386598         396.167         273.315 
       0.392688         386.827         264.784 
        0.39888         376.873         256.315 
       0.405048           369.9         248.155 
       0.411186         367.553         240.401 
       0.417313         361.454         233.067 
       0.423458         351.248         226.126 
       0.429607         342.348         219.576 
       0.435692         336.544         213.415 
       0.441815         330.735         207.469 
       0.447964          322.51         201.704 
       0.454126         318.175         196.101 
       0.460267         313.492         190.669 
       0.466387         307.587         185.424 
        0.47254         303.433         180.338 
       0.478662         295.506         175.477 
       0.484765         291.996         170.832 
       0.490885         288.434         166.378 
       0.497035         283.727         162.091 
       0.503198         281.667         157.964 
       0.509342         274.315         153.991 
       0.515458         270.615         150.165 
       0.521598         265.074         146.445 
       0.527764         261.931         142.823 
       0.533884         260.946         139.339 
           0.54         255.722         135.972 
       0.546137         250.037         132.711 
       0.552299         248.633         129.554 
       0.558452         244.408         126.514 
       0.564573         242.527         123.592 
       0.570708         237.754         120.759 
       0.576825         234.131         118.024 
       0.582926         231.813          115.38 
       0.589034         228.555         112.813 
       0.595184         226.885         110.304 
       0.601379         222.652         107.852 
       0.607522         218.439         105.494 
       0.613639         217.055         103.218 
       0.619772         215.299         101.006 
       0.625918         212.919         98.8584 
       0.632068         208.656         96.7744 
       0.638161         206.886         94.7702 
         0.6443         205.453         92.8087 
       0.650464         201.699         90.8951 
       0.656582         200.311         89.0485 
       0.662703         198.612         87.2526 
       0.668861         194.775         85.4962 
       0.675024         194.508         83.7875 
       0.681124         191.769         82.1436 
       0.687237         189.588         80.5414 
       0.693381          187.63         78.9751 
       0.699536         185.668         77.4483 
       0.705665         183.595         75.9688 
       0.711789         181.491         74.5297 
       0.717957         179.602         73.1181 
        0.72409          177.83         71.7512 
       0.730186         178.086         70.4278 
       0.736317         175.065         69.1309 
       0.742472         172.677         67.8621 
       0.748622         170.163         66.6267 
        0.75476         170.814          65.425 
       0.760888         168.723         64.2551 
       0.767043         166.015         63.1094 
       0.773185         164.566         61.9943 
       0.779291         162.506         60.9127 
       0.785407         161.548         59.8555 
       0.791564         160.231          58.817 
       0.797719          157.91         57.8038 
       0.803834         158.188          56.821 
       0.809972         156.767         55.8578 
       0.816124         154.398         54.9149 
       0.822261         153.133         53.9966 
       0.828378         152.885         53.1021 
       0.834502         150.528         52.2274 
       0.840667         150.047         51.3668 
       0.846816         148.279         50.5282 
       0.852925         146.994         49.7138 
       0.859047         145.686         48.9158 
       0.865192          144.95         48.1328 
       0.871341         143.243         47.3666 
       0.877463         142.116         46.6206 
       0.883569         141.994         45.8928 
       0.889708         140.661         45.1769 
       0.895864         139.299         44.4745 
       0.902008         137.911         43.7886 
       0.908149         136.307         43.1178 
       0.914301         136.242           42.46 
       0.920448         135.646         41.8166 
       0.926574         133.353         41.1889 
       0.932687          133.22         40.5756 
       0.938823         132.145         39.9726 
       0.944975         130.854         39.3805 
       0.951105         129.765         38.8027 
       0.957225         129.434         38.2375 
       0.963368         128.037         37.6817 
       0.969511         126.971         37.1371 
       0.975621         125.831         36.6062 
       0.981748         124.954         36.0843 
       0.987916          124.33         35.5695 
        0.99406         123.672         35.0667 
        1.00019         122.504         34.5746 
        1.00632         121.732         34.0925 
        1.01246         120.908         33.6189 
        1.01859         120.173         33.1551 
        1.02471         119.276         32.7007 
        1.03085         118.216         32.2533 
        1.03698         117.405         31.8152 
        1.04314         116.809         31.3835 
        1.04929         116.341         30.9608 
        1.05541         115.448         30.5477 
        1.06154         114.639         30.1411 
        1.06769         113.762         29.7414 
        1.07382         112.998         29.3502 
        1.07993         112.395          28.967 
        1.08607         111.518         28.5891 
        1.09222         111.047         28.2176 
        1.09836         109.998         27.8532 
        1.10449         109.356         27.4957 
        1.11063          108.65         27.1441 
        1.11677         107.962         26.7988 
         1.1229          107.12         26.4601 
        1.12903         106.678         26.1271 
        1.13518         105.985         25.7995 
        1.14131         105.317         25.4778 
        1.14745         104.735         25.1617 
        1.15359         103.532          24.851 
        1.15973         103.282         24.5454 
        1.16584         102.641         24.2464 
        1.17197         102.082         23.9519 
        1.17811         101.216         23.6615 
        1.18424         100.599         23.3767 
        1.19038         100.348         23.0959 
        1.19652         99.5921         22.8197 
        1.20267         98.9053         22.5482 
        1.20881         98.2932         22.2811 
        1.21495         97.7982         22.0187 
        1.22108         97.3137         21.7607 
         1.2272         96.4102         21.5074 
        1.23334          96.213         21.2576 
        1.23949         95.6013         21.0112 
        1.24562         94.7951         20.7694 
        1.25174         94.2486         20.5317 
        1.25789         93.9556         20.2971 
        1.26402         93.3508         20.0666 
        1.27014         92.8246         19.8402 
        1.27628         91.9774         19.6166 
        1.28244          91.853         19.3961 
        1.28858         91.0458         19.1792 
        1.29471         90.5655         18.9662 
        1.30084         89.8836         18.7566 
        1.30697          89.779         18.5499 
        1.31312         89.0646          18.346 
        1.31925         88.4677         18.1459 
        1.32537         88.0813         17.9489 
        1.33151         87.8732         17.7542 
        1.33765         87.0682         17.5625 
        1.34378         86.7483          17.374 
        1.34992         86.4145         17.1881 
        1.35606         85.7415         17.0046 
         1.3622         85.5475         16.8241 
        1.36833         84.6909         16.6466 
        1.37445          84.245         16.4719 
        1.38059         83.9747         16.2991 
        1.38675         83.1676         16.1283 
        1.39288         82.9977         15.9607 
        1.39901          82.243         15.7956 
        1.40515         82.0231         15.6325 
         1.4113         81.6253         15.4717 
        1.41742         81.0478         15.3138 
        1.42355          80.754         15.1578 
         1.4297         80.2286         15.0036 
        1.43585         79.7173         14.8515 
        1.44198         79.3336         14.7022 
        1.44809         78.7658         14.5551 
        1.45423         78.5385         14.4096 
        1.46036         77.9409         14.2663 
        1.46649         77.5433         14.1249 
        1.47263         77.2353         13.9853 
        1.47877         76.8377         13.8477 
        1.48491         76.3733         13.7117 
        1.49104         75.7434         13.5779 
        1.49718         75.5976         13.4457 
        1.50333         75.1593         13.3151 
        1.50947         74.9043         13.1865 
         1.5156         74.5687         13.0598 
        1.52172         73.9617         12.9347 
        1.52787         73.5091         12.8111 
          1.534         73.2139         12.6892 
        1.54013         73.0092          12.569 
        1.54627           72.32         12.4502 
        1.55241         72.0354         12.3329 
        1.55855         71.6562         12.2172 
        1.56467         71.0145         12.1034 
         1.5708         70.8937         11.9907 
        1.57695         70.5221         11.8793 
        1.58308         70.1482         11.7696 
        1.58922         69.8436         11.6611 
        1.59535         69.5968         11.5541 
         1.6015         69.3425         11.4483 
        1.60764         68.8877         11.3439 
        1.61376         68.4578          11.241 
        1.61989         67.9037         11.1394 
        1.62604         67.7399         11.0387 
        1.63218         67.4793         10.9394 
        1.63831          67.123         10.8416 
        1.64444         66.8793         10.7449 
        1.65059         66.4206         10.6491 
        1.65673         65.9736         10.5547 
        1.66285         65.6323         10.4616 
        1.66898         65.2275         10.3696 
        1.67512         64.9918         10.2786 
        1.68127         64.7729         10.1886 
         1.6874         64.3289         10.0999 
        1.69353         63.9995         10.0122 
        1.69967         63.7788         9.92543 
        1.70581         63.4087          9.8397 
        1.71193         63.0627         9.75532 
        1.71806         62.6904         9.67174 
        1.72421           62.52         9.58898 
        1.73035         62.2449         9.50729 
        1.73649         61.8117         9.42656 
        1.74262         61.3489         9.34685 
        1.74876         61.2428           9.268 
        1.75489         60.8092         9.19022 
        1.76101         60.5179         9.11337 
        1.76715         60.3998         9.03729 
        1.77329          59.873         8.96198 
        1.77943         59.7756         8.88751 
        1.78557         59.4854         8.81399 
        1.79171         59.1493         8.74129 
        1.79785         58.8356         8.66939 
        1.80399         58.5233         8.59833 
        1.81012         58.2581         8.52815 
        1.81625         57.9751         8.45879 
        1.82239         57.7141          8.3901 
        1.82853         57.3362         8.32221 
        1.83466         57.1417         8.25513 
        1.84078         56.8064         8.18887 
        1.84692         56.6208         8.12323 
        1.85306         56.2893         8.05823 
         1.8592          56.073         7.99404 
        1.86533         55.7245         7.93059 
        1.87147         55.4529         7.86776 
        1.87761         55.1772         7.80558 
        1.88375         54.8936         7.74414 
        1.88988         54.6531         7.68344 
        1.89601         54.3633         7.62335 
        1.90215         54.0317         7.56387 
        1.90829         53.8895         7.50504 
        1.91442         53.5488         7.44683 
        1.92056         53.3743          7.3893 
         1.9267         53.0953         7.33232 
        1.93284         52.8881          7.2759 
        1.93897         52.6013         7.22018 
        1.94509         52.2286         7.16517 
        1.95123         52.0368         7.11059 
        1.95737         51.8012         7.05654 
        1.96349         51.5863          7.0032 
        1.96964         51.2497         6.95025 
        1.97578         51.0205         6.89783 
        1.98192         50.7806         6.84605 
        1.98805         50.5134          6.7948 
        1.99419          50.308         6.74407 
        2.00033         50.1228         6.69384 
        2.00647         49.8603         6.64413 
         2.0126         49.5575         6.59502 
        2.01874         49.4512         6.54632 
        2.02488         49.1167         6.49808 
        2.03101         48.9343         6.45041 
        2.03714         48.7011         6.40326 
        2.04328         48.4379         6.35654 
        2.04941         48.1082         6.31031 
        2.05554         48.0517         6.26459 
        2.06167         47.8671         6.21925 
        2.06781         47.4616         6.17436 
        2.07396         47.2292         6.12984 
        2.08009         47.0723         6.08584 
        2.08622           46.87         6.04233 
        2.09237         46.6094         5.99915 
        2.09851         46.3935         5.95639 
        2.10464         46.1922         5.91412 
        2.11077         46.0042         5.87231 
        2.11691         45.7167         5.83081 
        2.12305         45.4751         5.78971 
        2.12918          45.313         5.74911 
        2.13531         45.0936         5.70889 
        2.14145         44.8568         5.66897 
         2.1476         44.7054         5.62938 
        2.15372         44.5625         5.59037 
        2.15985         44.2242         5.55169 
        2.16599         44.0362         5.51326 
        2.17213         43.8428         5.47524 
        2.17827         43.6599         5.43759 
         2.1844          43.369         5.40033 
        2.19054         43.2682          5.3634 
        2.19666         42.9846         5.32687 
         2.2028         42.7611         5.29065 
        2.20893         42.5862         5.25475 
        2.21508         42.3746         5.21915 
        2.22122         42.2004         5.18385 
        2.22736         41.9138         5.14897 
        2.23349         41.8296          5.1144 
        2.23962         41.6024         5.08014 
        2.24577         41.3939         5.04617 
         2.2519         41.1798         5.01255 
        2.25802         41.0512         4.97929 
        2.26417          40.842         4.94624 
        2.27031         40.6186         4.91346 
        2.27644         40.5517         4.88107 
        2.28257         40.1287         4.84898 
        2.28872         40.1974         4.81711 
        2.29486         39.9237         4.78554 
        2.30099         39.6616         4.75432 
        2.30712         39.5835         4.72336 
        2.31326         39.3018         4.69262 
         2.3194         39.1172         4.66218 
        2.32553         39.0121         4.63206 
        2.33166         38.7562         4.60221 
         2.3378         38.5712         4.57259 
        2.34394         38.4167         4.54322 
        2.35007         38.2493         4.51415 
        2.35619          38.148         4.48537 
        2.36233         37.8058         4.45678 
        2.36848         37.7661         4.42837 
        2.37462         37.5028         4.40027 
        2.38075         37.4194         4.37244 
        2.38689         37.2978         4.34483 
        2.39303           37.07         4.31747 
        2.39916         36.8287         4.29036 
        2.40529         36.7182          4.2635 
        2.41143         36.5257         4.23684 
        2.41757         36.4382          4.2104 
         2.4237          36.247         4.18423 
        2.42983         36.0224         4.15829 
        2.43598         35.8929          4.1325 
        2.44211         35.7258         4.10697 
        2.44823         35.5102         4.08171 
        2.45437         35.4133          4.0566 
        2.46052         35.1835         4.03168 
        2.46665           35.07         4.00701 
        2.47279         34.8319         3.98256 
        2.47892         34.7565         3.95829 
        2.48507          34.645          3.9342 
         2.4912         34.3934         3.91036 
