# k  (h/Mpc)    Pcb(k)  (Mpc/h)^3    Pcb_linear(k)  (Mpc/h)^3
     0.00783031         17020.6         17271.2 
       0.013688         20157.6         19959.9 
       0.019231         19039.9         18965.7 
      0.0249154         16055.1         16356.1 
      0.0312784         13001.7         13086.5 
      0.0375637         10482.3         10408.1 
      0.0433917            8605         8674.19 
      0.0492413         7597.59         7582.43 
      0.0555754         6750.67         6893.48 
      0.0619321          6498.2          6433.2 
       0.067871         5894.18         6002.61 
      0.0738098         5376.51         5467.11 
      0.0800417         4691.19         4795.55 
      0.0862327         4087.11         4101.86 
      0.0921407         3593.71         3510.44 
      0.0982031         3108.83          3039.3 
       0.104506         2871.34         2712.12 
       0.110769         2659.28         2524.11 
       0.116806         2532.85         2422.36 
       0.122832         2439.62         2343.99 
       0.129052         2275.35         2240.64 
       0.135211         2137.45         2092.79 
       0.141259         2007.37          1908.7 
       0.147318          1843.6         1709.89 
       0.153489         1653.35         1522.25 
       0.159709         1535.02          1370.5 
       0.165845         1457.23         1265.41 
       0.171974         1380.53         1199.61 
       0.178125         1321.67         1159.31 
       0.184229          1271.2         1128.11 
        0.19034         1199.71          1091.1 
       0.196428         1170.16         1040.32 
       0.202534         1120.06           975.3 
       0.208729         1052.28         901.478 
       0.214876         993.645         829.741 
       0.220989         948.715         767.837 
       0.227147         904.197         719.219 
        0.23329         865.272          684.43 
       0.239377         847.453         660.182 
       0.245482         792.225         641.031 
       0.251667         787.291          621.74 
       0.257832         755.118         599.066 
       0.263955         728.154         571.999 
       0.270079         697.169         541.553 
        0.27624          685.94         510.215 
       0.282372         657.066         481.069 
        0.28843         642.306         456.288 
       0.294538         608.153          436.01 
       0.300721         603.711         419.781 
        0.30691         577.569         406.429 
       0.313033         565.528          394.35 
       0.319153         549.395         381.961 
       0.325316         533.155         368.359 
        0.33145         517.119         353.679 
       0.337538         507.348         338.562 
       0.343633          492.14          323.72 
       0.349808         473.528         309.838 
       0.355968         468.983         297.578 
       0.362074         461.836         287.127 
       0.368217         447.931         277.975 
       0.374374         428.293         269.694 
       0.380519         426.529         261.784 
       0.386598         414.355         253.879 
       0.392688         411.138         245.758 
        0.39888         399.103         237.305 
       0.405048         390.649         228.916 
       0.411186         384.172         220.893 
       0.417313         376.249         213.403 
       0.423458         367.649         206.524 
       0.429607         362.239         200.288 
       0.435692         352.713         194.606 
       0.441815         348.927         189.212 
       0.447964         341.145         183.982 
       0.454126         333.766         178.802 
       0.460267         326.972         173.645 
       0.466387         322.655         168.559 
        0.47254         317.028         163.571 
       0.478662         315.513         158.793 
       0.484765         303.764          154.27 
       0.490885         300.705         150.014 
       0.497035         294.988         146.006 
       0.503198         290.789         142.199 
       0.509342         288.613         138.556 
       0.515458         284.642         135.043 
       0.521598         277.128         131.605 
       0.527764         273.617         128.216 
       0.533884         270.727          124.92 
           0.54         266.692         121.717 
       0.546137         265.178         118.622 
       0.552299         259.679         115.651 
       0.558452         258.141         112.814 
       0.564573         254.332         110.107 
       0.570708         249.001         107.499 
       0.576825         244.692         104.991 
       0.582926         242.369         102.569 
       0.589034         239.843         100.212 
       0.595184         237.684         97.8978 
       0.601379         233.573         95.6242 
       0.607522         230.455         93.4326 
       0.613639         228.747         91.3186 
       0.619772         224.184         89.2733 
       0.625918         223.006         87.2987 
       0.632068         219.112         85.3917 
       0.638161         218.033         83.5632 
         0.6443         214.539         81.7753 
       0.650464         212.313         80.0298 
       0.656582          209.64         78.3435 
       0.662703         209.354         76.7023 
       0.668861         205.776         75.0975 
       0.675024         202.894         73.5375 
       0.681124         201.427         72.0388 
       0.687237         199.182         70.5806 
       0.693381         195.947         69.1574 
       0.699536         194.208         67.7717 
       0.705665         192.412         66.4305 
       0.711789         190.848         65.1267 
       0.717957         189.964         63.8488 
        0.72409         187.656         62.6119 
       0.730186         185.206         61.4152 
       0.736317         183.131         60.2433 
       0.742472         181.737         59.0978 
       0.748622         180.246         57.9834 
        0.75476           178.4         56.9006 
       0.760888         176.421         55.8474 
       0.767043         175.974         54.8171 
       0.773185         174.272         53.8151 
       0.779291         170.949         52.8441 
       0.785407         170.541         51.8956 
       0.791564         168.896         50.9645 
       0.797719         166.247         50.0566 
       0.803834         165.265         49.1765 
       0.809972         164.558         48.3144 
       0.816124         163.488         47.4711 
       0.822261         162.181         46.6502 
       0.828378         160.402         45.8512 
       0.834502         159.587         45.0703 
       0.840667         157.575         44.3027 
       0.846816         156.226         43.5553 
       0.852925         155.418         42.8299 
       0.859047         154.119         42.1197 
       0.865192         152.103         41.4233 
       0.871341         150.946         40.7423 
       0.877463         149.928         40.0798 
       0.883569         149.506         39.4338 
       0.889708          147.64         38.7987 
       0.895864          146.26         38.1761 
       0.902008         145.244         37.5685 
       0.908149          144.78         36.9745 
       0.914301         142.847         36.3924 
       0.920448         141.995         35.8234 
       0.926574         140.855         35.2687 
       0.932687         140.794         34.7269 
       0.938823         138.784         34.1945 
       0.944975         137.943         33.6722 
       0.951105         137.042         33.1626 
       0.957225          136.09         32.6645 
       0.963368         134.049          32.175 
       0.969511         133.733         31.6955 
       0.975621         132.558         31.2283 
       0.981748         132.408         30.7694 
       0.987916         131.018         30.3169 
        0.99406         129.922         29.8752 
        1.00019          129.69         29.4432 
        1.00632         128.245         29.0201 
        1.01246         127.522         28.6048 
        1.01859         127.169         28.1982 
        1.02471         125.381         27.8001 
        1.03085         124.408         27.4083 
        1.03698         123.927         27.0248 
        1.04314         122.579         26.6471 
        1.04929         122.254         26.2775 
        1.05541          121.52         25.9165 
        1.06154         120.616         25.5613 
        1.06769         120.322         25.2122 
        1.07382         119.076         24.8709 
        1.07993          118.31         24.5366 
        1.08607         117.596         24.2072 
        1.09222         117.112         23.8834 
        1.09836         116.152          23.566 
        1.10449         114.919         23.2547 
        1.11063         114.275         22.9487 
        1.11677         113.664         22.6483 
         1.1229         112.879         22.3538 
        1.12903          112.45         22.0644 
        1.13518         111.889         21.7798 
        1.14131         110.738         21.5004 
        1.14745         110.511         21.2261 
        1.15359         109.573         20.9565 
        1.15973         108.999         20.6915 
        1.16584          108.02         20.4323 
        1.17197         107.472         20.1771 
        1.17811          106.82         19.9255 
        1.18424         106.425          19.679 
        1.19038         106.125         19.4359 
        1.19652         105.243          19.197 
        1.20267         104.409         18.9622 
        1.20881         103.871         18.7313 
        1.21495         102.971         18.5046 
        1.22108         102.593         18.2818 
         1.2272         101.685         18.0631 
        1.23334         101.288         17.8475 
        1.23949         100.738         17.6349 
        1.24562         100.044         17.4264 
        1.25174         99.6704         17.2215 
        1.25789         99.0007         17.0193 
        1.26402         97.8326         16.8208 
        1.27014         97.5496         16.6258 
        1.27628         97.2654         16.4334 
        1.28244         96.8739         16.2436 
        1.28858         96.2701         16.0571 
        1.29471         95.3913          15.874 
        1.30084         95.3169         15.6938 
        1.30697         94.2377         15.5162 
        1.31312         93.8516         15.3411 
        1.31925         93.2089         15.1693 
        1.32537         92.8422         15.0002 
        1.33151         92.1055         14.8331 
        1.33765         91.6343         14.6687 
        1.34378         91.2657         14.5071 
        1.34992         90.9176         14.3478 
        1.35606         90.3894         14.1905 
         1.3622         89.5737         14.0359 
        1.36833         89.1836          13.884 
        1.37445         88.7896         13.7344 
        1.38059         88.0069         13.5865 
        1.38675         87.4993         13.4405 
        1.39288         87.4291         13.2972 
        1.39901          86.847         13.1561 
        1.40515         86.1492         13.0166 
         1.4113          85.854         12.8793 
        1.41742         85.3059         12.7445 
        1.42355          84.866         12.6113 
         1.4297         84.5163         12.4796 
        1.43585         83.8763         12.3499 
        1.44198         83.4174         12.2225 
        1.44809         83.1539         12.0972 
        1.45423         82.7822         11.9731 
        1.46036         82.2318          11.851 
        1.46649         81.6727         11.7306 
        1.47263         81.0881         11.6117 
        1.47877         80.8299         11.4945 
        1.48491         80.2495         11.3788 
        1.49104           80.07         11.2649 
        1.49718         79.6201         11.1525 
        1.50333         79.2119         11.0414 
        1.50947         78.6884         10.9321 
         1.5156         78.3982         10.8244 
        1.52172         77.9363         10.7181 
        1.52787         77.4386         10.6131 
          1.534         77.0008         10.5096 
        1.54013         76.6403         10.4076 
        1.54627         76.3362         10.3067 
        1.55241         75.8286         10.2072 
        1.55855         75.4362         10.1091 
        1.56467         75.2182         10.0126 
         1.5708         74.6205         9.91708 
        1.57695         74.5363         9.82265 
        1.58308         74.0034         9.72967 
        1.58922         73.6949         9.63783 
        1.59535          73.339          9.5472 
         1.6015          72.855         9.45762 
        1.60764          72.495         9.36923 
        1.61376         72.2142          9.2822 
        1.61989         71.8242         9.19622 
        1.62604         71.4307         9.11113 
        1.63218         71.2816         9.02716 
        1.63831         70.4683         8.94445 
        1.64444          70.224         8.86275 
        1.65059         69.9186         8.78187 
        1.65673         69.4387         8.70208 
        1.66285          69.215         8.62351 
        1.66898         69.0006         8.54588 
        1.67512         68.3603         8.46905 
        1.68127         68.2188          8.3931 
         1.6874         67.7028         8.31824 
        1.69353         67.3992         8.24435 
        1.69967         67.1921         8.17117 
        1.70581         66.8284         8.09891 
        1.71193         66.4623         8.02779 
        1.71806         66.1677         7.95738 
        1.72421         65.7913         7.88767 
        1.73035         65.4797         7.81887 
        1.73649         65.2365         7.75091 
        1.74262         64.7555         7.68381 
        1.74876         64.5591         7.61746 
        1.75489          64.141         7.55202 
        1.76101         63.9027         7.48738 
        1.76715         63.3986          7.4234 
        1.77329         63.2058         7.36009 
        1.77943         62.8236         7.29749 
        1.78557          62.684         7.23571 
        1.79171          62.151         7.17463 
        1.79785          61.809         7.11424 
        1.80399         61.6284         7.05457 
        1.81012         61.3985         6.99565 
        1.81625         61.0677         6.93743 
        1.82239         60.7211         6.87979 
        1.82853         60.5105         6.82283 
        1.83466         60.2149         6.76656 
        1.84078         59.7724         6.71099 
        1.84692         59.5918         6.65596 
        1.85306         59.2633         6.60147 
         1.8592         59.0711         6.54767 
        1.86533         58.6799         6.49451 
        1.87147         58.2619         6.44187 
        1.87761         58.1422         6.38979 
        1.88375         57.8785         6.33835 
        1.88988          57.447         6.28753 
        1.89601         57.2943         6.23724 
        1.90215         56.8332         6.18746 
        1.90829         56.6245         6.13824 
        1.91442         56.4168         6.08956 
        1.92056         56.1246         6.04144 
         1.9267          55.849          5.9938 
        1.93284         55.5429         5.94664 
        1.93897         55.2906         5.90007 
        1.94509         55.1113          5.8541 
        1.95123         54.7698          5.8085 
        1.95737          54.466         5.76336 
        1.96349         54.2039         5.71881 
        1.96964         53.9083          5.6746 
        1.97578         53.6527         5.63084 
        1.98192         53.6241         5.58762 
        1.98805         53.1122         5.54486 
        1.99419         52.9205         5.50254 
        2.00033         52.7486         5.46063 
        2.00647          52.464         5.41918 
         2.0126         52.1328         5.37822 
        2.01874         51.8343         5.33763 
        2.02488         51.7214         5.29742 
        2.03101         51.4194         5.25769 
        2.03714         51.1066         5.21841 
        2.04328         50.8925         5.17949 
        2.04941         50.6511         5.14099 
        2.05554         50.4943         5.10291 
        2.06167         50.2827         5.06517 
        2.06781         49.8943          5.0278 
        2.07396         49.7124         4.99075 
        2.08009          49.542         4.95414 
        2.08622         49.1917         4.91794 
        2.09237         49.0481         4.88203 
        2.09851         48.9021         4.84647 
        2.10464         48.5277         4.81132 
        2.11077         48.3235         4.77656 
        2.11691         48.0399         4.74207 
        2.12305         47.8909         4.70791 
        2.12918         47.7043         4.67418 
        2.13531         47.3264         4.64077 
        2.14145         47.1359         4.60761 
         2.1476         46.9012         4.57473 
        2.15372         46.7254         4.54234 
        2.15985          46.527         4.51023 
        2.16599         46.2947         4.47834 
        2.17213         46.1315         4.44679 
        2.17827         45.8417         4.41555 
         2.1844         45.5993         4.38464 
        2.19054         45.3876         4.35401 
        2.19666         45.1996         4.32372 
         2.2028          45.097         4.29369 
        2.20893         44.7678         4.26393 
        2.21508         44.6278         4.23441 
        2.22122         44.4135         4.20517 
        2.22736         44.1778         4.17626 
        2.23349         43.9958         4.14763 
        2.23962         43.7209         4.11925 
        2.24577         43.4557         4.09112 
         2.2519         43.3489         4.06328 
        2.25802         43.1652         4.03575 
        2.26417         42.9207         4.00839 
        2.27031         42.7661         3.98126 
        2.27644         42.5073         3.95446 
        2.28257         42.3097         3.92791 
        2.28872         42.0648         3.90155 
        2.29486         41.9414         3.87544 
        2.30099         41.7536         3.84962 
        2.30712         41.5414         3.82402 
        2.31326         41.3073         3.79861 
         2.3194           41.11         3.77345 
        2.32553         40.9419         3.74856 
        2.33166         40.6786          3.7239 
         2.3378         40.5402         3.69943 
        2.34394          40.362         3.67517 
        2.35007         40.1897         3.65116 
        2.35619         39.9956          3.6274 
        2.36233         39.7766         3.60379 
        2.36848         39.6427         3.58034 
        2.37462         39.4195         3.55715 
        2.38075         39.3103         3.53418 
        2.38689         39.1131          3.5114 
        2.39303         38.8569         3.48882 
        2.39916         38.6845         3.46647 
        2.40529         38.5981         3.44431 
        2.41143         38.4048         3.42233 
        2.41757         38.2201         3.40053 
         2.4237         38.0035         3.37895 
        2.42983         37.8521         3.35757 
        2.43598         37.6761         3.33632 
        2.44211         37.5126         3.31528 
        2.44823          37.369         3.29447 
        2.45437         37.1501         3.27379 
        2.46052         37.0038         3.25326 
        2.46665         36.8396         3.23294 
        2.47279         36.6016         3.21281 
        2.47892         36.4925         3.19283 
        2.48507         36.3052           3.173 
         2.4912         36.2007         3.15338 
