# k  (h/Mpc)    Pcb(k)  (Mpc/h)^3    Pcb_linear(k)  (Mpc/h)^3
     0.00783031         11468.2         11624.4 
       0.013688         13534.2         13435.9 
       0.019231         12811.3         12767.5 
      0.0249154         10851.3         11011.1 
      0.0312784         8775.72         8810.14 
      0.0375637          7055.9          7007.1 
      0.0433917         5809.18         5839.82 
      0.0492413          5117.9         5104.83 
      0.0555754         4568.75         4641.03 
      0.0619321         4374.82         4331.16 
       0.067871         3988.66         4041.28 
      0.0738098         3635.54         3680.76 
      0.0800417         3174.18         3228.63 
      0.0862327         2754.89         2761.61 
      0.0921407          2405.5         2363.43 
      0.0982031         2076.98         2046.23 
       0.104506         1907.13         1825.96 
       0.110769          1767.2         1699.38 
       0.116806          1680.8         1630.88 
       0.122832         1625.24         1578.12 
       0.129052         1522.41         1508.53 
       0.135211         1428.39         1408.99 
       0.141259         1333.06         1285.05 
       0.147318         1216.91          1151.2 
       0.153489         1087.82         1024.87 
       0.159709         1003.34         922.707 
       0.165845         946.952         851.952 
       0.171974         893.736         807.655 
       0.178125         859.175         780.518 
       0.184229         830.265         759.513 
        0.19034         781.612         734.594 
       0.196428         762.275          700.41 
       0.202534           729.4         656.633 
       0.208729         680.961         606.932 
       0.214876         636.509         558.634 
       0.220989         605.298         516.956 
       0.227147         572.654         484.224 
        0.23329         547.622         460.801 
       0.239377         535.025         444.476 
       0.245482         500.583         431.583 
       0.251667         496.423         418.595 
       0.257832         478.028         403.329 
       0.263955         459.758         385.106 
       0.270079         438.883         364.608 
        0.27624         429.647         343.509 
       0.282372         411.231         323.887 
        0.28843         396.979         307.202 
       0.294538         376.827          293.55 
       0.300721         372.986         282.623 
        0.30691         355.962         273.634 
       0.313033         348.135         265.502 
       0.319153         335.625          257.16 
       0.325316         326.549         248.003 
        0.33145         315.102         238.119 
       0.337538         309.387         227.942 
       0.343633         298.306         217.949 
       0.349808         287.508         208.603 
       0.355968         283.251         200.349 
       0.362074         276.899         193.312 
       0.368217         268.904          187.15 
       0.374374         258.012         181.575 
       0.380519         255.088          176.25 
       0.386598         248.133         170.928 
       0.392688         244.793          165.46 
        0.39888         238.123         159.769 
       0.405048         231.847         154.121 
       0.411186         226.935         148.719 
       0.417313         222.205         143.677 
       0.423458         217.107         139.045 
       0.429607         212.634         134.847 
       0.435692         206.343         131.021 
       0.441815         204.309         127.389 
       0.447964         199.956         123.868 
       0.454126         192.548         120.381 
       0.460267         189.773         116.909 
       0.466387         187.302         113.485 
        0.47254          182.82         110.127 
       0.478662         182.029          106.91 
       0.484765         175.576         103.865 
       0.490885         173.103         100.999 
       0.497035         170.317         98.3009 
       0.503198         166.245         95.7374 
       0.509342         164.187         93.2846 
       0.515458          161.68         90.9197 
       0.521598         158.311         88.6047 
       0.527764         156.282         86.3235 
       0.533884         154.022          84.104 
           0.54         151.319         81.9479 
       0.546137          150.05         79.8638 
       0.552299         147.001         77.8634 
       0.558452         145.158         75.9535 
       0.564573         142.758         74.1314 
       0.570708         139.758         72.3752 
       0.576825         138.033         70.6865 
       0.582926         135.506         69.0559 
       0.589034         133.918         67.4692 
       0.595184          132.18         65.9111 
       0.601379         130.271         64.3804 
       0.607522          127.81         62.9049 
       0.613639         126.864         61.4816 
       0.619772         124.224         60.1045 
       0.625918         122.845         58.7751 
       0.632068         121.274         57.4912 
       0.638161         120.201         56.2601 
         0.6443         118.496         55.0564 
       0.650464         117.245         53.8812 
       0.656582         115.339         52.7459 
       0.662703         114.189         51.6409 
       0.668861         112.214         50.5605 
       0.675024         110.798         49.5102 
       0.681124         110.055         48.5011 
       0.687237         108.067         47.5194 
       0.693381         106.444         46.5612 
       0.699536         105.704         45.6283 
       0.705665         105.287         44.7253 
       0.711789         103.076         43.8475 
       0.717957          102.79         42.9871 
        0.72409         101.034         42.1544 
       0.730186         99.5336         41.3487 
       0.736317         98.8176         40.5596 
       0.742472         98.0279         39.7884 
       0.748622         96.9392         39.0382 
        0.75476         95.9713         38.3091 
       0.760888         94.6758         37.6001 
       0.767043         94.1496         36.9064 
       0.773185         93.0788         36.2318 
       0.779291         91.5717          35.578 
       0.785407         91.1089         34.9395 
       0.791564         90.3839         34.3126 
       0.797719         88.6137         33.7013 
       0.803834         88.2001         33.1088 
       0.809972         87.1678         32.5284 
       0.816124         86.7001         31.9606 
       0.822261         85.8808         31.4079 
       0.828378         85.1336           30.87 
       0.834502         84.5757         30.3442 
       0.840667          83.357         29.8274 
       0.846816         82.3455         29.3242 
       0.852925         81.8477         28.8359 
       0.859047         80.7984         28.3577 
       0.865192         80.2532         27.8888 
       0.871341         79.5812         27.4303 
       0.877463         78.5528         26.9843 
       0.883569         78.2681         26.5493 
       0.889708         77.5013         26.1218 
       0.895864         76.8327         25.7026 
       0.902008         76.1744         25.2935 
       0.908149         75.6941         24.8936 
       0.914301          74.899         24.5017 
       0.920448         74.3183         24.1187 
       0.926574         73.6524         23.7452 
       0.932687         73.5829         23.3804 
       0.938823         72.3756          23.022 
       0.944975         71.6174         22.6703 
       0.951105         71.2115         22.3272 
       0.957225         70.4762         21.9919 
       0.963368         69.9366         21.6623 
       0.969511         69.7498         21.3394 
       0.975621         69.3154         21.0249 
       0.981748         68.6439          20.716 
       0.987916          67.963         20.4113 
        0.99406         67.5074         20.1139 
        1.00019           67.07         19.8231 
        1.00632         66.4671         19.5382 
        1.01246         66.0816         19.2586 
        1.01859         65.2611         18.9849 
        1.02471         64.9522         18.7168 
        1.03085         64.3843          18.453 
        1.03698         64.1041         18.1949 
        1.04314         63.4965         17.9406 
        1.04929         63.0404         17.6917 
        1.05541         62.4053         17.4486 
        1.06154         62.3346         17.2095 
        1.06769         61.8915         16.9745 
        1.07382         61.5118         16.7447 
        1.07993         61.0689         16.5196 
        1.08607         60.5729         16.2978 
        1.09222         60.3335         16.0799 
        1.09836         59.7492         15.8661 
        1.10449         59.4888         15.6566 
        1.11063         58.8995         15.4505 
        1.11677         58.6247         15.2483 
         1.1229         58.0319         15.0501 
        1.12903         57.4805         14.8552 
        1.13518         57.6217         14.6636 
        1.14131         57.1965         14.4755 
        1.14745         56.6113         14.2908 
        1.15359         56.3603         14.1093 
        1.15973         55.8606         13.9308 
        1.16584         55.5083         13.7563 
        1.17197         55.1844         13.5845 
        1.17811          54.926         13.4152 
        1.18424         54.4392         13.2492 
        1.19038          54.131         13.0855 
        1.19652         53.9146         12.9247 
        1.20267         53.2927         12.7666 
        1.20881         53.1363         12.6111 
        1.21495         52.7014         12.4585 
        1.22108         52.5889         12.3085 
         1.2272         51.9162         12.1612 
        1.23334         51.7275         12.0161 
        1.23949         51.5648          11.873 
        1.24562         51.0811         11.7326 
        1.25174         50.8879         11.5946 
        1.25789         50.6914         11.4585 
        1.26402         50.2961         11.3248 
        1.27014          49.896         11.1936 
        1.27628         49.6137          11.064 
        1.28244         49.3276         10.9363 
        1.28858         49.1465         10.8107 
        1.29471         48.9102         10.6874 
        1.30084         48.6053         10.5661 
        1.30697          48.254         10.4465 
        1.31312         47.9414         10.3286 
        1.31925         47.6969         10.2129 
        1.32537         47.5258         10.0991 
        1.33151          47.044         9.98662 
        1.33765         46.8976         9.87591 
        1.34378         46.6068          9.7671 
        1.34992         46.3536         9.65985 
        1.35606         46.1166         9.55399 
         1.3622         45.7662          9.4499 
        1.36833         45.5642         9.34761 
        1.37445         45.3364         9.24688 
        1.38059         44.9936         9.14734 
        1.38675         44.7688         9.04902 
        1.39288         44.5418         8.95253 
        1.39901         44.3709          8.8575 
        1.40515         44.0374         8.76364 
         1.4113         43.8668         8.67117 
        1.41742         43.7411         8.58039 
        1.42355         43.3492         8.49074 
         1.4297         43.2311          8.4021 
        1.43585          42.987         8.31476 
        1.44198         42.6379           8.229 
        1.44809         42.5307          8.1446 
        1.45423         42.2878         8.06108 
        1.46036         42.1176         7.97887 
        1.46649         41.8966         7.89778 
        1.47263         41.5868         7.81776 
        1.47877         41.3607         7.73887 
        1.48491         41.3609         7.66094 
        1.49104         40.9975         7.58426 
        1.49718         40.6034         7.50856 
        1.50333         40.6152         7.43378 
        1.50947         40.3999         7.36016 
         1.5156         40.1259         7.28766 
        1.52172         40.0206         7.21612 
        1.52787         39.8941         7.14541 
          1.534         39.5604         7.07573 
        1.54013          39.355         7.00704 
        1.54627         39.2676         6.93915 
        1.55241           38.85         6.87214 
        1.55855         38.7857         6.80611 
        1.56467         38.4383         6.74113 
         1.5708          38.495         6.67682 
        1.57695         38.2497         6.61325 
        1.58308          37.992         6.55065 
        1.58922          37.895         6.48881 
        1.59535         37.7663          6.4278 
         1.6015         37.4313         6.36748 
        1.60764         37.2205         6.30797 
        1.61376         37.0758         6.24938 
        1.61989         36.8878         6.19149 
        1.62604         36.7251          6.1342 
        1.63218         36.6983         6.07767 
        1.63831         36.4055         6.02199 
        1.64444         36.2344         5.96697 
        1.65059         36.0826         5.91252 
        1.65673         35.8615          5.8588 
        1.66285         35.6448          5.8059 
        1.66898         35.5273         5.75364 
        1.67512         35.3106         5.70192 
        1.68127         35.1407         5.65078 
         1.6874          34.993         5.60038 
        1.69353          34.809         5.55063 
        1.69967         34.6673         5.50136 
        1.70581         34.6043         5.45271 
        1.71193         34.4289         5.40483 
        1.71806           34.08         5.35742 
        1.72421         34.0281         5.31049 
        1.73035         33.8733         5.26417 
        1.73649         33.5885         5.21842 
        1.74262         33.5095         5.17324 
        1.74876         33.4054         5.12857 
        1.75489          33.245         5.08451 
        1.76101         33.0914         5.04099 
        1.76715         32.9355         4.99791 
        1.77329         32.8017         4.95529 
        1.77943         32.6475         4.91314 
        1.78557         32.4523         4.87155 
        1.79171          32.323         4.83043 
        1.79785         32.1551         4.78977 
        1.80399         32.1169         4.74959 
        1.81012         31.8542         4.70993 
        1.81625         31.7091         4.67073 
        1.82239         31.6135         4.63192 
        1.82853         31.4433         4.59357 
        1.83466         31.2611         4.55569 
        1.84078         31.0533         4.51828 
        1.84692         30.9843         4.48122 
        1.85306         30.8011         4.44454 
         1.8592         30.6495         4.40832 
        1.86533          30.559         4.37252 
        1.87147         30.4799         4.33709 
        1.87761         30.3206         4.30202 
        1.88375         30.1628         4.26739 
        1.88988         30.0794         4.23318 
        1.89601         29.9139         4.19932 
        1.90215         29.8019          4.1658 
        1.90829         29.7143         4.13266 
        1.91442         29.5285         4.09989 
        1.92056         29.3634         4.06749 
         1.9267         29.2558         4.03541 
        1.93284         29.0547         4.00366 
        1.93897         29.0327         3.97231 
        1.94509         28.8357         3.94136 
        1.95123         28.7371         3.91066 
        1.95737          28.568         3.88027 
        1.96349         28.4726         3.85027 
        1.96964         28.3956         3.82051 
        1.97578         28.1712         3.79105 
        1.98192         28.1032         3.76195 
        1.98805         28.0296         3.73316 
        1.99419         27.8686         3.70466 
        2.00033         27.7332         3.67645 
        2.00647         27.6044         3.64854 
         2.0126         27.4473         3.62097 
        2.01874         27.4202         3.59364 
        2.02488         27.2837         3.56657 
        2.03101         27.1497         3.53982 
        2.03714         27.0241         3.51337 
        2.04328         26.8917         3.48717 
        2.04941          26.784         3.46125 
        2.05554         26.6667         3.43561 
        2.06167         26.5817          3.4102 
        2.06781         26.4001         3.38504 
        2.07396         26.3474          3.3601 
        2.08009         26.2547         3.33545 
        2.08622          26.075         3.31108 
        2.09237         25.9881          3.2869 
        2.09851         25.8707         3.26296 
        2.10464         25.7789         3.23929 
        2.11077          25.704         3.21589 
        2.11691         25.5462         3.19267 
        2.12305           25.44         3.16967 
        2.12918         25.3296         3.14696 
        2.13531         25.2611         3.12447 
        2.14145         25.1522         3.10214 
         2.1476         25.0282         3.08001 
        2.15372         24.9078          3.0582 
        2.15985         24.8137         3.03658 
        2.16599         24.7591         3.01511 
        2.17213         24.6716         2.99387 
        2.17827         24.4568         2.97284 
         2.1844         24.4073         2.95202 
        2.19054         24.3149          2.9314 
        2.19666         24.2079         2.91101 
         2.2028         24.0609         2.89079 
        2.20893         24.0216         2.87075 
        2.21508         23.9477         2.85088 
        2.22122         23.7637         2.83119 
        2.22736         23.7227         2.81173 
        2.23349         23.6003         2.79246 
        2.23962         23.5039         2.77335 
        2.24577         23.4014         2.75441 
         2.2519         23.3256         2.73567 
        2.25802         23.2005         2.71713 
        2.26417         23.1408         2.69871 
        2.27031         23.0203         2.68044 
        2.27644         22.8983          2.6624 
        2.28257         22.8415         2.64453 
        2.28872         22.7569         2.62678 
        2.29486         22.6748          2.6092 
        2.30099         22.5369         2.59182 
        2.30712         22.4692         2.57458 
        2.31326          22.421         2.55748 
         2.3194         22.3066         2.54053 
        2.32553         22.2105         2.52377 
        2.33166         22.1053         2.50717 
         2.3378         21.9852          2.4907 
        2.34394          21.909         2.47436 
        2.35007         21.8486          2.4582 
        2.35619         21.7297          2.4422 
        2.36233          21.662          2.4263 
        2.36848         21.5756         2.41052 
        2.37462         21.4652          2.3949 
        2.38075         21.4183         2.37944 
        2.38689         21.3281          2.3641 
        2.39303         21.2164          2.3489 
        2.39916         21.1244         2.33385 
        2.40529          21.064         2.31893 
        2.41143         20.9751         2.30413 
        2.41757         20.8977         2.28946 
         2.4237         20.7924         2.27493 
        2.42983         20.6641         2.26054 
        2.43598         20.6187         2.24623 
        2.44211         20.5339         2.23206 
        2.44823         20.4619         2.21805 
        2.45437         20.3556         2.20413 
        2.46052         20.2535         2.19031 
        2.46665         20.2237         2.17663 
        2.47279         20.1444         2.16307 
        2.47892         20.0651         2.14962 
        2.48507         19.9364         2.13627 
         2.4912         19.9264         2.12306 
