# k  (h/Mpc)    Pcb(k)  (Mpc/h)^3    Pcb_linear(k)  (Mpc/h)^3
     0.00783031          688.34         695.088 
       0.013688         858.759         860.972 
       0.019231         864.719         864.993 
      0.0249154         785.813         789.381 
      0.0312784         673.675         673.703 
      0.0375637         570.916         569.272 
      0.0433917         496.468         496.573 
      0.0492413         447.695         447.025 
      0.0555754         410.355          411.69 
      0.0619321         385.553         384.268 
       0.067871         356.734         357.725 
      0.0738098         325.695         326.714 
      0.0800417             289         290.371 
      0.0862327         254.237         254.504 
      0.0921407         224.857         224.583 
      0.0982031         200.602         200.738 
       0.104506         184.635         183.597 
       0.110769         173.293         172.583 
       0.116806         164.839         165.033 
       0.122832         158.238         157.931 
       0.129052          148.83           149.2 
       0.135211         138.262         138.606 
       0.141259         127.318         127.007 
       0.147318         116.318         115.518 
       0.153489         105.783         105.245 
       0.159709         97.7679         97.1213 
       0.165845         92.5747         91.3558 
       0.171974         87.8314         87.3104 
       0.178125         84.7412         84.1494 
       0.184229         81.8034         81.0891 
        0.19034          77.639         77.5475 
       0.196428         73.9393         73.3858 
       0.202534         69.8609         68.7864 
       0.208729         64.9577         64.1133 
       0.214876         60.5336         59.9011 
       0.220989         57.5249         56.4029 
       0.227147         54.2938         53.6309 
        0.23329         52.1425         51.4808 
       0.239377         50.4783         49.7116 
       0.245482         48.4786         48.0337 
       0.251667         47.0423         46.2324 
       0.257832         45.0007         44.2574 
       0.263955         42.9639         42.1583 
       0.270079          40.902         40.0405 
        0.27624         39.1745          38.032 
       0.282372         37.4038         36.2539 
        0.28843          35.738         34.7542 
       0.294538         34.4278         33.4726 
       0.300721         33.4917         32.3426 
        0.30691         32.2052         31.2904 
       0.313033         31.1881         30.2568 
       0.319153         29.8219         29.1908 
       0.325316         29.1327         28.0854 
        0.33145         27.9569         26.9808 
       0.337538         26.9437         25.9227 
       0.343633         25.8763          24.935 
       0.349808         25.0582         24.0304 
       0.355968         24.2559         23.2205 
       0.362074         23.4797         22.4936 
       0.368217         22.8043         21.8118 
       0.374374         22.0487         21.1519 
       0.380519         21.4829         20.5014 
       0.386598         20.8726          19.858 
       0.392688         20.3079         19.2194 
        0.39888         19.6315          18.587 
       0.405048          19.072         17.9847 
       0.411186         18.5367         17.4226 
       0.417313         17.9213         16.9004 
       0.423458         17.4634         16.4113 
       0.429607         16.9532         15.9508 
       0.435692         16.4843          15.515 
       0.441815         16.0917         15.0885 
       0.447964         15.7646         14.6692 
       0.454126         15.2178         14.2583 
       0.460267          14.857         13.8587 
       0.466387         14.4008         13.4737 
        0.47254         14.1002         13.1034 
       0.478662          13.793         12.7531 
       0.484765         13.3887         12.4206 
       0.490885         13.0673         12.1026 
       0.497035           12.87         11.7964 
       0.503198         12.5163         11.5006 
       0.509342         12.2215         11.2139 
       0.515458         11.9159         10.9359 
       0.521598         11.6673         10.6646 
       0.527764         11.3691         10.4007 
       0.533884          11.168         10.1475 
           0.54         10.9033         9.90361 
       0.546137         10.6836         9.66798 
       0.552299         10.4663         9.44052 
       0.558452         10.1645         9.22194 
       0.564573         10.0063          9.0118 
       0.570708         9.79859         8.80751 
       0.576825           9.552         8.60954 
       0.582926         9.38415         8.41762 
       0.589034         9.12004         8.23108 
       0.595184         8.96986         8.04898 
       0.601379         8.77368         7.87134 
       0.607522         8.64181         7.70072 
       0.613639         8.51313         7.53611 
       0.619772         8.28178         7.37616 
       0.625918         8.17976         7.22077 
       0.632068         8.04686         7.06998 
       0.638161         7.85183         6.92494 
         0.6443          7.6926         6.78296 
       0.650464         7.52945         6.64439 
       0.656582         7.44749          6.5106 
       0.662703         7.30629         6.38039 
       0.668861         7.18301         6.25299 
       0.675024         7.03151         6.12902 
       0.681124         6.89954         6.00977 
       0.687237         6.79905         5.89358 
       0.693381         6.68949         5.78004 
       0.699536         6.51249          5.6694 
       0.705665         6.42588          5.5622 
       0.711789         6.32405          5.4579 
       0.717957         6.20808         5.35559 
        0.72409          6.1033         5.25646 
       0.730186         6.00919         5.16044 
       0.736317         5.94723          5.0663 
       0.742472         5.84722         4.97418 
       0.748622         5.73819         4.88447 
        0.75476         5.61951         4.79719 
       0.760888         5.54327         4.71221 
       0.767043         5.47847         4.62899 
       0.773185         5.36418         4.54799 
       0.779291         5.30649         4.46943 
       0.785407         5.21716         4.39263 
       0.791564         5.13995         4.31718 
       0.797719         5.06134         4.24357 
       0.803834         5.00464         4.17216 
       0.809972         4.93658         4.10216 
       0.816124         4.83983         4.03363 
       0.822261         4.75664         3.96687 
       0.828378         4.70011         3.90184 
       0.834502         4.65465         3.83823 
       0.840667         4.55709         3.77565 
       0.846816         4.48755         3.71465 
       0.852925         4.44866         3.65541 
       0.859047         4.38466         3.59735 
       0.865192          4.3304         3.54037 
       0.871341         4.27693         3.48461 
       0.877463          4.2186         3.43031 
       0.883569         4.14312         3.37733 
       0.889708         4.08052         3.32521 
       0.895864         4.03451         3.27406 
       0.902008         3.97569         3.22412 
       0.908149         3.93278         3.17526 
       0.914301         3.86139         3.12734 
       0.920448         3.81418         3.08047 
       0.926574         3.76068         3.03474 
       0.932687          3.7207         2.99004 
       0.938823         3.67925         2.94609 
       0.944975         3.62884         2.90294 
       0.951105         3.58875         2.86081 
       0.957225          3.5645         2.81961 
       0.963368         3.51089         2.77908 
       0.969511         3.46041         2.73935 
       0.975621         3.40948         2.70063 
       0.981748         3.37918         2.66256 
       0.987916         3.33616         2.62499 
        0.99406         3.28176          2.5883 
        1.00019         3.24937         2.55239 
        1.00632         3.21319          2.5172 
        1.01246         3.17689         2.48262 
        1.01859         3.14005         2.44876 
        1.02471             3.1         2.41558 
        1.03085          3.0669         2.38291 
        1.03698          3.0255         2.35091 
        1.04314         2.99807         2.31938 
        1.04929         2.95926          2.2885 
        1.05541         2.92693         2.25831 
        1.06154         2.89521          2.2286 
        1.06769         2.86993         2.19938 
        1.07382         2.82985         2.17079 
        1.07993         2.79082         2.14278 
        1.08607          2.7767         2.11515 
        1.09222         2.73979         2.08799 
        1.09836         2.71833         2.06134 
        1.10449          2.6869         2.03519 
        1.11063         2.65129         2.00947 
        1.11677         2.62454         1.98421 
         1.1229         2.59685         1.95944 
        1.12903         2.56587         1.93506 
        1.13518         2.54562         1.91109 
        1.14131         2.50951         1.88754 
        1.14745         2.47169         1.86441 
        1.15359         2.46041         1.84166 
        1.15973         2.42427         1.81929 
        1.16584         2.41366         1.79739 
        1.17197         2.38553         1.77582 
        1.17811           2.364         1.75455 
        1.18424         2.34536         1.73369 
        1.19038          2.3173         1.71311 
        1.19652         2.29308         1.69287 
        1.20267         2.27486         1.67297 
        1.20881         2.24574         1.65339 
        1.21495          2.2295         1.63416 
        1.22108          2.2076         1.61524 
         1.2272          2.1927         1.59667 
        1.23334         2.16405         1.57835 
        1.23949         2.14105         1.56027 
        1.24562         2.12752         1.54253 
        1.25174         2.10236          1.5251 
        1.25789         2.08528         1.50788 
        1.26402         2.05916         1.49097 
        1.27014          2.0406         1.47435 
        1.27628          2.0323         1.45795 
        1.28244         2.00325         1.44176 
        1.28858         1.98917         1.42584 
        1.29471         1.96895          1.4102 
        1.30084         1.94912         1.39481 
        1.30697         1.93753         1.37963 
        1.31312         1.90751         1.36465 
        1.31925         1.89931         1.34995 
        1.32537         1.88221         1.33548 
        1.33151         1.86786         1.32117 
        1.33765         1.84604         1.30708 
        1.34378         1.82835         1.29323 
        1.34992         1.82092         1.27957 
        1.35606         1.79557         1.26608 
         1.3622         1.78658         1.25281 
        1.36833         1.76946         1.23976 
        1.37445          1.7508         1.22691 
        1.38059         1.73887          1.2142 
        1.38675         1.73257         1.20164 
        1.39288         1.70939         1.18932 
        1.39901         1.69384         1.17717 
        1.40515         1.68152         1.16516 
         1.4113         1.66758         1.15333 
        1.41742         1.65394         1.14171 
        1.42355         1.64723         1.13023 
         1.4297         1.62539         1.11887 
        1.43585         1.61568         1.10768 
        1.44198          1.6071         1.09668 
        1.44809         1.58575         1.08586 
        1.45423         1.57463         1.07514 
        1.46036         1.56225         1.06459 
        1.46649         1.54917         1.05417 
        1.47263         1.53581         1.04389 
        1.47877         1.52145         1.03375 
        1.48491         1.51025         1.02373 
        1.49104         1.50014         1.01386 
        1.49718         1.49118         1.00412 
        1.50333         1.47603        0.994492 
        1.50947         1.46798         0.98501 
         1.5156         1.45469        0.975667 
        1.52172         1.44315        0.966445 
        1.52787         1.43054        0.957326 
          1.534         1.42286        0.948335 
        1.54013         1.40829        0.939471 
        1.54627         1.39653        0.930704 
        1.55241         1.38582        0.922049 
        1.55855         1.37735        0.913517 
        1.56467         1.36872        0.905117 
         1.5708         1.35337          0.8968 
        1.57695         1.34824        0.888576 
        1.58308         1.33771        0.880475 
        1.58922         1.32766         0.87247 
        1.59535         1.31788        0.864568 
         1.6015         1.30823        0.856753 
        1.60764         1.30062         0.84904 
        1.61376         1.28947        0.841444 
        1.61989         1.28026        0.833935 
        1.62604         1.26974        0.826501 
        1.63218         1.26521        0.819164 
        1.63831         1.25152        0.811933 
        1.64444         1.24245        0.804788 
        1.65059         1.23648        0.797712 
        1.65673         1.22551        0.790729 
        1.66285         1.21649         0.78385 
        1.66898         1.21161        0.777052 
        1.67512          1.1987        0.770321 
        1.68127         1.19109        0.763665 
         1.6874         1.18625        0.757102 
        1.69353         1.17385        0.750621 
        1.69967         1.16579        0.744201 
        1.70581         1.16185         0.73786 
        1.71193         1.15149        0.731616 
        1.71806         1.14617        0.725432 
        1.72421         1.13682        0.719308 
        1.73035         1.12774        0.713262 
        1.73649          1.1224        0.707287 
        1.74262         1.11455        0.701385 
        1.74876         1.10673        0.695548 
        1.75489         1.09678        0.689789 
        1.76101         1.09078        0.684097 
        1.76715         1.08429        0.678463 
        1.77329         1.07778        0.672885 
        1.77943         1.06868        0.667368 
        1.78557          1.0615        0.661922 
        1.79171         1.05775        0.656536 
        1.79785         1.04911        0.651209 
        1.80399         1.04284        0.645942 
        1.81012         1.03761        0.640742 
        1.81625         1.02886        0.635601 
        1.82239         1.02321        0.630509 
        1.82853         1.01257        0.625476 
        1.83466         1.00905        0.620503 
        1.84078         1.00163         0.61559 
        1.84692         0.99806        0.610722 
        1.85306        0.990546        0.605902 
         1.8592         0.98545        0.601141 
        1.86533        0.977924        0.596435 
        1.87147         0.97272        0.591773 
        1.87761        0.966477         0.58716 
        1.88375          0.9578        0.582602 
        1.88988        0.955237        0.578097 
        1.89601         0.94754        0.573638 
        1.90215        0.941883        0.569223 
        1.90829        0.935281        0.564856 
        1.91442        0.929811        0.560535 
        1.92056        0.925257        0.556264 
         1.9267        0.918818        0.552033 
        1.93284        0.915581        0.547844 
        1.93897        0.908842        0.543707 
        1.94509        0.903175        0.539621 
        1.95123        0.896763        0.535567 
        1.95737        0.892387        0.531553 
        1.96349        0.885728         0.52759 
        1.96964        0.881786        0.523656 
        1.97578        0.876177        0.519761 
        1.98192        0.872965        0.515913 
        1.98805        0.865229        0.512105 
        1.99419        0.862246        0.508334 
        2.00033        0.858924          0.5046 
        2.00647         0.85082        0.500905 
         2.0126        0.847336        0.497253 
        2.01874        0.842256        0.493632 
        2.02488        0.838354        0.490045 
        2.03101        0.831088          0.4865 
        2.03714        0.825439        0.482993 
        2.04328        0.823995        0.479517 
        2.04941        0.818084        0.476079 
        2.05554        0.813223        0.472677 
        2.06167        0.808267        0.469303 
        2.06781        0.803414        0.465963 
        2.07396        0.798105         0.46265 
        2.08009        0.794902        0.459376 
        2.08622        0.789532        0.456137 
        2.09237        0.788125        0.452923 
        2.09851        0.783441         0.44974 
        2.10464        0.779468        0.446592 
        2.11077         0.77392        0.443479 
        2.11691        0.768966        0.440389 
        2.12305        0.765567        0.437328 
        2.12918        0.761233        0.434304 
        2.13531         0.75714        0.431308 
        2.14145        0.752923        0.428334 
         2.1476        0.748118        0.425385 
        2.15372        0.745835        0.422478 
        2.15985        0.740105        0.419595 
        2.16599         0.73587        0.416732 
        2.17213        0.732532        0.413898 
        2.17827        0.730374        0.411092 
         2.1844        0.726391        0.408314 
        2.19054        0.723075        0.405561 
        2.19666        0.717976        0.402838 
         2.2028        0.714255        0.400137 
        2.20893        0.710455         0.39746 
        2.21508        0.708081        0.394805 
        2.22122        0.701464        0.392173 
        2.22736        0.698462         0.38957 
        2.23349        0.698011        0.386992 
        2.23962        0.692671        0.384436 
        2.24577         0.68795        0.381901 
         2.2519         0.68481        0.379393 
        2.25802        0.681836        0.376911 
        2.26417        0.676988        0.374445 
        2.27031        0.674383        0.371999 
        2.27644          0.6713        0.369581 
        2.28257         0.66837        0.367186 
        2.28872        0.664406        0.364807 
        2.29486        0.661176         0.36245 
        2.30099        0.657294        0.360118 
        2.30712         0.65471        0.357807 
        2.31326        0.651725        0.355511 
         2.3194        0.649778        0.353238 
        2.32553        0.646196        0.350988 
        2.33166        0.642441        0.348758 
         2.3378        0.638977        0.346545 
        2.34394        0.634552        0.344351 
        2.35007        0.632284        0.342179 
        2.35619        0.629964        0.340029 
        2.36233        0.625209        0.337892 
        2.36848        0.623521        0.335769 
        2.37462         0.61966        0.333669 
        2.38075        0.618472        0.331588 
        2.38689        0.614496        0.329524 
        2.39303        0.612576        0.327479 
        2.39916         0.60739        0.325452 
        2.40529        0.606311        0.323443 
        2.41143        0.603457         0.32145 
        2.41757        0.600378        0.319472 
         2.4237        0.597769        0.317515 
        2.42983        0.595234        0.315575 
        2.43598        0.592196        0.313646 
        2.44211        0.589992        0.311736 
        2.44823        0.587001        0.309847 
        2.45437        0.583858        0.307968 
        2.46052        0.582786        0.306103 
        2.46665        0.578933        0.304257 
        2.47279        0.575971        0.302426 
        2.47892        0.572644         0.30061 
        2.48507         0.57076        0.298807 
         2.4912        0.568209        0.297023 
