# k  (h/Mpc)    P(k)  (Mpc/h)^3    P_linear(k)  (Mpc/h)^3
     0.00783031         413.933         418.328 
       0.013688         515.941         517.848 
       0.019231         519.781          520.15 
      0.0249154         472.831         474.628 
      0.0312784         405.174         405.046 
      0.0375637         343.219         342.245 
      0.0433917         298.696         298.531 
      0.0492413         269.224         268.738 
      0.0555754         247.001         247.493 
      0.0619321         231.694         231.005 
       0.067871         214.645         215.047 
      0.0738098         195.983         196.404 
      0.0800417         173.983         174.555 
      0.0862327         152.954         152.993 
      0.0921407         135.193         135.006 
      0.0982031         120.669         120.672 
       0.104506         110.897         110.367 
       0.110769         104.107         103.746 
       0.116806         99.1155         99.2075 
       0.122832         95.0842         94.9381 
       0.129052         89.5179         89.6891 
       0.135211         83.1518         83.3207 
       0.141259         76.4836         76.3485 
       0.147318         69.8144         69.4417 
       0.153489         63.5131         63.2661 
       0.159709         58.6591         58.3829 
       0.165845          55.468         54.9169 
       0.171974         52.6878         52.4851 
       0.178125         50.8227         50.5849 
       0.184229         49.0462         48.7453 
        0.19034         46.6328         46.6164 
       0.196428         44.3321         44.1147 
       0.202534         41.8156         41.3497 
       0.208729         38.8857         38.5405 
       0.214876         36.2496         36.0084 
       0.220989         34.3801         33.9055 
       0.227147         32.4872         32.2392 
        0.23329         31.1919         30.9467 
       0.239377         30.1698         29.8832 
       0.245482         29.0306         28.8745 
       0.251667         28.1171         27.7916 
       0.257832         26.8814         26.6044 
       0.263955         25.6596         25.3426 
       0.270079         24.4097         24.0696 
        0.27624         23.3288         22.8622 
       0.282372         22.2621         21.7932 
        0.28843          21.274         20.8918 
       0.294538         20.4961         20.1214 
       0.300721         19.9078         19.4421 
        0.30691         19.1621         18.8096 
       0.313033         18.5511         18.1883 
       0.319153         17.7663         17.5474 
       0.325316         17.3085         16.8829 
        0.33145         16.6145          16.219 
       0.337538         15.9863         15.5829 
       0.343633         15.3507         14.9892 
       0.349808         14.8527         14.4454 
       0.355968         14.3681         13.9584 
       0.362074         13.9056         13.5216 
       0.368217          13.502         13.1117 
       0.374374         13.0502          12.715 
       0.380519         12.7072         12.3241 
       0.386598          12.341         11.9372 
       0.392688           11.99         11.5533 
        0.39888         11.5863         11.1732 
       0.405048         11.2415         10.8112 
       0.411186          10.915         10.4732 
       0.417313         10.5591         10.1593 
       0.423458         10.2872         9.86532 
       0.429607         9.97973         9.58847 
       0.435692         9.70813         9.32652 
       0.441815          9.4624         9.07012 
       0.447964         9.25536         8.81811 
       0.454126         8.94921         8.57105 
       0.460267         8.72051         8.33084 
       0.466387         8.45924         8.09942 
        0.47254         8.26416         7.87682 
       0.478662         8.07237         7.66623 
       0.484765          7.8408         7.46637 
       0.490885         7.65051         7.27521 
       0.497035         7.52168         7.09118 
       0.503198         7.31306         6.91332 
       0.509342         7.14424         6.74101 
       0.515458         6.96079         6.57387 
       0.521598         6.80591         6.41079 
       0.527764         6.62667         6.25213 
       0.533884         6.50593         6.09998 
           0.54         6.34711         5.95335 
       0.546137         6.21316         5.81169 
       0.552299         6.07796         5.67497 
       0.558452         5.91186         5.54357 
       0.564573         5.80878         5.41725 
       0.570708         5.68356         5.29446 
       0.576825         5.54441         5.17544 
       0.582926         5.44444         5.06007 
       0.589034         5.29201         4.94794 
       0.595184         5.19668         4.83847 
       0.601379         5.08312         4.73169 
       0.607522         5.00166         4.62913 
       0.613639         4.92038         4.53017 
       0.619772         4.78796         4.43402 
       0.625918         4.71441         4.34061 
       0.632068         4.63587         4.24997 
       0.638161         4.52624         4.16278 
         0.6443         4.43481         4.07743 
       0.650464         4.33722         3.99414 
       0.656582         4.27889         3.91371 
       0.662703         4.19704         3.83543 
       0.668861         4.12919         3.75885 
       0.675024         4.03963         3.68433 
       0.681124         3.95804         3.61264 
       0.687237         3.90064          3.5428 
       0.693381         3.83217         3.47455 
       0.699536         3.73432         3.40804 
       0.705665         3.67758         3.34359 
       0.711789         3.62005          3.2809 
       0.717957         3.54972          3.2194 
        0.72409         3.49021         3.15981 
       0.730186          3.4297         3.10209 
       0.736317         3.39334          3.0455 
       0.742472         3.33286         2.99012 
       0.748622         3.26801         2.93619 
        0.75476         3.20236         2.88373 
       0.760888         3.15271         2.83264 
       0.767043         3.11766         2.78262 
       0.773185         3.05217         2.73393 
       0.779291         3.01183          2.6867 
       0.785407         2.96114         2.64054 
       0.791564         2.91698         2.59518 
       0.797719         2.87489         2.55093 
       0.803834         2.83497         2.50801 
       0.809972         2.79055         2.46593 
       0.816124         2.73905         2.42473 
       0.822261          2.6906          2.3846 
       0.828378          2.6573         2.34551 
       0.834502         2.62748         2.30727 
       0.840667         2.57128         2.26965 
       0.846816         2.53345         2.23298 
       0.852925         2.50956         2.19737 
       0.859047         2.47168         2.16247 
       0.865192         2.43422         2.12822 
       0.871341         2.40134          2.0947 
       0.877463         2.37236         2.06206 
       0.883569         2.32896         2.03021 
       0.889708         2.29463         1.99888 
       0.895864         2.26475         1.96813 
       0.902008         2.22842         1.93811 
       0.908149         2.20181         1.90874 
       0.914301         2.16002         1.87993 
       0.920448         2.13477         1.85176 
       0.926574         2.10397         1.82427 
       0.932687         2.07719          1.7974 
       0.938823         2.05725         1.77098 
       0.944975         2.02719         1.74504 
       0.951105         2.00278         1.71972 
       0.957225         1.98444         1.69494 
       0.963368         1.95478         1.67058 
       0.969511         1.92488          1.6467 
       0.975621         1.89532         1.62342 
       0.981748         1.87915         1.60054 
       0.987916         1.85248         1.57796 
        0.99406         1.82392          1.5559 
        1.00019         1.80768         1.53431 
        1.00632         1.77998         1.51316 
        1.01246           1.759         1.49238 
        1.01859          1.7399         1.47202 
        1.02471         1.71537         1.45208 
        1.03085          1.6991         1.43243 
        1.03698         1.67409          1.4132 
        1.04314         1.65707         1.39424 
        1.04929          1.6343         1.37568 
        1.05541         1.61755         1.35753 
        1.06154         1.59637         1.33967 
        1.06769         1.57829         1.32211 
        1.07382         1.55966         1.30492 
        1.07993         1.53615         1.28809 
        1.08607         1.52749         1.27148 
        1.09222          1.5053         1.25515 
        1.09836         1.49424         1.23913 
        1.10449         1.47622         1.22341 
        1.11063         1.45417         1.20795 
        1.11677         1.43671         1.19277 
         1.1229         1.42225         1.17787 
        1.12903         1.40444         1.16322 
        1.13518         1.39308         1.14881 
        1.14131         1.37367         1.13465 
        1.14745         1.35087         1.12075 
        1.15359         1.34361         1.10707 
        1.15973         1.32292         1.09362 
        1.16584         1.31818         1.08046 
        1.17197         1.30094          1.0675 
        1.17811         1.28836         1.05471 
        1.18424         1.27813         1.04217 
        1.19038         1.25995          1.0298 
        1.19652          1.2449         1.01763 
        1.20267         1.23683         1.00567 
        1.20881         1.21885        0.993901 
        1.21495         1.21066         0.98234 
        1.22108         1.19767        0.970967 
         1.2272         1.18822        0.959802 
        1.23334          1.1727        0.948789 
        1.23949         1.16016        0.937924 
        1.24562          1.1504         0.92726 
        1.25174         1.13855         0.91678 
        1.25789         1.12799        0.906432 
        1.26402         1.11257        0.896263 
        1.27014          1.1022        0.886276 
        1.27628         1.09676        0.876412 
        1.28244         1.08007        0.866682 
        1.28858         1.07124        0.857113 
        1.29471          1.0622        0.847711 
        1.30084         1.04988         0.83846 
        1.30697         1.04046        0.829334 
        1.31312         1.02594        0.820332 
        1.31925         1.02023        0.811493 
        1.32537         1.01132        0.802795 
        1.33151         1.00293        0.794194 
        1.33765        0.991943        0.785725 
        1.34378        0.979815        0.777397 
        1.34992        0.974814        0.769186 
        1.35606        0.962712        0.761076 
         1.3622        0.955779        0.753099 
        1.36833        0.945913        0.745256 
        1.37445        0.934598         0.73753 
        1.38059        0.927038        0.729891 
        1.38675         0.92508        0.722342 
        1.39288        0.912012        0.714931 
        1.39901        0.904158        0.707629 
        1.40515        0.896715        0.700412 
         1.4113        0.887283        0.693301 
        1.41742        0.879535        0.686315 
        1.42355        0.876378        0.679414 
         1.4297        0.864119        0.672588 
        1.43585        0.857386        0.665858 
        1.44198        0.853779        0.659248 
        1.44809        0.841962         0.65274 
        1.45423        0.835616        0.646297 
        1.46036        0.828685        0.639953 
        1.46649        0.821661        0.633692 
        1.47263        0.813813        0.627511 
        1.47877         0.80606        0.621416 
        1.48491        0.799624        0.615392 
        1.49104        0.791918        0.609462 
        1.49718        0.787532        0.603606 
        1.50333        0.779837        0.597818 
        1.50947        0.774428        0.592118 
         1.5156        0.766841        0.586501 
        1.52172        0.760677        0.580958 
        1.52787        0.753623        0.575476 
          1.534        0.748977        0.570071 
        1.54013        0.740371        0.564743 
        1.54627        0.734971        0.559473 
        1.55241        0.728531         0.55427 
        1.55855        0.722444        0.549141 
        1.56467        0.719282        0.544092 
         1.5708        0.710971        0.539092 
        1.57695        0.707324        0.534148 
        1.58308        0.701077        0.529279 
        1.58922        0.695364        0.524466 
        1.59535        0.689769        0.519716 
         1.6015        0.684517        0.515019 
        1.60764         0.67982        0.510382 
        1.61376        0.672433        0.505816 
        1.61989        0.668884        0.501302 
        1.62604        0.663076        0.496834 
        1.63218        0.659478        0.492423 
        1.63831        0.653189        0.488076 
        1.64444        0.647894        0.483781 
        1.65059        0.643566        0.479527 
        1.65673           0.638         0.47533 
        1.66285        0.633371        0.471195 
        1.66898        0.630113        0.467108 
        1.67512        0.623135        0.463062 
        1.68127        0.618571        0.459061 
         1.6874        0.615986        0.455116 
        1.69353        0.609892         0.45122 
        1.69967        0.605696        0.447361 
        1.70581        0.601357        0.443549 
        1.71193        0.596916        0.439795 
        1.71806        0.592523        0.436078 
        1.72421        0.588242        0.432397 
        1.73035        0.583116        0.428762 
        1.73649        0.580425         0.42517 
        1.74262        0.575982        0.421623 
        1.74876        0.571027        0.418113 
        1.75489        0.566826        0.414652 
        1.76101        0.562432         0.41123 
        1.76715        0.558758        0.407843 
        1.77329        0.554935         0.40449 
        1.77943        0.550553        0.401174 
        1.78557         0.54701          0.3979 
        1.79171         0.54369        0.394662 
        1.79785        0.539515         0.39146 
        1.80399        0.535683        0.388294 
        1.81012        0.532451        0.385168 
        1.81625        0.528313        0.382078 
        1.82239        0.525533        0.379017 
        1.82853        0.519672        0.375992 
        1.83466        0.517388        0.373002 
        1.84078         0.51305        0.370049 
        1.84692        0.510673        0.367123 
        1.85306        0.507261        0.364225 
         1.8592        0.503956        0.361363 
        1.86533        0.500737        0.358534 
        1.87147        0.497019        0.355732 
        1.87761         0.49421        0.352959 
        1.88375        0.489155        0.350219 
        1.88988         0.48723        0.347511 
        1.89601        0.483353         0.34483 
        1.90215         0.48075        0.342176 
        1.90829        0.476897        0.339551 
        1.91442           0.474        0.336954 
        1.92056        0.471014        0.334386 
         1.9267         0.46745        0.331843 
        1.93284        0.464852        0.329325 
        1.93897        0.461948        0.326838 
        1.94509         0.45916        0.324382 
        1.95123         0.45539        0.321945 
        1.95737        0.453233        0.319532 
        1.96349        0.449722        0.317149 
        1.96964        0.447053        0.314785 
        1.97578        0.443936        0.312443 
        1.98192        0.442345         0.31013 
        1.98805        0.438965        0.307841 
        1.99419        0.435949        0.305574 
        2.00033        0.433909         0.30333 
        2.00647        0.430842        0.301108 
         2.0126        0.427788        0.298913 
        2.01874        0.425572        0.296737 
        2.02488        0.423307         0.29458 
        2.03101        0.419777        0.292449 
        2.03714        0.416974        0.290341 
        2.04328        0.415261        0.288252 
        2.04941        0.412563        0.286185 
        2.05554        0.409845         0.28414 
        2.06167        0.407748        0.282112 
        2.06781         0.40395        0.280104 
        2.07396        0.401616        0.278112 
        2.08009        0.399529        0.276144 
        2.08622        0.397357        0.274197 
        2.09237         0.39608        0.272265 
        2.09851        0.393471        0.270351 
        2.10464        0.390905        0.268459 
        2.11077         0.38827        0.266588 
        2.11691        0.385776         0.26473 
        2.12305        0.383602         0.26289 
        2.12918        0.381454        0.261073 
        2.13531        0.379001        0.259272 
        2.14145        0.377147        0.257484 
         2.1476        0.374812        0.255711 
        2.15372        0.373396        0.253964 
        2.15985        0.370326        0.252231 
        2.16599        0.367777         0.25051 
        2.17213        0.366351        0.248806 
        2.17827        0.364638        0.247119 
         2.1844        0.362698        0.245449 
        2.19054        0.360333        0.243795 
        2.19666        0.357639        0.242157 
         2.2028        0.356334        0.240534 
        2.20893        0.354342        0.238925 
        2.21508        0.351838        0.237328 
        2.22122        0.349437        0.235746 
        2.22736        0.347949        0.234182 
        2.23349        0.346486        0.232632 
        2.23962        0.344641        0.231096 
        2.24577        0.341686        0.229572 
         2.2519        0.340779        0.228064 
        2.25802        0.338307        0.226572 
        2.26417        0.336408         0.22509 
        2.27031        0.334455        0.223619 
        2.27644        0.333175        0.222166 
        2.28257        0.331035        0.220726 
        2.28872        0.329313        0.219296 
        2.29486        0.327301        0.217879 
        2.30099        0.325705        0.216478 
        2.30712        0.324377        0.215088 
        2.31326        0.321989        0.213708 
         2.3194        0.321707        0.212341 
        2.32553        0.319751        0.210989 
        2.33166        0.317902        0.209649 
         2.3378        0.316267        0.208318 
        2.34394        0.313485        0.206999 
        2.35007        0.312291        0.205694 
        2.35619        0.310621        0.204401 
        2.36233        0.308385        0.203116 
        2.36848        0.307535         0.20184 
        2.37462        0.305528        0.200578 
        2.38075        0.304754        0.199327 
        2.38689        0.302557        0.198087 
        2.39303        0.301707        0.196857 
        2.39916        0.299212        0.195639 
        2.40529        0.297945        0.194431 
        2.41143        0.296681        0.193233 
        2.41757        0.294999        0.192044 
         2.4237         0.29358        0.190868 
        2.42983        0.292124        0.189701 
        2.43598        0.291125        0.188542 
        2.44211        0.289477        0.187394 
        2.44823        0.288371        0.186258 
        2.45437         0.28588        0.185128 
        2.46052        0.285321        0.184007 
        2.46665        0.283493        0.182897 
        2.47279         0.28199        0.181797 
        2.47892        0.280595        0.180705 
        2.48507        0.279317        0.179622 
         2.4912        0.278116        0.178549 
