# k  (h/Mpc)    P(k)  (Mpc/h)^3    P_linear(k)  (Mpc/h)^3
     0.00783031            1963         1980.07 
       0.013688         2449.96         2483.11 
       0.019231         2532.34         2548.26 
      0.0249154         2393.89         2392.71 
      0.0312784         2110.03         2114.48 
      0.0375637         1832.93         1841.22 
      0.0433917         1636.77         1635.14 
      0.0492413         1477.02         1481.48 
      0.0555754         1363.22          1360.9 
      0.0619321         1248.98         1263.92 
       0.067871         1171.26            1176 
      0.0738098         1078.96         1081.19 
      0.0800417         975.932         974.738 
      0.0862327         868.662         869.885 
      0.0921407         779.181         779.749 
      0.0982031         707.185         703.702 
       0.104506         641.801         644.018 
       0.110769         599.996         601.166 
       0.116806         573.552         569.648 
       0.122832         541.033         541.674 
       0.129052         513.295         511.593 
       0.135211         483.262          478.46 
       0.141259         445.942         443.442 
       0.147318         408.401         408.424 
       0.153489         378.653         375.771 
       0.159709         353.869         348.071 
       0.165845          327.45         326.473 
       0.171974         316.456         309.784 
       0.178125          302.68         296.241 
       0.184229         287.307         284.075 
        0.19034         277.663         271.656 
       0.196428         264.593         258.321 
       0.202534         247.054         244.091 
       0.208729         236.272         229.507 
       0.214876         224.491         215.817 
       0.220989         208.996           203.7 
       0.227147         202.421         193.329 
        0.23329         194.255         184.702 
       0.239377         187.873         177.415 
       0.245482          179.75         170.795 
       0.251667          172.08         164.276 
       0.257832         168.163         157.653 
       0.263955         159.176         150.885 
       0.270079         152.558         144.075 
        0.27624         145.212         137.441 
       0.282372         139.794         131.292 
        0.28843         136.948         125.812 
       0.294538          131.05         120.897 
       0.300721         125.478         116.461 
        0.30691         122.964         112.396 
       0.313033          118.23          108.58 
       0.319153         115.937         104.843 
       0.325316         110.802         101.104 
        0.33145          107.02         97.4148 
       0.337538          103.62         93.8436 
       0.343633         100.496         90.4237 
       0.349808         97.0452         87.1781 
       0.355968         94.0652         84.1782 
       0.362074          92.185         81.4313 
       0.368217         89.5396         78.8554 
       0.374374         87.6025         76.4107 
       0.380519         83.9486         74.0654 
       0.386598         81.6368         71.8051 
       0.392688         79.2396         69.5933 
        0.39888         77.6815         67.4045 
       0.405048          75.768         65.2987 
       0.411186         73.8034         63.2955 
       0.417313          71.748         61.3981 
       0.423458         69.7236         59.5963 
       0.429607         68.5246         57.8899 
       0.435692         67.3431         56.2821 
       0.441815         64.8608         54.7288 
       0.447964         62.9563          53.223 
       0.454126         61.8497         51.7616 
       0.460267         61.2303         50.3479 
       0.466387         59.5227         48.9839 
        0.47254         58.6498         47.6615 
       0.478662         56.7558         46.3972 
       0.484765         55.6369         45.1876 
       0.490885         54.0784         44.0249 
       0.497035         53.3286         42.9042 
       0.503198         52.0965         41.8241 
       0.509342         50.7396         40.7845 
       0.515458         50.1121         39.7831 
       0.521598         48.9321         38.8095 
       0.527764         48.2763         37.8625 
       0.533884         47.2733         36.9522 
           0.54         46.3019         36.0722 
       0.546137         44.9471          35.219 
       0.552299         44.2155         34.3924 
       0.558452         43.3205         33.5958 
       0.564573          42.957         32.8298 
       0.570708         41.7891         32.0866 
       0.576825         41.2624         31.3688 
       0.582926         40.5883         30.6747 
       0.589034         39.8041         30.0007 
       0.595184         39.2939         29.3423 
       0.601379         38.2456         28.6988 
       0.607522           37.68         28.0799 
       0.613639         37.1089         27.4821 
       0.619772          36.478         26.9008 
       0.625918          35.778          26.336 
       0.632068         35.4832         25.7877 
       0.638161         34.7654         25.2603 
         0.6443         34.2566          24.744 
       0.650464         33.4224         24.2403 
       0.656582         33.2317         23.7542 
       0.662703         32.8489         23.2812 
       0.668861         31.9898         22.8186 
       0.675024         31.6405         22.3683 
       0.681124         31.4228          21.935 
       0.687237         30.7929         21.5126 
       0.693381          30.193         21.0995 
       0.699536         30.0594         20.6967 
       0.705665         29.5055         20.3064 
       0.711789         28.9958         19.9266 
       0.717957         28.4408         19.5539 
        0.72409         28.1934          19.193 
       0.730186         28.0608         18.8435 
       0.736317         27.4985         18.5008 
       0.742472         27.1606         18.1656 
       0.748622         26.7424          17.839 
        0.75476         26.1047         17.5213 
       0.760888         26.0325         17.2119 
       0.767043         25.6014         16.9089 
       0.773185         25.3417         16.6139 
       0.779291         25.0872         16.3276 
       0.785407         24.6706         16.0478 
       0.791564         24.5248         15.7729 
       0.797719          24.009         15.5046 
       0.803834         23.8962         15.2443 
       0.809972         23.4585         14.9891 
       0.816124         23.2136         14.7393 
       0.822261         22.9719         14.4959 
       0.828378          22.731         14.2587 
       0.834502         22.5082         14.0268 
       0.840667         22.2724         13.7985 
       0.846816          21.795         13.5761 
       0.852925         21.7381           13.36 
       0.859047         21.4896         13.1482 
       0.865192         21.1929         12.9403 
       0.871341         20.9268         12.7369 
       0.877463         20.7126         12.5388 
       0.883569         20.6013         12.3455 
       0.889708         20.2739         12.1552 
       0.895864         20.0258         11.9686 
       0.902008            19.8         11.7863 
       0.908149         19.5641          11.608 
       0.914301         19.4696          11.433 
       0.920448         19.1865         11.2619 
       0.926574         19.0503          11.095 
       0.932687         18.7991         10.9318 
       0.938823         18.5701         10.7713 
       0.944975         18.4311         10.6138 
       0.951105          18.235         10.4599 
       0.957225         18.1293         10.3095 
       0.963368          17.856         10.1614 
       0.969511         17.6851         10.0164 
       0.975621         17.5277         9.87495 
       0.981748         17.3099         9.73591 
       0.987916         17.1975          9.5987 
        0.99406         17.0134         9.46468 
        1.00019         16.8866          9.3335 
        1.00632         16.7458         9.20496 
        1.01246         16.5837         9.07866 
        1.01859          16.392         8.95496 
        1.02471         16.2185         8.83373 
        1.03085         16.1598         8.71435 
        1.03698          16.011         8.59744 
        1.04314         15.8183         8.48221 
        1.04929         15.6294         8.36937 
        1.05541         15.5677         8.25905 
        1.06154         15.4362         8.15048 
        1.06769         15.3157          8.0437 
        1.07382         15.0886         7.93921 
        1.07993           14.97         7.83682 
        1.08607         14.9067         7.73584 
        1.09222         14.7244         7.63654 
        1.09836         14.6597         7.53912 
        1.10449         14.4711         7.44353 
        1.11063         14.4159          7.3495 
        1.11677         14.3257         7.25714 
         1.1229         14.1852         7.16654 
        1.12903         14.0788         7.07743 
        1.13518         13.8953         6.98977 
        1.14131         13.8287         6.90365 
        1.14745         13.6399         6.81905 
        1.15359         13.5418         6.73586 
        1.15973         13.4343         6.65404 
        1.16584         13.3343         6.57395 
        1.17197         13.2215         6.49508 
        1.17811         13.1201         6.41728 
        1.18424         13.0351         6.34098 
        1.19038         12.9645         6.26572 
        1.19652         12.8466         6.19171 
        1.20267         12.7599         6.11891 
        1.20881         12.6191         6.04731 
        1.21495         12.5304         5.97698 
        1.22108         12.4805         5.90778 
         1.2272         12.3697         5.83985 
        1.23334         12.3153         5.77284 
        1.23949         12.1931         5.70673 
        1.24562         12.0955         5.64184 
        1.25174         12.0315         5.57807 
        1.25789         11.8925         5.51509 
        1.26402         11.8594         5.45321 
        1.27014         11.7955         5.39243 
        1.27628         11.6441          5.3324 
        1.28244         11.6373         5.27318 
        1.28858         11.5297         5.21494 
        1.29471         11.3828         5.15772 
        1.30084         11.3136         5.10141 
        1.30697         11.3078         5.04587 
        1.31312         11.1824         4.99108 
        1.31925         11.1239         4.93728 
        1.32537         11.0497         4.88433 
        1.33151         10.9703         4.83198 
        1.33765         10.8871         4.78042 
        1.34378         10.8714         4.72973 
        1.34992           10.76         4.67975 
        1.35606          10.672         4.63038 
         1.3622         10.5954         4.58181 
        1.36833         10.5537         4.53407 
        1.37445          10.486         4.48703 
        1.38059         10.4202         4.44052 
        1.38675         10.3483         4.39457 
        1.39288         10.2546         4.34945 
        1.39901         10.2006         4.30499 
        1.40515         10.1374         4.26106 
         1.4113         10.0595         4.21776 
        1.41742         10.0244         4.17523 
        1.42355         9.92987         4.13321 
         1.4297         9.89045         4.09165 
        1.43585         9.83902         4.05068 
        1.44198         9.77921         4.01043 
        1.44809         9.71875          3.9708 
        1.45423         9.64041         3.93157 
        1.46036         9.59423         3.89294 
        1.46649         9.53242         3.85482 
        1.47263         9.48921         3.81719 
        1.47877         9.42388         3.78007 
        1.48491         9.38336          3.7434 
        1.49104         9.30206         3.70729 
        1.49718         9.27432         3.67163 
        1.50333         9.21096         3.63639 
        1.50947         9.14044         3.60169 
         1.5156         9.11729         3.56749 
        1.52172         9.06029         3.53374 
        1.52787         9.01115         3.50036 
          1.534         8.95696         3.46746 
        1.54013         8.91597         3.43501 
        1.54627         8.85399         3.40292 
        1.55241         8.78351         3.37124 
        1.55855         8.77516         3.34001 
        1.56467         8.71304         3.30927 
         1.5708         8.66927         3.27882 
        1.57695         8.60106         3.24872 
        1.58308         8.54734         3.21906 
        1.58922         8.51927         3.18976 
        1.59535          8.4708         3.16083 
         1.6015          8.4005         3.13222 
        1.60764         8.37546         3.10399 
        1.61376         8.34557         3.07618 
        1.61989         8.26776         3.04869 
        1.62604         8.24697         3.02148 
        1.63218         8.20794         2.99462 
        1.63831          8.1605         2.96815 
        1.64444         8.09393         2.94199 
        1.65059         8.05963         2.91608 
        1.65673         8.03684         2.89052 
        1.66285         7.99332         2.86534 
        1.66898         7.95159         2.84045 
        1.67512         7.90056         2.81581 
        1.68127          7.8465         2.79144 
         1.6874         7.82646         2.76741 
        1.69353         7.77136         2.74369 
        1.69967         7.74646         2.72018 
        1.70581         7.68944         2.69697 
        1.71193         7.67231         2.67411 
        1.71806         7.63157         2.65147 
        1.72421         7.58049         2.62906 
        1.73035         7.55037         2.60692 
        1.73649         7.51685         2.58505 
        1.74262         7.45664         2.56345 
        1.74876         7.45721         2.54208 
        1.75489         7.40779           2.521 
        1.76101         7.35193         2.50017 
        1.76715         7.34277         2.47954 
        1.77329          7.3085         2.45912 
        1.77943         7.24687         2.43893 
        1.78557         7.24653         2.41899 
        1.79171         7.20644         2.39928 
        1.79785         7.17287         2.37978 
        1.80399         7.10643          2.3605 
        1.81012         7.09588         2.34146 
        1.81625          7.0509         2.32264 
        1.82239         7.02516           2.304 
        1.82853         6.98257         2.28558 
        1.83466         6.93702         2.26738 
        1.84078         6.92052         2.24939 
        1.84692         6.89244         2.23157 
        1.85306          6.8607         2.21392 
         1.8592         6.84003          2.1965 
        1.86533         6.81074         2.17927 
        1.87147         6.76956          2.1622 
        1.87761         6.75345         2.14532 
        1.88375         6.70893         2.12863 
        1.88988         6.67543         2.11214 
        1.89601         6.65756         2.09582 
        1.90215          6.6068         2.07966 
        1.90829         6.59741         2.06367 
        1.91442          6.5541         2.04786 
        1.92056         6.54962         2.03222 
         1.9267         6.49754         2.01673 
        1.93284         6.49523          2.0014 
        1.93897         6.44805         1.98625 
        1.94509          6.4048          1.9713 
        1.95123         6.39601         1.95646 
        1.95737         6.37145         1.94176 
        1.96349         6.32263         1.92725 
        1.96964         6.30256         1.91285 
        1.97578         6.28146         1.89859 
        1.98192         6.24857         1.88451 
        1.98805         6.22903         1.87057 
        1.99419         6.20981         1.85677 
        2.00033         6.16454          1.8431 
        2.00647         6.15589         1.82957 
         2.0126         6.12807         1.81621 
        2.01874          6.1015         1.80296 
        2.02488         6.07782         1.78982 
        2.03101         6.03681         1.77685 
        2.03714         6.01353         1.76401 
        2.04328          5.9973         1.75129 
        2.04941         5.96389         1.73871 
        2.05554         5.95387         1.72626 
        2.06167          5.9255         1.71391 
        2.06781         5.89705         1.70168 
        2.07396         5.87033         1.68956 
        2.08009         5.85183         1.67757 
        2.08622         5.83458         1.66572 
        2.09237         5.81987         1.65396 
        2.09851         5.77328          1.6423 
        2.10464         5.75925         1.63079 
        2.11077         5.74074         1.61939 
        2.11691         5.72637         1.60808 
        2.12305         5.69052         1.59688 
        2.12918         5.67526         1.58581 
        2.13531         5.64727         1.57485 
        2.14145         5.62993         1.56396 
         2.1476         5.60593         1.55317 
        2.15372          5.5807         1.54253 
        2.15985         5.56833         1.53198 
        2.16599         5.54674          1.5215 
        2.17213         5.53548         1.51113 
        2.17827          5.4932         1.50086 
         2.1844         5.47518          1.4907 
        2.19054         5.46205         1.48062 
        2.19666         5.43944         1.47066 
         2.2028         5.40459         1.46078 
        2.20893          5.4031         1.45098 
        2.21508         5.38315         1.44126 
        2.22122         5.33905         1.43163 
        2.22736         5.33165         1.42211 
        2.23349         5.31233         1.41267 
        2.23962         5.30152         1.40332 
        2.24577         5.26449         1.39404 
         2.2519          5.2627         1.38486 
        2.25802         5.21978         1.37578 
        2.26417         5.21267         1.36676 
        2.27031         5.19135          1.3578 
        2.27644         5.17163         1.34896 
        2.28257         5.15476         1.34019 
        2.28872          5.1408         1.33149 
        2.29486         5.11616         1.32286 
        2.30099         5.09873         1.31433 
        2.30712         5.08056         1.30587 
        2.31326         5.06178         1.29748 
         2.3194         5.04074         1.28916 
        2.32553         5.02058         1.28092 
        2.33166         5.01088         1.27277 
         2.3378         4.99043         1.26467 
        2.34394         4.96916         1.25664 
        2.35007         4.94666         1.24869 
        2.35619         4.94189         1.24083 
        2.36233         4.91122         1.23301 
        2.36848         4.90463         1.22524 
        2.37462          4.8854         1.21756 
        2.38075         4.87498         1.20995 
        2.38689          4.8556         1.20239 
        2.39303         4.83248         1.19491 
        2.39916         4.81975          1.1875 
        2.40529         4.79713         1.18015 
        2.41143          4.7882         1.17285 
        2.41757         4.77511         1.16562 
         2.4237         4.75163         1.15846 
        2.42983          4.7439         1.15136 
        2.43598         4.73021          1.1443 
        2.44211         4.70536         1.13731 
        2.44823         4.68224          1.1304 
        2.45437         4.66976         1.12353 
        2.46052         4.65842         1.11671 
        2.46665         4.64637         1.10995 
        2.47279         4.61731         1.10326 
        2.47892         4.60761         1.09661 
        2.48507         4.59855         1.09002 
         2.4912         4.57951         1.08349 
