# k  (h/Mpc)    Pcb(k)  (Mpc/h)^3    Pcb_linear(k)  (Mpc/h)^3
     0.00783031         14362.4         14431.4 
       0.013688         17635.3         18104.6 
       0.019231         18289.6         18582.4 
      0.0249154           17452         17449.6 
      0.0312784         15222.2         15421.3 
      0.0375637         13142.6         13428.8 
      0.0433917         11802.4           11926 
      0.0492413         10593.9         10805.4 
      0.0555754         9790.69         9926.05 
      0.0619321         8807.18         9218.75 
       0.067871         8313.81         8577.53 
      0.0738098         7716.95         7886.02 
      0.0800417         6982.65         7109.63 
      0.0862327         6220.72         6344.87 
      0.0921407         5624.23         5687.43 
      0.0982031         5156.95         5132.76 
       0.104506         4655.67         4697.44 
       0.110769         4365.54         4384.88 
       0.116806         4201.66            4155 
       0.122832          3952.6         3950.96 
       0.129052         3729.32         3731.55 
       0.135211         3583.39         3489.88 
       0.141259         3295.88         3234.46 
       0.147318         3034.06         2979.04 
       0.153489         2852.88         2740.88 
       0.159709         2739.22         2538.83 
       0.165845         2515.56          2381.3 
       0.171974         2461.27         2259.57 
       0.178125         2389.07         2160.79 
       0.184229         2209.26         2072.04 
        0.19034         2173.68         1981.47 
       0.196428         2105.57          1884.2 
       0.202534         1973.37         1780.41 
       0.208729         1928.58         1674.03 
       0.214876         1840.11         1574.17 
       0.220989         1748.16         1485.79 
       0.227147         1703.14         1410.15 
        0.23329         1639.38         1347.23 
       0.239377         1630.54         1294.07 
       0.245482          1555.4         1245.79 
       0.251667         1498.77         1198.24 
       0.257832         1475.54         1149.92 
       0.263955         1408.36         1100.56 
       0.270079         1370.65         1050.89 
        0.27624         1313.96          1002.5 
       0.282372         1297.98         957.649 
        0.28843         1276.28         917.674 
       0.294538         1218.71         881.827 
       0.300721         1195.64         849.475 
        0.30691         1167.91         819.821 
       0.313033         1124.12         791.987 
       0.319153         1112.19         764.727 
       0.325316         1098.17          737.46 
        0.33145         1074.42         710.548 
       0.337538         1039.43           684.5 
       0.343633         1015.38         659.555 
       0.349808         996.507         635.881 
       0.355968         977.335         613.999 
       0.362074         947.766         593.963 
       0.368217          945.03         575.175 
       0.374374         931.146         557.343 
       0.380519         898.463         540.237 
       0.386598         893.564          523.75 
       0.392688         872.289         507.617 
        0.39888         853.378         491.652 
       0.405048         837.706         476.291 
       0.411186         835.665         461.681 
       0.417313         831.478          447.84 
       0.423458         805.931         434.699 
       0.429607          784.38         422.252 
       0.435692         777.998         410.524 
       0.441815         763.459         399.194 
       0.447964         754.205         388.211 
       0.454126         744.728         377.552 
       0.460267         734.989          367.24 
       0.466387         722.955         357.291 
        0.47254         711.296         347.645 
       0.478662         701.717         338.423 
       0.484765         694.346           329.6 
       0.490885         687.186          321.12 
       0.497035         674.492         312.945 
       0.503198         673.894         305.067 
       0.509342         661.215         297.484 
       0.515458         648.426          290.18 
       0.521598         645.989         283.078 
       0.527764         631.816         276.171 
       0.533884         626.445         269.531 
           0.54         621.293         263.113 
       0.546137          612.04         256.889 
       0.552299         609.023          250.86 
       0.558452         601.505          245.05 
       0.564573          596.91         239.462 
       0.570708         591.064         234.041 
       0.576825         579.179         228.805 
       0.582926         577.802         223.743 
       0.589034         569.572         218.827 
       0.595184         564.449         214.024 
       0.601379         555.927         209.331 
       0.607522         547.378         204.816 
       0.613639         546.646         200.456 
       0.619772         543.535         196.216 
       0.625918         533.931         192.096 
       0.632068         531.527         188.097 
       0.638161         525.541          184.25 
         0.6443         519.699         180.484 
       0.650464         515.493          176.81 
       0.656582          511.54         173.264 
       0.662703         506.285         169.814 
       0.668861         500.228          166.44 
       0.675024         497.505         163.156 
       0.681124         488.939         159.995 
       0.687237         488.688         156.914 
       0.693381          481.02         153.901 
       0.699536         480.807         150.963 
       0.705665         474.576         148.116 
       0.711789          473.38         145.345 
       0.717957         466.892         142.627 
        0.72409         462.722         139.995 
       0.730186         463.181         137.445 
       0.736317         456.025         134.946 
       0.742472         451.399           132.5 
       0.748622         449.373         130.119 
        0.75476         444.943         127.801 
       0.760888         442.234         125.545 
       0.767043         439.496         123.334 
       0.773185         436.408         121.182 
       0.779291         431.387         119.095 
       0.785407         428.531         117.054 
       0.791564         426.029         115.048 
       0.797719         419.692         113.091 
       0.803834         421.552         111.193 
       0.809972         414.938         109.331 
       0.816124         411.674         107.509 
       0.822261         409.211         105.734 
       0.828378         407.222         104.004 
       0.834502         401.076         102.312 
       0.840667         401.121         100.647 
       0.846816         395.413         99.0246 
       0.852925         396.038         97.4484 
       0.859047         392.139         95.9035 
       0.865192          390.02         94.3875 
       0.871341         385.044         92.9035 
       0.877463         383.698         91.4586 
       0.883569         380.407         90.0484 
       0.889708         376.832          88.661 
       0.895864         373.291         87.2996 
       0.902008         372.387         85.9699 
       0.908149         369.006          84.669 
       0.914301         367.712         83.3932 
       0.920448         364.152         82.1452 
       0.926574         361.996         80.9273 
       0.932687         360.925          79.737 
       0.938823         356.589         78.5666 
       0.944975         355.794         77.4173 
       0.951105         352.802         76.2953 
       0.957225         348.265         75.1976 
       0.963368         349.209         74.1181 
       0.969511         343.272         73.0599 
       0.975621         342.327         72.0283 
       0.981748         340.885         71.0142 
       0.987916         338.915         70.0134 
        0.99406         335.692         69.0358 
        1.00019         332.558          68.079 
        1.00632         332.281         67.1414 
        1.01246         329.511         66.2202 
        1.01859         326.129         65.3179 
        1.02471         324.312         64.4336 
        1.03085         323.201         63.5629 
        1.03698         321.474         62.7102 
        1.04314         320.023         61.8696 
        1.04929         317.987         61.0466 
        1.05541         314.424         60.2419 
        1.06154         312.962           59.45 
        1.06769         310.188         58.6712 
        1.07382          308.67          57.909 
        1.07993         307.001         57.1622 
        1.08607         305.236         56.4256 
        1.09222         302.774         55.7013 
        1.09836         301.748         54.9907 
        1.10449         299.612         54.2934 
        1.11063         297.639         53.6076 
        1.11677         294.554         52.9339 
         1.1229         294.339         52.2731 
        1.12903          291.73         51.6231 
        1.13518         289.772         50.9837 
        1.14131          288.83         50.3556 
        1.14745         285.634         49.7385 
        1.15359          283.72         49.1317 
        1.15973         282.609         48.5349 
        1.16584         281.129         47.9507 
        1.17197         279.357         47.3754 
        1.17811         276.758         46.8079 
        1.18424         275.587         46.2514 
        1.19038         274.248         45.7024 
        1.19652         271.285         45.1626 
        1.20267         270.783         44.6316 
        1.20881         268.942         44.1094 
        1.21495         267.779         43.5963 
        1.22108         265.981         43.0916 
         1.2272          262.75         42.5961 
        1.23334         262.096         42.1073 
        1.23949         260.763         41.6251 
        1.24562         259.237         41.1519 
        1.25174         257.755         40.6867 
        1.25789         255.459         40.2274 
        1.26402         255.171          39.776 
        1.27014         253.859         39.3326 
        1.27628         251.497         38.8948 
        1.28244         249.991         38.4628 
        1.28858          248.92          38.038 
        1.29471         247.437         37.6206 
        1.30084         246.569         37.2099 
        1.30697         243.876         36.8048 
        1.31312         242.641         36.4051 
        1.31925         241.377         36.0127 
        1.32537          240.57         35.6265 
        1.33151         238.644         35.2447 
        1.33765         236.867         34.8686 
        1.34378         235.906         34.4989 
        1.34992         233.835         34.1343 
        1.35606         233.023         33.7742 
         1.3622         231.336           33.42 
        1.36833         230.287         33.0717 
        1.37445         229.656         32.7286 
        1.38059         227.041         32.3894 
        1.38675         225.757         32.0542 
        1.39288         224.857         31.7251 
        1.39901         223.013         31.4008 
        1.40515         222.268         31.0803 
         1.4113         220.646         30.7645 
        1.41742         218.869         30.4543 
        1.42355         218.819         30.1478 
         1.4297         217.061         29.8447 
        1.43585         215.906         29.5458 
        1.44198         214.155         29.2522 
        1.44809          213.51         28.9632 
        1.45423          212.19         28.6771 
        1.46036         211.054         28.3953 
        1.46649         209.761         28.1173 
        1.47263         208.821         27.8427 
        1.47877          207.29          27.572 
        1.48491         205.751         27.3045 
        1.49104         204.131         27.0411 
        1.49718         203.675          26.781 
        1.50333         201.833          26.524 
        1.50947         201.117         26.2709 
         1.5156         199.981         26.0214 
        1.52172         198.866         25.7752 
        1.52787          197.61         25.5318 
          1.534         197.027         25.2918 
        1.54013          195.46         25.0551 
        1.54627         194.577         24.8211 
        1.55241         193.623           24.59 
        1.55855         192.492         24.3622 
        1.56467         191.429         24.1379 
         1.5708         189.809         23.9159 
        1.57695         189.142         23.6963 
        1.58308         187.891           23.48 
        1.58922         186.761         23.2662 
        1.59535         185.403         23.0552 
         1.6015         184.888         22.8466 
        1.60764          183.44         22.6406 
        1.61376         182.192         22.4378 
        1.61989         181.267         22.2373 
        1.62604         180.322         22.0388 
        1.63218         179.315         21.8429 
        1.63831         178.677         21.6498 
        1.64444         177.133          21.459 
        1.65059         176.311           21.27 
        1.65673         175.183         21.0836 
        1.66285         174.439         20.8999 
        1.66898         173.396         20.7183 
        1.67512          172.33         20.5386 
        1.68127         171.571         20.3609 
         1.6874         170.403         20.1856 
        1.69353         169.865         20.0126 
        1.69967         168.388         19.8411 
        1.70581         168.036         19.6718 
        1.71193         166.755         19.5051 
        1.71806         165.415           19.34 
        1.72421         164.786         19.1764 
        1.73035          163.77          19.015 
        1.73649         162.706         18.8555 
        1.74262         162.128         18.6979 
        1.74876         161.281          18.542 
        1.75489         160.607         18.3883 
        1.76101         159.204         18.2363 
        1.76715         158.331         18.0859 
        1.77329          157.33         17.9369 
        1.77943         156.352         17.7896 
        1.78557         155.753         17.6442 
        1.79171         154.978         17.5004 
        1.79785         153.855         17.3582 
        1.80399          153.12         17.2176 
        1.81012         152.418         17.0787 
        1.81625         151.244         16.9414 
        1.82239         150.649         16.8055 
        1.82853          149.77         16.6711 
        1.83466          148.49         16.5383 
        1.84078         148.219         16.4071 
        1.84692          147.44         16.2772 
        1.85306         146.317         16.1484 
         1.8592         145.855         16.0213 
        1.86533         144.527         15.8957 
        1.87147          143.86         15.7712 
        1.87761         143.106          15.648 
        1.88375         141.966         15.5263 
        1.88988         141.608          15.406 
        1.89601         141.158          15.287 
        1.90215         140.431         15.1691 
        1.90829          139.02         15.0525 
        1.91442         138.347         14.9371 
        1.92056         137.615         14.8231 
         1.9267         136.938         14.7101 
        1.93284          135.95         14.5983 
        1.93897         135.481         14.4878 
        1.94509         134.523         14.3787 
        1.95123         133.924         14.2705 
        1.95737         133.356         14.1633 
        1.96349         132.374         14.0574 
        1.96964         131.625         13.9524 
        1.97578          130.89         13.8484 
        1.98192         130.453         13.7457 
        1.98805         129.706          13.644 
        1.99419         128.475         13.5433 
        2.00033         128.163         13.4436 
        2.00647          127.64          13.345 
         2.0126         126.682         13.2475 
        2.01874         126.085         13.1508 
        2.02488         125.283          13.055 
        2.03101         124.883         12.9604 
        2.03714         123.958         12.8668 
        2.04328         123.508          12.774 
        2.04941         122.991         12.6822 
        2.05554         122.265         12.5914 
        2.06167         121.389         12.5013 
        2.06781         120.729         12.4121 
        2.07396         120.102         12.3237 
        2.08009         119.401         12.2363 
        2.08622         118.805         12.1498 
        2.09237         117.904          12.064 
        2.09851         117.603          11.979 
        2.10464         116.953          11.895 
        2.11077         116.283         11.8119 
        2.11691          115.75         11.7294 
        2.12305         115.116         11.6477 
        2.12918         114.477          11.567 
        2.13531         113.725          11.487 
        2.14145          113.33         11.4076 
         2.1476         112.611         11.3289 
        2.15372          111.89         11.2513 
        2.15985         111.327         11.1743 
        2.16599         110.646         11.0979 
        2.17213         110.095         11.0223 
        2.17827         109.487         10.9473 
         2.1844         109.136         10.8732 
        2.19054         108.393         10.7997 
        2.19666          107.62          10.727 
         2.2028         107.278         10.6549 
        2.20893         106.849         10.5835 
        2.21508         106.017         10.5126 
        2.22122         105.463         10.4423 
        2.22736         105.216         10.3729 
        2.23349         104.525         10.3041 
        2.23962         103.833         10.2359 
        2.24577         103.326         10.1682 
         2.2519         102.696         10.1012 
        2.25802         102.334          10.035 
        2.26417         101.624         9.96917 
        2.27031         100.964         9.90387 
        2.27644         100.641         9.83934 
        2.28257         100.167          9.7754 
        2.28872         99.6116         9.71191 
        2.29486         99.2843           9.649 
        2.30099           98.46         9.58678 
        2.30712         98.1404         9.52508 
        2.31326         97.5551         9.46382 
         2.3194           97.04         9.40314 
        2.32553         96.5339         9.34309 
        2.33166         96.0469         9.28359 
         2.3378         95.4999         9.22454 
        2.34394         94.9449         9.16598 
        2.35007         94.3367         9.10801 
        2.35619         93.9385         9.05062 
        2.36233         93.4974         8.99359 
        2.36848         92.8852         8.93693 
        2.37462         92.7172         8.88089 
        2.38075          92.025         8.82538 
        2.38689         91.5943          8.7703 
        2.39303         91.2205          8.7157 
        2.39916         90.6689         8.66162 
        2.40529         90.3091         8.60801 
        2.41143         89.7687         8.55481 
        2.41757         89.0825         8.50204 
         2.4237          88.709         8.44982 
        2.42983         88.2222         8.39804 
        2.43598         87.9171         8.34656 
        2.44211         87.5875          8.2956 
        2.44823         86.9833         8.24517 
        2.45437         86.6374         8.19504 
        2.46052         86.0529         8.14527 
        2.46665          85.508         8.09601 
        2.47279         85.2912         8.04718 
        2.47892         84.8973         7.99872 
        2.48507          84.501         7.95061 
         2.4912         83.8231         7.90299 
