# k  (h/Mpc)    P(k)  (Mpc/h)^3    P_linear(k)  (Mpc/h)^3
     0.00783031         12494.6         12615.7 
       0.013688         14698.6         15081.9 
       0.019231         14559.7           14774 
      0.0249154         13180.4         13146.3 
      0.0312784         10786.3         10857.8 
      0.0375637          8720.8         8827.31 
      0.0433917         7411.78         7415.71 
      0.0492413         6422.53         6464.51 
      0.0555754         5846.54         5833.17 
      0.0619321          5288.2         5431.15 
       0.067871         5044.62          5108.8 
      0.0738098         4708.34         4738.06 
      0.0800417         4255.31         4263.05 
      0.0862327         3721.14         3736.51 
      0.0921407          3267.9         3245.75 
      0.0982031         2890.01         2813.36 
       0.104506         2519.81         2475.44 
       0.110769         2316.27         2254.06 
       0.116806         2217.72         2125.62 
       0.122832         2104.89         2045.56 
       0.129052         2019.23         1974.72 
       0.135211         1960.94         1886.03 
       0.141259         1814.11         1767.77 
       0.147318         1661.39         1622.81 
       0.153489         1529.63         1464.95 
       0.159709         1428.47         1316.33 
       0.165845         1286.48         1195.47 
       0.171974         1241.57         1106.66 
       0.178125         1187.86          1047.2 
       0.184229         1107.48         1009.11 
        0.19034         1091.97         980.555 
       0.196428         1061.49         950.989 
       0.202534         992.132         913.021 
       0.208729         971.404         863.895 
       0.214876         921.395         807.496 
       0.220989         858.374         749.646 
       0.227147         828.939         695.725 
        0.23329         790.229         650.611 
       0.239377         777.205         616.064 
       0.245482         735.961         590.557 
       0.251667         709.056         571.139 
       0.257832         700.118         554.571 
       0.263955         664.199         537.588 
       0.270079         640.789         517.991 
        0.27624         613.791         495.254 
       0.282372         599.958         470.555 
        0.28843         591.761         445.905 
       0.294538          559.84         422.632 
       0.300721         543.302         402.037 
        0.30691         532.239         384.935 
       0.313033         507.591         371.118 
       0.319153         500.064         359.538 
       0.325316          491.18          348.94 
        0.33145         479.141         338.447 
       0.337538          461.42         327.424 
       0.343633          448.36         315.641 
       0.349808         436.624         303.209 
       0.355968         428.079         290.839 
       0.362074         412.577         279.208 
       0.368217         409.792         268.524 
       0.374374         401.472         259.068 
       0.380519         384.899         250.759 
       0.386598         380.574         243.399 
       0.392688         370.563         236.546 
        0.39888         361.359         229.745 
       0.405048         353.612          222.94 
       0.411186         352.341         216.056 
       0.417313         346.876         209.113 
       0.423458         337.127         202.257 
       0.429607         327.372         195.664 
       0.435692         322.459         189.525 
       0.441815         316.317         183.822 
       0.447964         309.174         178.553 
       0.454126         305.356         173.641 
       0.460267         300.424         169.018 
       0.466387         293.958         164.579 
        0.47254         290.242         160.189 
       0.478662          283.28         155.857 
       0.484765         279.478         151.601 
       0.490885         276.038         147.421 
       0.497035         270.713         143.348 
       0.503198         269.677         139.442 
       0.509342         263.038         135.759 
       0.515458         258.619         132.293 
       0.521598         253.879         128.985 
       0.527764         250.659         125.808 
       0.533884          248.92          122.77 
           0.54         244.799         119.822 
       0.546137         239.274         116.928 
       0.552299         237.849         114.077 
       0.558452         233.709         111.302 
       0.564573          232.35         108.626 
       0.570708         227.454         106.039 
       0.576825         223.905         103.557 
       0.582926         222.072         101.176 
       0.589034         218.326          98.882 
       0.595184         216.752         96.6595 
       0.601379          213.24         94.4982 
       0.607522         208.436         92.4199 
       0.613639         207.554         90.4045 
       0.619772         206.119         88.4314 
       0.625918         203.183         86.5043 
       0.632068         199.688         84.6297 
       0.638161         198.691         82.8283 
         0.6443         196.145          81.072 
       0.650464         193.038         79.3661 
       0.656582         191.282         77.7255 
       0.662703         190.116         76.1333 
       0.668861         186.135         74.5777 
       0.675024         185.724         73.0642 
       0.681124         183.157         71.6075 
       0.687237         181.601         70.1872 
       0.693381         178.695         68.7984 
       0.699536         177.648         67.4443 
       0.705665         175.755         66.1321 
       0.711789         173.565         64.8558 
       0.717957         171.912         63.6045 
        0.72409         169.611         62.3934 
       0.730186         170.358         61.2217 
       0.736317         167.637         60.0745 
       0.742472         165.423         58.9532 
       0.748622         163.214         57.8624 
        0.75476         163.527          56.802 
       0.760888         161.322         55.7702 
       0.767043         158.738         54.7602 
       0.773185          157.35         53.7774 
       0.779291         155.757         52.8243 
       0.785407         154.878          51.893 
       0.791564         153.462         50.9783 
       0.797719         150.935         50.0861 
       0.803834         151.606         49.2211 
       0.809972         149.812         48.3735 
       0.816124         147.234         47.5442 
       0.822261         146.405         46.7367 
       0.828378         145.924         45.9505 
       0.834502         144.207         45.1819 
       0.840667         143.899         44.4261 
       0.846816          141.49         43.6899 
       0.852925         140.734         42.9751 
       0.859047         139.384          42.275 
       0.865192         138.881         41.5882 
       0.871341         137.365         40.9164 
       0.877463         135.992         40.2626 
       0.883569         135.939         39.6249 
       0.889708         134.551         38.9978 
       0.895864         133.196         38.3827 
       0.902008         131.902         37.7824 
       0.908149         130.578         37.1953 
       0.914301         129.889         36.6197 
       0.920448          129.78          36.057 
       0.926574         127.661         35.5082 
       0.932687         127.574          34.972 
       0.938823         126.558          34.445 
       0.944975         125.702         33.9277 
       0.951105         124.412          33.423 
       0.957225         123.705         32.9294 
       0.963368         122.778         32.4442 
       0.969511         121.668         31.9689 
       0.975621         120.252         31.5057 
       0.981748         119.834         31.0505 
       0.987916         119.059         30.6015 
        0.99406         118.372         30.1632 
        1.00019         117.552         29.7343 
        1.00632         116.533         29.3142 
        1.01246         115.837         28.9017 
        1.01859         115.082         28.4979 
        1.02471         114.302         28.1023 
        1.03085         113.387         27.7128 
        1.03698         112.501         27.3317 
        1.04314         112.095         26.9561 
        1.04929         111.555         26.5885 
        1.05541         110.812         26.2293 
        1.06154          109.67         25.8758 
        1.06769         109.113         25.5284 
        1.07382         108.513         25.1885 
        1.07993         107.761         24.8556 
        1.08607         107.233         24.5274 
        1.09222         106.273         24.2048 
        1.09836         105.629         23.8884 
        1.10449         105.004         23.5781 
        1.11063         104.272          23.273 
        1.11677          103.74         22.9734 
         1.1229         102.733         22.6796 
        1.12903           102.1         22.3907 
        1.13518         101.424         22.1066 
        1.14131         101.059         21.8276 
        1.14745         100.473         21.5537 
        1.15359         99.4891         21.2844 
        1.15973          99.148         21.0196 
        1.16584         98.4225         20.7605 
        1.17197         97.9976         20.5054 
        1.17811         97.1532         20.2539 
        1.18424         96.6552         20.0073 
        1.19038         96.1769         19.7642 
        1.19652         95.6359         19.5251 
        1.20267         94.9517         19.2901 
        1.20881         94.2065          19.059 
        1.21495         93.8875         18.8321 
        1.22108         93.3283         18.6089 
         1.2272         92.7566         18.3899 
        1.23334         92.4012         18.1739 
        1.23949         91.7804         17.9609 
        1.24562         91.0427         17.7519 
        1.25174         90.9163         17.5466 
        1.25789         90.0459         17.3439 
        1.26402         89.7379         17.1448 
        1.27014         89.0186         16.9493 
        1.27628         88.5387         16.7563 
        1.28244         88.3263         16.5659 
        1.28858         87.5563         16.3788 
        1.29471         87.0548         16.1949 
        1.30084         86.3898         16.0141 
        1.30697         86.0686         15.8358 
        1.31312         85.5902         15.6599 
        1.31925         84.9681         15.4873 
        1.32537         84.5738         15.3174 
        1.33151         84.4715         15.1495 
        1.33765         83.7262         14.9842 
        1.34378          83.355         14.8217 
        1.34992         83.0014         14.6616 
        1.35606         82.5196         14.5034 
         1.3622         82.2359         14.3479 
        1.36833         81.4759          14.195 
        1.37445         81.2036         14.0445 
        1.38059          80.756         13.8957 
        1.38675         80.1638         13.7486 
        1.39288          79.721         13.6043 
        1.39901         79.3534         13.4622 
        1.40515         78.8904         13.3217 
         1.4113         78.4889         13.1834 
        1.41742         78.1286         13.0475 
        1.42355         77.8257         12.9133 
         1.4297         77.2538         12.7806 
        1.43585          76.999         12.6498 
        1.44198         76.2968         12.5213 
        1.44809         75.8357         12.3949 
        1.45423         75.9189         12.2697 
        1.46036         75.2162         12.1465 
        1.46649         74.7005          12.025 
        1.47263         74.2791         11.9051 
        1.47877         74.0561         11.7868 
        1.48491         73.6092           11.67 
        1.49104         73.0681          11.555 
        1.49718         72.7646         11.4414 
        1.50333         72.5229         11.3292 
        1.50947         72.1699         11.2188 
         1.5156         71.9198           11.11 
        1.52172         71.2241         11.0026 
        1.52787         70.9963         10.8964 
          1.534         70.6247         10.7918 
        1.54013         70.3691         10.6887 
        1.54627         69.7467         10.5867 
        1.55241         69.7305         10.4861 
        1.55855         68.9869         10.3869 
        1.56467         68.5775         10.2892 
         1.5708         68.3027         10.1926 
        1.57695         68.0344          10.097 
        1.58308         67.6913         10.0029 
        1.58922         67.4747         9.90993 
        1.59535         67.3104         9.81818 
         1.6015          66.758         9.72746 
        1.60764         66.4048         9.63793 
        1.61376         66.1938         9.54978 
        1.61989         65.6364         9.46266 
        1.62604          65.475         9.37643 
        1.63218          65.122         9.29134 
        1.63831         64.8587         9.20749 
        1.64444         64.5032         9.12466 
        1.65059         64.1042         9.04264 
        1.65673         63.9073         8.96173 
        1.66285         63.4298         8.88203 
        1.66898         62.9916         8.80328 
        1.67512         62.7386         8.72533 
        1.68127         62.6076         8.64826 
         1.6874         62.1738          8.5723 
        1.69353         61.8548         8.49729 
        1.69967         61.6001           8.423 
        1.70581         61.2981         8.34964 
        1.71193         60.9149         8.27743 
        1.71806         60.7588         8.20592 
        1.72421         60.4241         8.13512 
        1.73035         60.0794         8.06524 
        1.73649         59.7706         7.99619 
        1.74262         59.4318         7.92801 
        1.74876         59.2352         7.86057 
        1.75489         58.9312         7.79407 
        1.76101         58.6547         7.72835 
        1.76715         58.3034         7.66331 
        1.77329         58.0106         7.59893 
        1.77943         57.9131         7.53527 
        1.78557         57.5655         7.47243 
        1.79171         57.1138          7.4103 
        1.79785         56.9058         7.34887 
        1.80399         56.7698         7.28814 
        1.81012         56.3607         7.22819 
        1.81625         56.1158         7.16893 
        1.82239         55.7804         7.11026 
        1.82853         55.5728         7.05227 
        1.83466         55.2378         6.99498 
        1.84078         54.9819          6.9384 
        1.84692         54.9531         6.88234 
        1.85306          54.631         6.82684 
         1.8592          54.303         6.77204 
        1.86533         54.0133         6.71787 
        1.87147          53.701         6.66423 
        1.87761         53.3852         6.61116 
        1.88375          53.307         6.55872 
        1.88988         52.8918         6.50691 
        1.89601          52.828         6.45563 
        1.90215         52.4231         6.40487 
        1.90829         52.1925         6.35467 
        1.91442         51.8683         6.30501 
        1.92056         51.7797         6.25593 
         1.9267         51.4691         6.20732 
        1.93284         51.2606          6.1592 
        1.93897         50.8965         6.11168 
        1.94509         50.7159         6.06476 
        1.95123         50.4912         6.01822 
        1.95737         50.3615         5.97213 
        1.96349         50.0866         5.92665 
        1.96964           49.81         5.88151 
        1.97578         49.5192         5.83682 
        1.98192         49.2438         5.79268 
        1.98805         48.9175           5.749 
        1.99419         48.9242         5.70576 
        2.00033         48.5663         5.66295 
        2.00647         48.3511         5.62059 
         2.0126         48.1783         5.57874 
        2.01874         48.0655         5.53725 
        2.02488         47.7824         5.49614 
        2.03101          47.549         5.45553 
        2.03714         47.2782         5.41537 
        2.04328          47.091         5.37557 
        2.04941         46.6977          5.3362 
        2.05554         46.6147         5.29725 
        2.06167         46.4038         5.25864 
        2.06781         46.2268         5.22041 
        2.07396         45.9366         5.18251 
        2.08009          45.761         5.14504 
        2.08622         45.5712           5.108 
        2.09237         45.3407         5.07124 
        2.09851         45.0121         5.03484 
        2.10464          44.837         4.99886 
        2.11077          44.704         4.96327 
        2.11691         44.4698         4.92796 
        2.12305         44.2721         4.89298 
        2.12918         43.9846         4.85843 
        2.13531         43.8094         4.82421 
        2.14145         43.6179         4.79024 
         2.1476         43.5828         4.75656 
        2.15372         43.2767         4.72337 
        2.15985         43.0193         4.69046 
        2.16599         42.8429         4.65777 
        2.17213         42.6552         4.62544 
        2.17827         42.4609         4.59341 
         2.1844         42.1486         4.56172 
        2.19054         42.1868         4.53032 
        2.19666          41.911         4.49925 
         2.2028         41.6325         4.46845 
        2.20893         41.4597         4.43793 
        2.21508         41.2474         4.40765 
        2.22122         41.0228         4.37765 
        2.22736         40.8598         4.34799 
        2.23349         40.7094         4.31861 
        2.23962         40.5726         4.28949 
        2.24577         40.3653         4.26061 
         2.2519         40.1278         4.23204 
        2.25802         39.9256         4.20378 
        2.26417         39.7163         4.17569 
        2.27031         39.6111         4.14784 
        2.27644         39.4384         4.12032 
        2.28257         39.2272         4.09305 
        2.28872         39.1064         4.06598 
        2.29486         38.8877         4.03916 
        2.30099         38.6554         4.01264 
        2.30712         38.5283         3.98634 
        2.31326         38.3887         3.96023 
         2.3194         38.1863         3.93437 
        2.32553         38.0142         3.90879 
        2.33166          37.844         3.88345 
         2.3378         37.6156         3.85829 
        2.34394         37.4836         3.83335 
        2.35007         37.3486         3.80867 
        2.35619         37.1496         3.78423 
        2.36233         36.9819         3.75995 
        2.36848         36.8362         3.73583 
        2.37462         36.5798         3.71198 
        2.38075         36.5241         3.68836 
        2.38689         36.2981         3.66492 
        2.39303         36.1718         3.64169 
        2.39916          35.992         3.61869 
        2.40529         35.8475         3.59589 
        2.41143         35.7225         3.57326 
        2.41757         35.5548         3.55083 
         2.4237         35.3691         3.52862 
        2.42983         35.2282         3.50661 
        2.43598         35.0486         3.48473 
        2.44211         34.8251         3.46307 
        2.44823         34.7358         3.44165 
        2.45437         34.5764         3.42034 
        2.46052          34.352          3.3992 
        2.46665         34.2626         3.37828 
        2.47279         34.0309         3.35754 
        2.47892         33.9465         3.33695 
        2.48507         33.8161         3.31653 
         2.4912         33.5825         3.29631 
