# k  (h/Mpc)    P(k)  (Mpc/h)^3    P_linear(k)  (Mpc/h)^3
     0.00783031         11984.5         12166.1 
       0.013688           13413         13327.5 
       0.019231         12194.7         12154.8 
      0.0249154         9981.72         10118.8 
      0.0312784         7831.52         7850.56 
      0.0375637         6178.77         6127.69 
      0.0433917         5056.53         5074.34 
      0.0492413         4455.74         4438.92 
      0.0555754         3981.29         4040.93 
      0.0619321         3795.46         3752.16 
       0.067871         3419.16         3457.41 
      0.0738098         3065.96         3092.43 
      0.0800417         2627.79         2658.23 
      0.0862327         2249.19         2239.18 
      0.0921407         1952.61         1906.07 
      0.0982031         1691.72         1658.95 
       0.104506         1570.08         1499.53 
       0.110769         1468.51         1412.16 
       0.116806         1400.29         1359.73 
       0.122832         1346.43         1306.31 
       0.129052         1244.72         1228.57 
       0.135211          1150.3         1125.09 
       0.141259         1059.31         1009.08 
       0.147318         960.001         895.969 
       0.153489         858.045         799.085 
       0.159709         796.581         727.614 
       0.165845          757.22         681.756 
       0.171974         718.888         653.381 
       0.178125         692.863         632.716 
       0.184229         666.539         611.005 
        0.19034         622.463         582.522 
       0.196428         600.564         546.537 
       0.202534          570.47         505.873 
       0.208729         530.129         464.972 
       0.214876         495.647         429.255 
       0.220989         472.022         401.001 
       0.227147         449.065         379.985 
        0.23329         430.303         364.708 
       0.239377         420.472          352.49 
       0.245482         392.237         340.535 
       0.251667         387.506          326.94 
       0.257832         371.749         311.352 
       0.263955         355.861         294.505 
       0.270079          338.57         277.605 
        0.27624         330.933         261.865 
       0.282372         317.705         248.357 
        0.28843         306.107         237.319 
       0.294538         291.166         228.167 
       0.300721         287.776         220.202 
        0.30691         274.399         212.725 
       0.313033          267.86         205.212 
       0.319153         257.232         197.315 
       0.325316         250.256         189.053 
        0.33145         240.786         180.818 
       0.337538         236.189         173.003 
       0.343633          227.45         165.837 
       0.349808          219.29         159.362 
       0.355968         215.744         153.663 
       0.362074         210.664         148.569 
       0.368217         204.445          143.79 
       0.374374         196.298         139.139 
       0.380519         193.589         134.509 
       0.386598         188.312         129.933 
       0.392688         185.175         125.389 
        0.39888         180.186         120.916 
       0.405048         175.199         116.701 
       0.411186         171.368         112.789 
       0.417313         167.549         109.181 
       0.423458         163.688         105.822 
       0.429607         160.154         102.653 
       0.435692          155.03         99.6481 
       0.441815         153.443         96.7135 
       0.447964         150.224         93.8234 
       0.454126          144.29         90.9912 
       0.460267         142.261         88.2554 
       0.466387         140.246         85.6344 
        0.47254         136.765         83.1187 
       0.478662         136.055         80.7464 
       0.484765         131.202         78.5074 
       0.490885          129.22          76.368 
       0.497035         127.232         74.3044 
       0.503198         123.933         72.3096 
       0.509342         122.138         70.3842 
       0.515458          120.15         68.5224 
       0.521598         117.672         66.7067 
       0.527764         116.255         64.9433 
       0.533884         114.477         63.2584 
           0.54         112.236         61.6429 
       0.546137         111.183         60.0858 
       0.552299         108.993         58.5823 
       0.558452         107.293         57.1366 
       0.564573         105.502         55.7487 
       0.570708         103.317         54.4034 
       0.576825         102.103         53.1039 
       0.582926         99.9187         51.8459 
       0.589034         98.6853          50.624 
       0.595184         97.3433         49.4323 
       0.601379         95.7393         48.2719 
       0.607522         93.9383         47.1607 
       0.613639         93.1966         46.0915 
       0.619772         91.3092         45.0546 
       0.625918         90.0915         44.0481 
       0.632068         89.0089         43.0716 
       0.638161         88.0974         42.1327 
         0.6443          86.896         41.2144 
       0.650464         86.0049           40.32 
       0.656582         84.3849         39.4585 
       0.662703          83.332          38.622 
       0.668861         81.9383         37.8055 
       0.675024         80.9906         37.0121 
       0.681124         80.2784         36.2497 
       0.687237         78.7151         35.5074 
       0.693381         77.6069         34.7826 
       0.699536         77.0092         34.0768 
       0.705665         76.6984         33.3938 
       0.711789         75.0473         32.7301 
       0.717957         74.7156         32.0801 
        0.72409         73.3444         31.4514 
       0.730186         72.2718         30.8435 
       0.736317         71.8605         30.2484 
       0.742472         71.1685          29.667 
       0.748622          70.266         29.1014 
        0.75476         69.5559         28.5519 
       0.760888         68.6107         28.0174 
       0.767043         68.1036         27.4946 
       0.773185          67.309         26.9862 
       0.779291         66.3112         26.4935 
       0.785407         65.8593         26.0125 
       0.791564         65.4183         25.5404 
       0.797719         64.0279         25.0804 
       0.803834         63.7411         24.6346 
       0.809972         62.8526         24.1981 
       0.816124         62.4555         23.7713 
       0.822261         61.9213         23.3559 
       0.828378         61.4563         22.9518 
       0.834502         60.8417          22.557 
       0.840667         60.0535         22.1689 
       0.846816         59.2625         21.7911 
       0.852925         58.8444         21.4245 
       0.859047         58.0633         21.0655 
       0.865192         57.7275         20.7137 
       0.871341         57.2411         20.3696 
       0.877463         56.3704         20.0349 
       0.883569         56.1547         19.7087 
       0.889708         55.5879          19.388 
       0.895864         55.1859         19.0736 
       0.902008         54.6481         18.7669 
       0.908149         54.2483         18.4672 
       0.914301         53.6874         18.1735 
       0.920448         53.2895         17.8865 
       0.926574         52.7058         17.6067 
       0.932687         52.6319         17.3335 
       0.938823         51.8247         17.0651 
       0.944975         51.2946         16.8018 
       0.951105         50.9057          16.545 
       0.957225         50.3811         16.2941 
       0.963368         50.0882         16.0475 
       0.969511         49.8373          15.806 
       0.975621         49.5391         15.5708 
       0.981748          48.957         15.3398 
       0.987916         48.4904         15.1121 
        0.99406         48.2155         14.8898 
        1.00019         47.8239         14.6725 
        1.00632         47.4222         14.4597 
        1.01246          47.144         14.2508 
        1.01859         46.5265         14.0464 
        1.02471          46.323         13.8463 
        1.03085         45.9488         13.6493 
        1.03698         45.6212         13.4567 
        1.04314         45.2509         13.2669 
        1.04929          44.892         13.0812 
        1.05541         44.4198         12.8999 
        1.06154         44.4327         12.7215 
        1.06769         44.0026         12.5463 
        1.07382         43.7686         12.3749 
        1.07993         43.4523         12.2071 
        1.08607         43.1259         12.0417 
        1.09222         42.8744         11.8792 
        1.09836         42.4479           11.72 
        1.10449         42.2995         11.5638 
        1.11063         41.8271         11.4103 
        1.11677         41.5908         11.2596 
         1.1229         41.2385         11.1119 
        1.12903         40.7839         10.9668 
        1.13518         40.9064         10.8241 
        1.14131         40.5836         10.6841 
        1.14745         40.1398         10.5465 
        1.15359         39.9924         10.4114 
        1.15973          39.551         10.2786 
        1.16584         39.3576         10.1488 
        1.17197         39.1081         10.0209 
        1.17811         38.9642         9.89492 
        1.18424         38.5812         9.77145 
        1.19038         38.3135         9.64972 
        1.19652         38.2206         9.53012 
        1.20267         37.8103         9.41255 
        1.20881         37.6813         9.29699 
        1.21495         37.3399         9.18355 
        1.22108         37.2854         9.07203 
         1.2272         36.7888         8.96262 
        1.23334         36.6332         8.85476 
        1.23949         36.5954         8.74843 
        1.24562         36.1623         8.64413 
        1.25174         36.0658          8.5417 
        1.25789          35.924         8.44061 
        1.26402         35.5676         8.34135 
        1.27014         35.3325         8.24392 
        1.27628         35.0849         8.14775 
        1.28244         34.9667         8.05294 
        1.28858          34.788         7.95976 
        1.29471         34.6243         7.86826 
        1.30084         34.4206         7.77828 
        1.30697         34.1876         7.68958 
        1.31312         33.9607         7.60212 
        1.31925         33.7607          7.5163 
        1.32537          33.619         7.43188 
        1.33151         33.3449         7.34846 
        1.33765         33.2036         7.26636 
        1.34378         33.0142         7.18568 
        1.34992         32.8082         7.10617 
        1.35606         32.6385         7.02769 
         1.3622         32.4637         6.95053 
        1.36833         32.2424         6.87472 
        1.37445         32.0937         6.80007 
        1.38059         31.8892          6.7263 
        1.38675         31.6537         6.65346 
        1.39288         31.5773         6.58197 
        1.39901         31.4184         6.51158 
        1.40515         31.1953         6.44205 
         1.4113         31.0383         6.37356 
        1.41742         30.9483         6.30633 
        1.42355          30.691         6.23994 
         1.4297         30.5826         6.17431 
        1.43585         30.4813         6.10965 
        1.44198          30.173         6.04616 
        1.44809          30.119          5.9837 
        1.45423         29.9304         5.92188 
        1.46036          29.835         5.86105 
        1.46649          29.657         5.80105 
        1.47263         29.4568         5.74185 
        1.47877         29.3146         5.68349 
        1.48491         29.3285         5.62586 
        1.49104         29.0164         5.56914 
        1.49718         28.7616         5.51316 
        1.50333         28.8221         5.45786 
        1.50947         28.6334         5.40344 
         1.5156         28.4532         5.34983 
        1.52172         28.3841         5.29695 
        1.52787          28.242         5.24467 
          1.534         28.0776         5.19317 
        1.54013         27.8907          5.1424 
        1.54627         27.8201         5.09223 
        1.55241         27.5396         5.04271 
        1.55855         27.5252         4.99392 
        1.56467         27.2483         4.94591 
         1.5708         27.3231          4.8984 
        1.57695          27.099         4.85143 
        1.58308         26.9357         4.80519 
        1.58922         26.8671         4.75952 
        1.59535         26.7612         4.71446 
         1.6015         26.5578         4.66992 
        1.60764         26.3822         4.62597 
        1.61376         26.2835         4.58272 
        1.61989         26.1679         4.53997 
        1.62604         26.0563         4.49768 
        1.63218         26.0107         4.45595 
        1.63831         25.8154         4.41484 
        1.64444         25.6981         4.37424 
        1.65059          25.615         4.33405 
        1.65673         25.4516         4.29441 
        1.66285         25.3426         4.25537 
        1.66898         25.2164         4.21681 
        1.67512         25.0961         4.17865 
        1.68127         24.9701         4.14092 
         1.6874         24.8227         4.10375 
        1.69353          24.748         4.06705 
        1.69967         24.6172         4.03071 
        1.70581         24.5687         3.99483 
        1.71193          24.472         3.95953 
        1.71806         24.2369         3.92457 
        1.72421         24.1712         3.88997 
        1.73035         24.0509         3.85582 
        1.73649         23.9172         3.82209 
        1.74262         23.8381         3.78879 
        1.74876         23.7726         3.75586 
        1.75489         23.6465         3.72339 
        1.76101         23.5429         3.69131 
        1.76715         23.4652         3.65957 
        1.77329         23.4004         3.62816 
        1.77943         23.2888          3.5971 
        1.78557         23.0951         3.56645 
        1.79171         23.0142         3.53615 
        1.79785         22.9055          3.5062 
        1.80399         22.8869          3.4766 
        1.81012         22.7156         3.44739 
        1.81625         22.6602         3.41852 
        1.82239         22.5191         3.38993 
        1.82853         22.4532         3.36169 
        1.83466          22.339          3.3338 
        1.84078         22.1557         3.30625 
        1.84692         22.1217         3.27896 
        1.85306         22.0102         3.25195 
         1.8592         21.9179         3.22529 
        1.86533         21.8393         3.19894 
        1.87147         21.7948         3.17286 
        1.87761         21.6734         3.14705 
        1.88375          21.577         3.12156 
        1.88988         21.5074         3.09637 
        1.89601         21.4296         3.07145 
        1.90215         21.3127         3.04679 
        1.90829         21.2315         3.02241 
        1.91442         21.1503         2.99829 
        1.92056         21.0429         2.97445 
         1.9267          20.968         2.95085 
        1.93284         20.8074         2.92749 
        1.93897         20.8039         2.90443 
        1.94509          20.696         2.88167 
        1.95123         20.5998         2.85909 
        1.95737         20.5059         2.83673 
        1.96349          20.446         2.81467 
        1.96964         20.3565         2.79279 
        1.97578         20.2118         2.77112 
        1.98192         20.1621         2.74973 
        1.98805         20.1187         2.72856 
        1.99419         20.0227         2.70761 
        2.00033         19.9249         2.68687 
        2.00647         19.8364         2.66636 
         2.0126         19.7553         2.64609 
        2.01874         19.6969           2.626 
        2.02488         19.6255          2.6061 
        2.03101         19.5509         2.58644 
        2.03714         19.4578         2.56701 
        2.04328         19.3553         2.54775 
        2.04941         19.2842          2.5287 
        2.05554         19.2248         2.50986 
        2.06167         19.1328         2.49119 
        2.06781         19.0529         2.47271 
        2.07396         18.9991         2.45438 
        2.08009         18.9367         2.43627 
        2.08622         18.7976         2.41837 
        2.09237         18.7641         2.40061 
        2.09851         18.6897         2.38302 
        2.10464          18.586         2.36564 
        2.11077         18.5311         2.34845 
        2.11691         18.4731          2.3314 
        2.12305          18.418         2.31451 
        2.12918         18.3008         2.29783 
        2.13531          18.296         2.28132 
        2.14145         18.2035         2.26493 
         2.1476         18.1253         2.24867 
        2.15372         18.0356         2.23266 
        2.15985          17.959         2.21679 
        2.16599         17.9096         2.20103 
        2.17213          17.837         2.18544 
        2.17827         17.7406            2.17 
         2.1844         17.6714         2.15472 
        2.19054         17.6229         2.13959 
        2.19666          17.546         2.12462 
         2.2028         17.4652         2.10978 
        2.20893         17.4249         2.09508 
        2.21508         17.3617         2.08049 
        2.22122         17.2298         2.06605 
        2.22736         17.2048         2.05177 
        2.23349         17.1425         2.03762 
        2.23962         17.0812          2.0236 
        2.24577         16.9996         2.00971 
         2.2519         16.9631         1.99596 
        2.25802         16.8545         1.98236 
        2.26417         16.8334         1.96885 
        2.27031         16.7291         1.95545 
        2.27644         16.6775         1.94222 
        2.28257         16.6064         1.92911 
        2.28872          16.546          1.9161 
        2.29486         16.5024          1.9032 
        2.30099         16.4079         1.89046 
        2.30712         16.3654         1.87782 
        2.31326         16.3356         1.86528 
         2.3194         16.2535         1.85286 
        2.32553         16.1801         1.84057 
        2.33166         16.1089          1.8284 
         2.3378         16.0651         1.81632 
        2.34394         15.9786         1.80434 
        2.35007         15.9471         1.79249 
        2.35619         15.8743         1.78077 
        2.36233         15.8074         1.76911 
        2.36848         15.7673         1.75754 
        2.37462         15.6805          1.7461 
        2.38075          15.645         1.73477 
        2.38689         15.5771         1.72352 
        2.39303         15.5161         1.71238 
        2.39916         15.4633         1.70135 
        2.40529         15.4356         1.69042 
        2.41143         15.3482         1.67958 
        2.41757         15.2898         1.66882 
         2.4237         15.2156         1.65818 
        2.42983         15.1322         1.64764 
        2.43598         15.1145         1.63715 
        2.44211         15.0683         1.62678 
        2.44823         15.0207         1.61651 
        2.45437         14.9364         1.60631 
        2.46052         14.8957         1.59619 
        2.46665         14.8551         1.58617 
        2.47279         14.7953         1.57624 
        2.47892         14.7411         1.56639 
        2.48507         14.6667         1.55662 
         2.4912         14.6403         1.54694 
