# k  (h/Mpc)    P(k)  (Mpc/h)^3    P_linear(k)  (Mpc/h)^3
     0.00783031         9966.91         10050.3 
       0.013688         11566.4         11832.4 
       0.019231         11290.1         11428.1 
      0.0249154         10114.9         10077.3 
      0.0312784         8312.42         8348.06 
      0.0375637         6858.84         6927.51 
      0.0433917         5999.93         6000.91 
      0.0492413         5358.37          5393.4 
      0.0555754         4953.83         4953.42 
      0.0619321         4468.04         4579.88 
       0.067871         4150.26         4196.32 
      0.0738098         3745.99         3757.32 
      0.0800417         3289.44         3274.71 
      0.0862327         2845.57         2835.45 
      0.0921407         2525.13         2498.32 
      0.0982031         2302.82         2250.26 
       0.104506         2096.06         2082.31 
       0.110769          1988.7         1971.33 
       0.116806         1919.45         1879.99 
       0.122832         1795.37         1776.74 
       0.129052          1672.7         1646.48 
       0.135211         1562.46         1500.46 
       0.141259         1409.95         1357.36 
       0.147318         1277.21         1230.92 
       0.153489         1188.82         1129.57 
       0.159709         1135.24         1056.23 
       0.165845         1052.44          1005.4 
       0.171974          1036.3         965.437 
       0.178125         997.169         925.971 
       0.184229         926.689         881.033 
        0.19034         894.786         829.093 
       0.196428         851.432         773.616 
       0.202534         783.031          719.47 
       0.208729         759.986         670.868 
       0.214876         722.807          631.43 
       0.220989         677.984         600.664 
       0.227147         663.395         575.924 
        0.23329         639.453         554.333 
       0.239377         628.694         533.161 
       0.245482         595.552         510.493 
       0.251667         569.582         485.921 
       0.257832         559.016          460.83 
       0.263955         525.793         436.822 
       0.270079         504.393         415.036 
        0.27624         482.656         395.998 
       0.282372         471.181         379.821 
        0.28843         466.715         365.884 
       0.294538         443.195         352.978 
       0.300721         429.329         340.276 
        0.30691         421.256         327.422 
       0.313033         401.652         314.534 
       0.319153         394.188         301.726 
       0.325316         385.064         289.328 
        0.33145         374.612         277.835 
       0.337538         360.533         267.444 
       0.343633         349.492         258.026 
       0.349808         340.046         249.289 
       0.355968         333.115         241.122 
       0.362074         322.383         233.312 
       0.368217         318.822         225.612 
       0.374374         311.543         218.005 
       0.380519         298.702         210.585 
       0.386598         294.291         203.521 
       0.392688         286.391         196.803 
        0.39888         279.532         190.393 
       0.405048          273.52         184.429 
       0.411186         271.514         178.843 
       0.417313          266.43         173.547 
       0.423458          259.14         168.445 
       0.429607         252.005         163.489 
       0.435692         247.948         158.723 
       0.441815         243.069         154.073 
       0.447964         236.412         149.567 
       0.454126         233.045         145.237 
       0.460267         229.833         141.125 
       0.466387         224.653         137.223 
        0.47254         221.825         133.476 
       0.478662         215.622         129.902 
       0.484765         212.653         126.474 
       0.490885           209.6         123.152 
       0.497035         206.461         119.916 
       0.503198         204.426         116.777 
       0.509342         199.106         113.754 
       0.515458         196.084         110.854 
       0.521598         191.729         108.051 
       0.527764         189.749         105.342 
       0.533884         188.599         102.753 
           0.54         184.463         100.261 
       0.546137         180.232         97.8469 
       0.552299         178.511         95.5015 
       0.558452         175.462         93.2324 
       0.564573         174.456         91.0446 
       0.570708         170.255          88.921 
       0.576825         167.924         86.8724 
       0.582926         166.226         84.8964 
       0.589034         163.573          82.982 
       0.595184         162.106         81.1163 
       0.601379         159.091         79.2969 
       0.607522         155.702         77.5489 
       0.613639         154.764         75.8615 
       0.619772         153.039         74.2209 
       0.625918         151.602          72.626 
       0.632068         148.184         71.0772 
       0.638161          147.05         69.5874 
         0.6443         145.829         68.1299 
       0.650464         142.961         66.7092 
       0.656582         142.089         65.3399 
       0.662703         140.739         64.0094 
       0.668861         137.782         62.7092 
       0.675024         137.673         61.4449 
       0.681124         135.507         60.2288 
       0.687237         133.956         59.0437 
       0.693381         132.273         57.8853 
       0.699536         131.008         56.7562 
       0.705665         129.531         55.6623 
       0.711789         127.749         54.5984 
       0.717957         126.401         53.5554 
        0.72409         125.008         52.5457 
       0.730186         125.011         51.5684 
       0.736317         123.069          50.611 
       0.742472          121.11         49.6747 
       0.748622         119.335         48.7632 
        0.75476         119.777         47.8768 
       0.760888         118.301          47.014 
       0.767043         116.127         46.1693 
       0.773185         114.934         45.3474 
       0.779291         113.658         44.5503 
       0.785407         112.885         43.7715 
       0.791564         112.008         43.0065 
       0.797719         110.278         42.2604 
       0.803834         110.323         41.5369 
       0.809972         109.226          40.828 
       0.816124         107.464         40.1342 
       0.822261          106.62         39.4586 
       0.828378         106.291         38.8007 
       0.834502         104.943         38.1574 
       0.840667         104.358         37.5247 
       0.846816         103.084         36.9082 
       0.852925         102.103         36.3097 
       0.859047          101.35         35.7233 
       0.865192         100.533          35.148 
       0.871341         99.5217         34.5852 
       0.877463          98.624         34.0374 
       0.883569         98.5777         33.5029 
       0.889708         97.5887         32.9774 
       0.895864         96.6944         32.4618 
       0.902008         95.5923         31.9585 
       0.908149         94.4487         31.4663 
       0.914301         94.2775         30.9837 
       0.920448           94.11         30.5118 
       0.926574         92.1653         30.0515 
       0.932687         92.1433         29.6018 
       0.938823         91.4335         29.1597 
       0.944975         90.5017         28.7257 
       0.951105           89.65         28.3022 
       0.957225         89.4069          27.888 
       0.963368         88.4522         27.4808 
       0.969511         87.9111         27.0818 
       0.975621         86.8266         26.6929 
       0.981748         86.3502         26.3108 
       0.987916         85.7364         25.9337 
        0.99406         85.4436         25.5656 
        1.00019         84.4499         25.2053 
        1.00632         83.7734         24.8524 
        1.01246         83.3615         24.5058 
        1.01859         82.9177         24.1663 
        1.02471         82.2847         23.8338 
        1.03085         81.4904         23.5064 
        1.03698         80.9043          23.186 
        1.04314         80.3798         22.8702 
        1.04929         80.0202          22.561 
        1.05541         79.3523         22.2589 
        1.06154         78.7974         21.9616 
        1.06769         78.2887         21.6693 
        1.07382          77.621         21.3833 
        1.07993         77.3155         21.1032 
        1.08607          76.744          20.827 
        1.09222         76.3569         20.5555 
        1.09836         75.6846         20.2892 
        1.10449         75.2445          20.028 
        1.11063         74.7322         19.7711 
        1.11677         74.3078         19.5189 
         1.1229         73.5938         19.2715 
        1.12903         73.3207         19.0282 
        1.13518         72.8703          18.789 
        1.14131         72.3524          18.554 
        1.14745          72.057         18.3233 
        1.15359         71.1398         18.0964 
        1.15973         71.0512         17.8733 
        1.16584         70.5855         17.6551 
        1.17197         70.1676         17.4401 
        1.17811         69.5872         17.2282 
        1.18424         69.0336         17.0203 
        1.19038         68.8713         16.8154 
        1.19652         68.4569         16.6139 
        1.20267         67.9526         16.4157 
        1.20881         67.5197         16.2209 
        1.21495         67.1009         16.0295 
        1.22108         66.9417         15.8413 
         1.2272         66.2515         15.6565 
        1.23334         66.1011         15.4743 
        1.23949         65.6034         15.2946 
        1.24562          65.069         15.1183 
        1.25174         64.8407          14.945 
        1.25789         64.5599         14.7739 
        1.26402         64.1301         14.6058 
        1.27014         63.7743         14.4407 
        1.27628         63.3169         14.2777 
        1.28244         63.2583          14.117 
        1.28858         62.6852         13.9589 
        1.29471         62.2775         13.8036 
        1.30084         61.7289         13.6509 
        1.30697         61.7585         13.5002 
        1.31312         61.3479         13.3516 
        1.31925         60.8048         13.2058 
        1.32537         60.5725         13.0623 
        1.33151         60.3161         12.9204 
        1.33765         59.9394         12.7807 
        1.34378         59.5377         12.6434 
        1.34992         59.3755          12.508 
        1.35606         58.9055         12.3743 
         1.3622         58.7463         12.2428 
        1.36833         58.3138         12.1136 
        1.37445         57.8771         11.9863 
        1.38059         57.7336         11.8604 
        1.38675         57.1901         11.7361 
        1.39288         57.0662         11.6141 
        1.39901         56.6046         11.4938 
        1.40515         56.4336          11.375 
         1.4113         56.1632          11.258 
        1.41742         55.7718          11.143 
        1.42355          55.639         11.0294 
         1.4297         55.3111         10.9171 
        1.43585         54.9826         10.8064 
        1.44198         54.6292         10.6977 
        1.44809         54.2351         10.5907 
        1.45423         54.1376         10.4847 
        1.46036         53.8404         10.3804 
        1.46649         53.4968         10.2775 
        1.47263         53.2244         10.1759 
        1.47877         53.0194         10.0758 
        1.48491         52.6409         9.97681 
        1.49104         52.3388         9.87939 
        1.49718         52.1623         9.78321 
        1.50333         51.9154         9.68816 
        1.50947         51.6699         9.59458 
         1.5156         51.4927         9.50237 
        1.52172         51.0612         9.41139 
        1.52787         50.8142         9.32142 
          1.534         50.5073         9.23274 
        1.54013         50.5004         9.14531 
        1.54627         49.9919         9.05886 
        1.55241         49.8638         8.97352 
        1.55855         49.5291         8.88941 
        1.56467         49.1421         8.80661 
         1.5708         49.1624         8.72464 
        1.57695         48.8177         8.64359 
        1.58308         48.5647         8.56377 
        1.58922         48.3448          8.4849 
        1.59535         48.2768         8.40706 
         1.6015         48.0753          8.3301 
        1.60764         47.7251         8.25414 
        1.61376         47.4871         8.17934 
        1.61989         47.0924         8.10541 
        1.62604         46.9885         8.03224 
        1.63218         46.6924         7.96002 
        1.63831         46.5765         7.88886 
        1.64444         46.4088         7.81854 
        1.65059         46.0539         7.74893 
        1.65673         45.8435         7.68023 
        1.66285          45.658         7.61257 
        1.66898          45.345          7.5457 
        1.67512         45.1038         7.47951 
        1.68127         45.0474         7.41405 
         1.6874          44.794         7.34953 
        1.69353         44.5318         7.28582 
        1.69967         44.3703         7.22272 
        1.70581         44.1065          7.1604 
        1.71193         43.9127         7.09905 
        1.71806         43.7472         7.03829 
        1.72421         43.5368         6.97812 
        1.73035         43.3326         6.91874 
        1.73649         43.0445         6.86006 
        1.74262         42.7719         6.80211 
        1.74876         42.8318         6.74479 
        1.75489         42.4879         6.68825 
        1.76101         42.3501         6.63239 
        1.76715         42.1275         6.57709 
        1.77329         41.8017         6.52235 
        1.77943         41.8435         6.46821 
        1.78557         41.5446         6.41477 
        1.79171         41.3196         6.36193 
        1.79785         41.1831         6.30968 
        1.80399         40.9323         6.25802 
        1.81012         40.7493         6.20702 
        1.81625          40.535         6.15661 
        1.82239         40.3408         6.10669 
        1.82853         40.1946         6.05734 
        1.83466         40.0076          6.0086 
        1.84078         39.8183         5.96044 
        1.84692         39.6594         5.91273 
        1.85306         39.4547          5.8655 
         1.8592         39.2344         5.81885 
        1.86533         39.1111         5.77274 
        1.87147         38.9195         5.72708 
        1.87761         38.7505         5.68189 
        1.88375         38.5609         5.63725 
        1.88988         38.3756         5.59313 
        1.89601          38.236         5.54947 
        1.90215          37.967         5.50624 
        1.90829         37.8717         5.46349 
        1.91442         37.6451          5.4212 
        1.92056         37.5482         5.37939 
         1.9267         37.4285         5.33798 
        1.93284         37.2431         5.29698 
        1.93897         37.0086          5.2565 
        1.94509         36.8169         5.21652 
        1.95123         36.7085         5.17686 
        1.95737         36.5635         5.13759 
        1.96349         36.4355         5.09883 
        1.96964         36.1674         5.06036 
        1.97578         36.0306         5.02227 
        1.98192         35.8241         4.98464 
        1.98805         35.6495         4.94741 
        1.99419         35.5665         4.91055 
        2.00033         35.4211         4.87405 
        2.00647         35.2659         4.83794 
         2.0126         35.0678         4.80225 
        2.01874         35.0002         4.76687 
        2.02488         34.7262         4.73181 
        2.03101         34.6699         4.69718 
        2.03714         34.4811         4.66293 
        2.04328         34.3717         4.62898 
        2.04941         34.1186         4.59539 
        2.05554         34.0359         4.56217 
        2.06167         33.8852         4.52923 
        2.06781         33.7252         4.49661 
        2.07396         33.5387         4.46427 
        2.08009         33.4119          4.4323 
        2.08622         33.3201         4.40068 
        2.09237         33.1071         4.36931 
        2.09851         32.9943         4.33825 
        2.10464         32.8788         4.30753 
        2.11077         32.7531         4.27716 
        2.11691         32.5158         4.24701 
        2.12305         32.3657         4.21715 
        2.12918         32.2814         4.18765 
        2.13531         32.0599         4.15843 
        2.14145          31.986         4.12942 
         2.1476         31.8942         4.10066 
        2.15372          31.779         4.07232 
        2.15985         31.5423         4.04422 
        2.16599         31.3943          4.0163 
        2.17213         31.3207         3.98868 
        2.17827         31.1918         3.96132 
         2.1844         30.9909         3.93425 
        2.19054         30.9405         3.90742 
        2.19666          30.747         3.88088 
         2.2028          30.552         3.85457 
        2.20893         30.5191         3.82848 
        2.21508         30.3846         3.80261 
        2.22122           30.27         3.77697 
        2.22736         30.0532         3.75162 
        2.23349         30.0165         3.72651 
        2.23962         29.8549         3.70162 
        2.24577          29.718         3.67694 
         2.2519          29.569         3.65251 
        2.25802         29.4407         3.62835 
        2.26417         29.3085         3.60433 
        2.27031         29.1797         3.58052 
        2.27644         29.1587         3.55699 
        2.28257         28.9364         3.53367 
        2.28872         28.8612         3.51052 
        2.29486         28.7586         3.48758 
        2.30099         28.5909         3.46489 
        2.30712         28.4975          3.4424 
        2.31326         28.3472         3.42007 
         2.3194         28.2137         3.39795 
        2.32553         28.1362         3.37607 
        2.33166         27.9953         3.35438 
         2.3378         27.8507         3.33286 
        2.34394         27.7754         3.31152 
        2.35007         27.6967          3.2904 
        2.35619         27.5449         3.26949 
        2.36233         27.3997         3.24871 
        2.36848         27.3523         3.22807 
        2.37462         27.1926         3.20766 
        2.38075         27.0777         3.18744 
        2.38689         26.9853         3.16737 
        2.39303         26.8799         3.14749 
        2.39916          26.687          3.1278 
        2.40529         26.6396         3.10827 
        2.41143          26.527          3.0889 
        2.41757           26.44         3.06969 
         2.4237         26.3334         3.05068 
        2.42983         26.1437         3.03183 
        2.43598         26.0747         3.01309 
        2.44211         25.9552         2.99454 
        2.44823         25.8528         2.97619 
        2.45437         25.8054         2.95794 
        2.46052         25.6316         2.93983 
        2.46665         25.5738          2.9219 
        2.47279         25.3996         2.90413 
        2.47892         25.3333          2.8865 
        2.48507         25.2461           2.869 
         2.4912         25.1215         2.85168 
