# k  (h/Mpc)    Pcb(k)  (Mpc/h)^3    Pcb_linear(k)  (Mpc/h)^3
     0.00783031         2427.23         2451.89 
       0.013688         3186.84         3182.91 
       0.019231         3376.93         3375.84 
      0.0249154         3250.28         3279.21 
      0.0312784         2989.49         3000.33 
      0.0375637          2683.7         2681.49 
      0.0433917            2399         2414.83 
      0.0492413         2194.45         2198.88 
      0.0555754         1998.16          2020.5 
      0.0619321         1886.02         1880.13 
       0.067871         1746.67         1763.16 
      0.0738098         1627.61         1645.01 
      0.0800417         1489.15         1513.31 
      0.0862327         1362.99          1377.6 
      0.0921407         1244.45          1251.7 
      0.0982031         1124.44         1135.19 
       0.104506         1038.43         1034.15 
       0.110769         958.922          955.59 
       0.116806         894.007          897.51 
       0.122832         853.132         851.205 
       0.129052         802.992         809.057 
       0.135211         761.723         767.511 
       0.141259         724.441         724.077 
       0.147318         682.419         677.895 
       0.153489         631.227         630.203 
       0.159709         589.797         584.554 
       0.165845         557.846         544.536 
       0.171974         519.708         510.936 
       0.178125         493.659         483.539 
       0.184229         473.602         461.369 
        0.19034         446.501         442.302 
       0.196428          435.04         424.525 
       0.202534         421.228         406.503 
       0.208729         399.894         387.375 
       0.214876         377.501         367.718 
       0.220989         364.534         348.217 
       0.227147         341.549         329.536 
        0.23329         326.171         312.614 
       0.239377         315.011         297.912 
       0.245482         297.026          285.19 
       0.251667         291.083         273.974 
       0.257832         281.044         263.895 
       0.263955         271.142         254.408 
       0.270079         262.036         245.019 
        0.27624         256.191         235.492 
       0.282372          245.93         225.965 
        0.28843         236.142         216.697 
       0.294538         226.781         207.749 
       0.300721         222.114         199.308 
        0.30691         212.096           191.6 
       0.313033         206.031          184.69 
       0.319153         197.014         178.396 
       0.325316         193.476         172.506 
        0.33145         186.946          166.93 
       0.337538         183.327         161.544 
       0.343633         177.362         156.243 
       0.349808         172.224         150.956 
       0.355968         167.966         145.813 
       0.362074         162.918         140.908 
       0.368217         158.562         136.222 
       0.374374         153.946         131.814 
       0.380519          150.24         127.695 
       0.386598         146.367         123.875 
       0.392688         143.756         120.255 
        0.39888         139.931         116.735 
       0.405048         136.952         113.353 
       0.411186          134.03         110.081 
       0.417313         130.142         106.901 
       0.423458          127.31         103.807 
       0.429607         124.044         100.817 
       0.435692         120.169         97.9768 
       0.441815         118.986         95.2481 
       0.447964         117.129         92.6361 
       0.454126         112.326           90.14 
       0.460267         110.725         87.7623 
       0.466387         108.296         85.4856 
        0.47254         106.718          83.275 
       0.478662         105.057         81.1458 
       0.484765         102.351         79.0882 
       0.490885         100.337          77.087 
       0.497035         99.0596         75.1404 
       0.503198         96.5321         73.2581 
       0.509342         94.3034         71.4503 
       0.515458         92.8429         69.7173 
       0.521598          91.631         68.0418 
       0.527764         90.0145         66.4209 
       0.533884         88.4534         64.8679 
           0.54         86.9294         63.3666 
       0.546137         85.8698          61.906 
       0.552299         84.6634          60.484 
       0.558452         82.3108         59.1074 
       0.564573         80.9823         57.7793 
       0.570708         80.1223         56.4888 
       0.576825         78.4613         55.2422 
       0.582926         77.1212         54.0383 
       0.589034         75.3319         52.8712 
       0.595184          74.535         51.7329 
       0.601379         73.6344         50.6218 
       0.607522         71.9405         49.5527 
       0.613639          71.726          48.519 
       0.619772         69.9238         47.5122 
       0.625918         69.6158          46.532 
       0.632068         68.5759          45.579 
       0.638161         67.4874         44.6612 
         0.6443         66.3919         43.7622 
       0.650464         65.4116         42.8852 
       0.656582          64.946          42.039 
       0.662703         63.6702         41.2161 
       0.668861         62.8916         40.4112 
       0.675024         61.9873         39.6277 
       0.681124         60.9969         38.8732 
       0.687237         60.0383         38.1371 
       0.693381         59.5938         37.4167 
       0.699536         58.4023         36.7137 
       0.705665         58.5595         36.0319 
       0.711789         57.1526         35.3682 
       0.717957         56.6349          34.717 
        0.72409         55.8304         34.0861 
       0.730186         55.0446          33.475 
       0.736317         54.7224         32.8758 
       0.742472         53.7898         32.2893 
       0.748622         53.4103          31.718 
        0.75476         52.6687         31.1618 
       0.760888         51.9673           30.62 
       0.767043         51.4554         30.0891 
       0.773185         50.7021          29.572 
       0.779291         50.4727         29.0701 
       0.785407         49.9423         28.5794 
       0.791564         49.0942          28.097 
       0.797719         48.3001         27.6262 
       0.803834         48.2383         27.1693 
       0.809972         47.6475         26.7212 
       0.816124         46.7113         26.2824 
       0.822261         46.5651         25.8548 
       0.828378         46.1198         25.4382 
       0.834502          45.584         25.0304 
       0.840667         45.1864         24.6291 
       0.846816         44.5435         24.2378 
       0.852925          44.188         23.8576 
       0.859047         43.6368         23.4848 
       0.865192         43.3721         23.1188 
       0.871341         43.1238         22.7605 
       0.877463         42.2953         22.4115 
       0.883569         41.9585         22.0708 
       0.889708         41.6149         21.7354 
       0.895864         41.2876         21.4063 
       0.902008         40.9644         21.0848 
       0.908149          40.583         20.7701 
       0.914301          40.406         20.4614 
       0.920448         39.6207         20.1593 
       0.926574         39.4731         19.8645 
       0.932687         39.0662         19.5762 
       0.938823         38.5885         19.2927 
       0.944975         38.3446         19.0142 
       0.951105         38.0602         18.7423 
       0.957225         37.6142         18.4762 
       0.963368         37.3942         18.2144 
       0.969511         37.1266         17.9578 
       0.975621         36.8602         17.7075 
       0.981748         36.3795         17.4615 
       0.987916          36.206         17.2186 
        0.99406         35.8586         16.9813 
        1.00019         35.4225          16.749 
        1.00632         35.3301         16.5212 
        1.01246         35.0098         16.2975 
        1.01859         34.5928         16.0783 
        1.02471         34.5478         15.8634 
        1.03085         34.2143         15.6518 
        1.03698         33.7245         15.4445 
        1.04314         33.5134         15.2401 
        1.04929         33.2548           15.04 
        1.05541         32.9355         14.8443 
        1.06154         32.7798         14.6516 
        1.06769         32.5665         14.4621 
        1.07382         32.2671         14.2766 
        1.07993         32.1495         14.0948 
        1.08607          31.754         13.9154 
        1.09222         31.5968         13.7391 
        1.09836         31.2279          13.566 
        1.10449         31.1443         13.3961 
        1.11063         30.7736         13.2289 
        1.11677         30.6772         13.0647 
         1.1229         30.5487         12.9036 
        1.12903         30.1583         12.7451 
        1.13518         29.9078         12.5892 
        1.14131          29.841          12.436 
        1.14745         29.6259         12.2854 
        1.15359         29.4497         12.1373 
        1.15973          29.157         11.9916 
        1.16584         28.8615          11.849 
        1.17197          28.889         11.7085 
        1.17811         28.5331         11.5699 
        1.18424         28.2975          11.434 
        1.19038         28.2333         11.2998 
        1.19652         28.0155         11.1679 
        1.20267         27.8098         11.0381 
        1.20881          27.703         10.9104 
        1.21495         27.4877          10.785 
        1.22108         27.2657         10.6616 
         1.2272          27.013         10.5404 
        1.23334         26.8767         10.4208 
        1.23949         26.6672         10.3028 
        1.24562         26.6336          10.187 
        1.25174         26.4564         10.0732 
        1.25789         26.3053         9.96074 
        1.26402         26.1623         9.85025 
        1.27014         25.9254         9.74171 
        1.27628         25.6815         9.63451 
        1.28244         25.6388         9.52872 
        1.28858         25.5271         9.42468 
        1.29471         25.2864         9.32244 
        1.30084         25.1179         9.22182 
        1.30697          24.986         9.12255 
        1.31312         24.7658         9.02461 
        1.31925         24.6378         8.92843 
        1.32537         24.5808         8.83375 
        1.33151         24.3533         8.74012 
        1.33765         24.2499         8.64791 
        1.34378         24.1537         8.55722 
        1.34992         23.8626         8.46778 
        1.35606         23.8336         8.37943 
         1.3622         23.7112         8.29251 
        1.36833         23.5409         8.20704 
        1.37445         23.4554         8.12282 
        1.38059         23.3387         8.03954 
        1.38675         23.1029         7.95723 
        1.39288         23.0291         7.87641 
        1.39901         22.8384         7.79677 
        1.40515         22.7642         7.71805 
         1.4113         22.6319         7.64045 
        1.41742         22.4744         7.56423 
        1.42355         22.3949         7.48891 
         1.4297         22.2532          7.4144 
        1.43585         22.2033         7.34094 
        1.44198         21.9781         7.26876 
        1.44809         21.9244          7.1977 
        1.45423         21.7979         7.12733 
        1.46036         21.7217         7.05803 
        1.46649         21.5981         6.98964 
        1.47263         21.4258         6.92211 
        1.47877         21.3429         6.85551 
        1.48491         21.2247         6.78968 
        1.49104         21.1675         6.72487 
        1.49718         20.9997         6.66086 
        1.50333         20.9086         6.59759 
        1.50947         20.8309         6.53527 
         1.5156         20.6692         6.47386 
        1.52172         20.5376         6.41324 
        1.52787         20.4642         6.35328 
          1.534         20.3671         6.29417 
        1.54013          20.233         6.23588 
        1.54627         20.1355         6.17822 
        1.55241         20.0304         6.12129 
        1.55855         19.9686         6.06516 
        1.56467         19.8616         6.00989 
         1.5708         19.8042         5.95516 
        1.57695         19.6212         5.90104 
        1.58308         19.5808         5.84771 
        1.58922         19.4809         5.79502 
        1.59535         19.3807         5.74299 
         1.6015         19.2569         5.69154 
        1.60764         19.2008         5.64075 
        1.61376         19.1496         5.59072 
        1.61989         18.9598         5.54126 
        1.62604         18.9617         5.49229 
        1.63218         18.8282         5.44395 
        1.63831          18.764         5.39631 
        1.64444         18.6313         5.34922 
        1.65059           18.56         5.30258 
        1.65673         18.4946         5.25656 
        1.66285         18.3519         5.21121 
        1.66898         18.3162         5.16639 
        1.67512         18.2317         5.12201 
        1.68127         18.1021         5.07811 
         1.6874         18.0433         5.03483 
        1.69353         17.9961         4.99208 
        1.69967         17.8615         4.94973 
        1.70581         17.7521         4.90789 
        1.71193         17.6961          4.8667 
        1.71806         17.6643         4.82589 
        1.72421          17.536         4.78548 
        1.73035         17.5026         4.74558 
        1.73649         17.4078         4.70614 
        1.74262          17.344         4.66719 
        1.74876         17.2548         4.62865 
        1.75489         17.1886         4.59063 
        1.76101         17.0744         4.55305 
        1.76715         17.0778         4.51585 
        1.77329         16.9687         4.47902 
        1.77943         16.8585         4.44258 
        1.78557         16.8006         4.40661 
        1.79171         16.7594         4.37103 
        1.79785          16.662         4.33583 
        1.80399         16.5997         4.30104 
        1.81012         16.5182         4.26668 
        1.81625         16.4307          4.2327 
        1.82239         16.3841         4.19906 
        1.82853         16.2538         4.16579 
        1.83466         16.2282         4.13292 
        1.84078         16.1109         4.10044 
        1.84692         16.0971         4.06826 
        1.85306         16.0203         4.03639 
         1.8592          15.952         4.00491 
        1.86533         15.8946         3.97379 
        1.87147         15.8175         3.94296 
        1.87761         15.7566         3.91245 
        1.88375         15.6774          3.8823 
        1.88988         15.6355          3.8525 
        1.89601         15.5707           3.823 
        1.90215         15.4836         3.79379 
        1.90829         15.4353          3.7649 
        1.91442         15.3632         3.73631 
        1.92056         15.3233         3.70804 
         1.9267         15.2508         3.68004 
        1.93284         15.1782         3.65231 
        1.93897         15.0894         3.62492 
        1.94509         15.0554         3.59787 
        1.95123         14.9969         3.57103 
        1.95737         14.9255         3.54445 
        1.96349         14.8577         3.51821 
        1.96964         14.8107         3.49215 
        1.97578         14.7468         3.46636 
        1.98192         14.6759         3.44087 
        1.98805         14.6323         3.41564 
        1.99419         14.5655         3.39067 
        2.00033         14.5248         3.36593 
        2.00647         14.4755         3.34145 
         2.0126         14.3654         3.31726 
        2.01874         14.3293         3.29326 
        2.02488          14.257         3.26949 
        2.03101         14.2325           3.246 
        2.03714         14.1718         3.22276 
        2.04328         14.1092         3.19972 
        2.04941         14.0594         3.17693 
        2.05554         14.0118         3.15437 
        2.06167         13.9452         3.13201 
        2.06781         13.9083         3.10986 
        2.07396         13.8497          3.0879 
        2.08009         13.7801         3.06618 
        2.08622         13.7141          3.0447 
        2.09237          13.696         3.02339 
        2.09851         13.6587         3.00228 
        2.10464         13.5882          2.9814 
        2.11077         13.5245         2.96075 
        2.11691         13.4569         2.94025 
        2.12305         13.4336         2.91994 
        2.12918         13.3972         2.89988 
        2.13531          13.323            2.88 
        2.14145         13.2863         2.86027 
         2.1476         13.2178          2.8407 
        2.15372         13.1823         2.82141 
        2.15985         13.1459         2.80228 
        2.16599         13.0804         2.78327 
        2.17213         13.0567         2.76447 
        2.17827         13.0008         2.74584 
         2.1844         12.9463          2.7274 
        2.19054         12.8725         2.70913 
        2.19666         12.8446         2.69104 
         2.2028         12.7835         2.67311 
        2.20893         12.7692         2.65534 
        2.21508         12.7017          2.6377 
        2.22122         12.6342         2.62023 
        2.22736         12.6103         2.60294 
        2.23349         12.5517         2.58582 
        2.23962         12.5352         2.56884 
        2.24577         12.4616         2.55201 
         2.2519         12.4223         2.53534 
        2.25802         12.3787         2.51886 
        2.26417         12.3249         2.50247 
        2.27031         12.2976         2.48622 
        2.27644          12.258         2.47015 
        2.28257         12.2221         2.45424 
        2.28872         12.1459         2.43843 
        2.29486         12.1237         2.42276 
        2.30099         12.1055         2.40727 
        2.30712         12.0616         2.39191 
        2.31326         11.9836         2.37665 
         2.3194         11.9246         2.36154 
        2.32553         11.9255         2.34658 
        2.33166         11.8646         2.33176 
         2.3378         11.8357         2.31705 
        2.34394         11.7815         2.30246 
        2.35007         11.7174         2.28802 
        2.35619         11.6881         2.27372 
        2.36233         11.6435         2.25951 
        2.36848         11.6228          2.2454 
        2.37462         11.5646         2.23143 
        2.38075         11.5191          2.2176 
        2.38689         11.4872         2.20387 
        2.39303         11.4461         2.19026 
        2.39916          11.412         2.17678 
        2.40529         11.3832         2.16342 
        2.41143         11.3228         2.15015 
        2.41757         11.3089           2.137 
         2.4237         11.2532         2.12398 
        2.42983         11.2341         2.11107 
        2.43598         11.1929         2.09823 
        2.44211         11.1397         2.08552 
        2.44823         11.1221         2.07295 
        2.45437         11.0704         2.06044 
        2.46052         11.0253         2.04803 
        2.46665         10.9901         2.03575 
        2.47279          10.954         2.02356 
        2.47892         10.9093         2.01148 
        2.48507         10.8708         1.99947 
         2.4912         10.8432         1.98759 
