# k  (h/Mpc)    Pcb(k)  (Mpc/h)^3    Pcb_linear(k)  (Mpc/h)^3
     0.00783031          76.612         77.2621 
       0.013688         92.8482         93.5233 
       0.019231         92.2679         92.4948 
      0.0249154         83.0687         83.1343 
      0.0312784         69.7353         69.6778 
      0.0375637         57.8402         57.7749 
      0.0433917          49.699         49.5737 
      0.0492413         44.1166         44.0559 
      0.0555754         40.3312         40.2548 
      0.0619321         37.4384         37.5016 
       0.067871         34.9405         34.9612 
      0.0738098         31.9707         31.9839 
      0.0800417         28.4197         28.4016 
      0.0862327         24.7752         24.7564 
      0.0921407         21.6493         21.6317 
      0.0982031          19.135         19.0867 
       0.104506         17.2463         17.2374 
       0.110769          16.081         16.0765 
       0.116806         15.3673         15.3522 
       0.122832          14.734         14.7483 
       0.129052         14.0215          14.026 
       0.135211         13.1112         13.1055 
       0.141259         12.0285         12.0321 
       0.147318         10.8969         10.9062 
       0.153489         9.85578          9.8497 
       0.159709         8.99574         8.98323 
       0.165845          8.3513         8.35956 
       0.171974         7.95023         7.93737 
       0.178125         7.64857         7.64374 
       0.184229         7.38947         7.39588 
        0.19034         7.12558          7.1192 
       0.196428         6.77801          6.7773 
       0.202534         6.35595         6.37029 
       0.208729         5.92796          5.9266 
       0.214876         5.51547         5.50265 
       0.220989         5.13305         5.13595 
       0.227147          4.8547         4.84144 
        0.23329           4.633          4.6203 
       0.239377         4.46588         4.45407 
       0.245482         4.32273         4.31312 
       0.251667         4.17153         4.17031 
       0.257832         4.01951         4.01082 
       0.263955         3.83462         3.83105 
       0.270079         3.64078         3.63729 
        0.27624         3.44187         3.44258 
       0.282372         3.26407         3.26297 
        0.28843         3.11824         3.10914 
       0.294538         2.98793          2.9801 
       0.300721         2.87502         2.87266 
        0.30691         2.78721         2.78003 
       0.313033         2.69993         2.69409 
       0.319153         2.62069         2.60646 
       0.325316         2.51436         2.51304 
        0.33145         2.41751         2.41514 
       0.337538         2.32107          2.3168 
       0.343633           2.229         2.22155 
       0.349808         2.13829         2.13265 
       0.355968         2.05722         2.05347 
       0.362074         1.99187         1.98459 
       0.368217         1.92912         1.92281 
       0.374374         1.87635         1.86554 
       0.380519         1.81618         1.81037 
       0.386598         1.75968         1.75553 
       0.392688          1.7022          1.6999 
        0.39888         1.64818         1.64303 
       0.405048         1.59289         1.58727 
       0.411186         1.53914         1.53428 
       0.417313         1.49086         1.48487 
       0.423458         1.44231         1.43913 
       0.429607         1.40351          1.3971 
       0.435692         1.36527         1.35836 
       0.441815         1.32687         1.32117 
       0.447964         1.28737          1.2849 
       0.454126         1.25479         1.24913 
       0.460267         1.22152          1.2138 
       0.466387         1.18587         1.17915 
        0.47254         1.15294         1.14539 
       0.478662          1.1196          1.1132 
       0.484765          1.0899         1.08269 
       0.490885          1.0596         1.05379 
       0.497035         1.03026          1.0264 
       0.503198          1.0063         1.00025 
       0.509342        0.978725        0.975109 
       0.515458        0.956613        0.950771 
       0.521598        0.932821        0.926946 
       0.527764        0.911388        0.903587 
       0.533884         0.88517        0.880962 
           0.54        0.864176         0.85902 
       0.546137        0.841746        0.837795 
       0.552299         0.82243        0.817392 
       0.558452        0.803398        0.797899 
       0.564573         0.78448        0.779264 
       0.570708        0.766535        0.761237 
       0.576825         0.74915        0.743827 
       0.582926        0.731233        0.726976 
       0.589034        0.716986        0.710582 
       0.595184        0.701226        0.694528 
       0.601379        0.684051        0.678796 
       0.607522        0.668464        0.663641 
       0.613639        0.652848         0.64901 
       0.619772        0.640368        0.634821 
       0.625918        0.626394        0.621094 
       0.632068        0.613158        0.607823 
       0.638161        0.600055        0.595093 
         0.6443        0.587538        0.582645 
       0.650464        0.575926        0.570489 
       0.656582        0.564533        0.558738 
       0.662703        0.552674        0.547288 
       0.668861        0.540082         0.53608 
       0.675024        0.529926        0.525175 
       0.681124        0.521579        0.514694 
       0.687237        0.509897        0.504496 
       0.693381         0.49889        0.494545 
       0.699536        0.490681        0.484856 
       0.705665         0.48126        0.475476 
       0.711789        0.470714        0.466354 
       0.717957         0.46249        0.457406 
        0.72409        0.453301        0.448737 
       0.730186        0.446169         0.44034 
       0.736317        0.436729         0.43211 
       0.742472        0.429362         0.42406 
       0.748622        0.421619        0.416224 
        0.75476        0.413656        0.408605 
       0.760888        0.406854        0.401193 
       0.767043        0.397468         0.39394 
       0.773185        0.391392        0.386885 
       0.779291        0.385587        0.380046 
       0.785407        0.378127        0.373364 
       0.791564        0.371622        0.366802 
       0.797719        0.365202        0.360402 
       0.803834        0.358867        0.354195 
       0.809972        0.352872        0.348112 
       0.816124        0.346683        0.342159 
       0.822261        0.341296        0.336361 
       0.828378        0.335319        0.330716 
       0.834502        0.329783        0.325196 
       0.840667        0.324766        0.319767 
       0.846816        0.319244        0.314478 
       0.852925        0.313427        0.309344 
       0.859047         0.30864        0.304314 
       0.865192        0.303978         0.29938 
       0.871341        0.299518        0.294554 
       0.877463        0.293963        0.289857 
       0.883569        0.289629        0.285275 
       0.889708        0.285235        0.280769 
       0.895864        0.280888         0.27635 
       0.902008        0.276204        0.272036 
       0.908149         0.27233        0.267816 
       0.914301        0.268681        0.263681 
       0.920448        0.264362        0.259637 
       0.926574         0.26074        0.255692 
       0.932687        0.256908        0.251838 
       0.938823        0.252353         0.24805 
       0.944975        0.248958        0.244332 
       0.951105        0.244808        0.240704 
       0.957225          0.2412        0.237156 
       0.963368        0.238216        0.233668 
       0.969511        0.235103         0.23025 
       0.975621        0.231176        0.226919 
       0.981748        0.227403        0.223646 
       0.987916        0.224481        0.220417 
        0.99406        0.221574        0.217265 
        1.00019        0.218295         0.21418 
        1.00632         0.21577        0.211159 
        1.01246        0.212809        0.208192 
        1.01859         0.20968        0.205286 
        1.02471        0.206506         0.20244 
        1.03085        0.203495        0.199639 
        1.03698         0.20112        0.196896 
        1.04314        0.198346        0.194194 
        1.04929        0.196102        0.191549 
        1.05541        0.192916        0.188964 
        1.06154        0.190609         0.18642 
        1.06769        0.188306         0.18392 
        1.07382        0.185803        0.181474 
        1.07993        0.183472        0.179078 
        1.08607        0.180795        0.176716 
        1.09222        0.178557        0.174395 
        1.09836        0.176169        0.172118 
        1.10449        0.173853        0.169884 
        1.11063         0.17174        0.167688 
        1.11677        0.169776        0.165532 
         1.1229        0.167193        0.163417 
        1.12903        0.165386        0.161338 
        1.13518        0.163199        0.159294 
        1.14131        0.161319        0.157286 
        1.14745        0.159732        0.155314 
        1.15359        0.157523        0.153375 
        1.15973        0.155824        0.151469 
        1.16584        0.153708        0.149605 
        1.17197        0.151723        0.147769 
        1.17811        0.149869        0.145958 
        1.18424        0.148089        0.144183 
        1.19038         0.14611        0.142432 
        1.19652        0.144901        0.140711 
        1.20267        0.143019        0.139019 
        1.20881        0.140926        0.137355 
        1.21495        0.139496        0.135721 
        1.22108        0.138043        0.134114 
         1.2272        0.136221        0.132537 
        1.23334        0.134716        0.130981 
        1.23949        0.133418        0.129447 
        1.24562        0.131803        0.127942 
        1.25174        0.130286        0.126463 
        1.25789        0.128472        0.125003 
        1.26402        0.127489        0.123569 
        1.27014        0.125646         0.12216 
        1.27628         0.12452         0.12077 
        1.28244        0.123153        0.119399 
        1.28858        0.121583         0.11805 
        1.29471        0.120343        0.116726 
        1.30084        0.118966        0.115423 
        1.30697        0.117905        0.114139 
        1.31312        0.116638        0.112872 
        1.31925        0.115235        0.111628 
        1.32537        0.114058        0.110404 
        1.33151        0.112846        0.109195 
        1.33765        0.111533        0.108004 
        1.34378         0.11026        0.106833 
        1.34992         0.10948        0.105679 
        1.35606        0.108153         0.10454 
         1.3622        0.106998         0.10342 
        1.36833        0.106023        0.102318 
        1.37445        0.105013        0.101234 
        1.38059        0.103723        0.100161 
        1.38675        0.102596        0.099102 
        1.39288        0.101405       0.0980624 
        1.39901        0.100737       0.0970381 
        1.40515       0.0995494       0.0960262 
         1.4113       0.0986839       0.0950292 
        1.41742        0.097716       0.0940502 
        1.42355          0.0964       0.0930832 
         1.4297       0.0957533       0.0921268 
        1.43585        0.094638       0.0911844 
        1.44198       0.0937717       0.0902587 
        1.44809       0.0928109       0.0893477 
        1.45423       0.0919347       0.0884459 
        1.46036       0.0910061       0.0875581 
        1.46649       0.0900886       0.0866823 
        1.47263       0.0890403       0.0858178 
        1.47877       0.0886045       0.0849654 
        1.48491       0.0874234       0.0841233 
        1.49104       0.0868499       0.0832944 
        1.49718       0.0859297       0.0824761 
        1.50333       0.0850844       0.0816675 
        1.50947       0.0843433       0.0808713 
         1.5156       0.0834996        0.080087 
        1.52172       0.0827403       0.0793131 
        1.52787       0.0818334       0.0785479 
          1.534       0.0812581       0.0777937 
        1.54013       0.0803726       0.0770503 
        1.54627       0.0797481       0.0763152 
        1.55241       0.0790046       0.0755896 
        1.55855       0.0782612       0.0748745 
        1.56467       0.0776318       0.0741707 
         1.5708       0.0768229       0.0734739 
        1.57695       0.0761661        0.072785 
        1.58308       0.0752872       0.0721066 
        1.58922       0.0747878       0.0714364 
        1.59535       0.0740292       0.0707749 
         1.6015       0.0734745       0.0701209 
        1.60764       0.0727014       0.0694755 
        1.61376       0.0721097       0.0688401 
        1.61989       0.0714269        0.068212 
        1.62604       0.0708649       0.0675905 
        1.63218       0.0702416        0.066977 
        1.63831       0.0696355       0.0663726 
        1.64444       0.0689995       0.0657755 
        1.65059       0.0682836       0.0651843 
        1.65673       0.0678246        0.064601 
        1.66285       0.0672884       0.0640265 
        1.66898       0.0665508       0.0634588 
        1.67512       0.0660569       0.0628969 
        1.68127       0.0655158       0.0623413 
         1.6874       0.0649774       0.0617936 
        1.69353       0.0644314       0.0612529 
        1.69967       0.0637283       0.0607173 
        1.70581       0.0634199       0.0601884 
        1.71193        0.062861       0.0596678 
        1.71806       0.0622864       0.0591522 
        1.72421       0.0616783       0.0586417 
        1.73035        0.061284       0.0581379 
        1.73649       0.0607402         0.05764 
        1.74262        0.060232       0.0571484 
        1.74876       0.0598069       0.0566622 
        1.75489       0.0592496       0.0561826 
        1.76101       0.0588087       0.0557088 
        1.76715        0.058375       0.0552398 
        1.77329       0.0578131       0.0547756 
        1.77943       0.0573328       0.0543165 
        1.78557       0.0569773       0.0538634 
        1.79171       0.0565239       0.0534154 
        1.79785       0.0559702       0.0529724 
        1.80399       0.0555404       0.0525345 
        1.81012       0.0551393       0.0521022 
        1.81625       0.0547042       0.0516749 
        1.82239       0.0543458       0.0512518 
        1.82853       0.0538504       0.0508336 
        1.83466       0.0534364       0.0504205 
        1.84078       0.0530615       0.0500124 
        1.84692       0.0526698       0.0496082 
        1.85306       0.0522384        0.049208 
         1.8592        0.051837       0.0488128 
        1.86533        0.051487       0.0484222 
        1.87147       0.0510777       0.0480354 
        1.87761       0.0505984       0.0476526 
        1.88375       0.0501431       0.0472745 
        1.88988       0.0499092       0.0469009 
        1.89601       0.0494884       0.0465311 
        1.90215       0.0490609       0.0461651 
        1.90829        0.048676       0.0458031 
        1.91442       0.0483851        0.045445 
        1.92056       0.0480086       0.0450911 
         1.9267       0.0476646       0.0447406 
        1.93284       0.0472429       0.0443936 
        1.93897       0.0468988       0.0440509 
        1.94509       0.0465605       0.0437126 
        1.95123       0.0462502        0.043377 
        1.95737       0.0459729       0.0430446 
        1.96349       0.0456604       0.0427166 
        1.96964       0.0452485       0.0423911 
        1.97578       0.0449564       0.0420688 
        1.98192       0.0446218       0.0417506 
        1.98805       0.0443478       0.0414355 
        1.99419       0.0440146       0.0411238 
        2.00033       0.0436381        0.040815 
        2.00647       0.0433451       0.0405096 
         2.0126       0.0431398       0.0402077 
        2.01874       0.0427403       0.0399085 
        2.02488       0.0424307       0.0396121 
        2.03101       0.0421149       0.0393192 
        2.03714       0.0420036       0.0390296 
        2.04328       0.0415187       0.0387425 
        2.04941       0.0413039       0.0384586 
        2.05554        0.041068       0.0381777 
        2.06167       0.0407284       0.0378993 
        2.06781       0.0404238       0.0376236 
        2.07396       0.0401312       0.0373503 
        2.08009       0.0398654       0.0370801 
        2.08622        0.039632       0.0368129 
        2.09237       0.0393339       0.0365478 
        2.09851       0.0390942       0.0362853 
        2.10464       0.0388132       0.0360258 
        2.11077       0.0385343       0.0357692 
        2.11691       0.0383422       0.0355145 
        2.12305       0.0379727       0.0352622 
        2.12918       0.0377629        0.035013 
        2.13531       0.0375145       0.0347662 
        2.14145       0.0372613       0.0345212 
         2.1476       0.0370354       0.0342783 
        2.15372       0.0367842       0.0340389 
        2.15985       0.0365361       0.0338016 
        2.16599        0.036248       0.0335659 
        2.17213       0.0361074       0.0333326 
        2.17827       0.0358453       0.0331017 
         2.1844       0.0355878       0.0328731 
        2.19054       0.0353839       0.0326466 
        2.19666       0.0351291       0.0324226 
         2.2028       0.0348594       0.0322005 
        2.20893       0.0347013       0.0319803 
        2.21508       0.0344175        0.031762 
        2.22122       0.0341912       0.0315456 
        2.22736       0.0340159       0.0313317 
        2.23349       0.0337706       0.0311198 
        2.23962        0.033612       0.0309098 
        2.24577       0.0333885       0.0307015 
         2.2519        0.033137       0.0304955 
        2.25802       0.0329735       0.0302916 
        2.26417       0.0327712       0.0300891 
        2.27031       0.0325713       0.0298882 
        2.27644       0.0323785       0.0296897 
        2.28257       0.0321576       0.0294931 
        2.28872       0.0319731       0.0292978 
        2.29486       0.0317747       0.0291044 
        2.30099       0.0315501       0.0289131 
        2.30712       0.0314196       0.0287234 
        2.31326       0.0311431       0.0285351 
         2.3194       0.0309809       0.0283487 
        2.32553       0.0308254       0.0281641 
        2.33166       0.0305908       0.0279814 
         2.3378       0.0304265          0.0278 
        2.34394       0.0302389       0.0276201 
        2.35007       0.0300815       0.0274421 
        2.35619       0.0299629       0.0272658 
        2.36233       0.0297011       0.0270907 
        2.36848       0.0295434       0.0269168 
        2.37462       0.0293966       0.0267448 
        2.38075       0.0292034       0.0265744 
        2.38689       0.0290392       0.0264054 
        2.39303       0.0288943       0.0262379 
        2.39916       0.0286517        0.026072 
        2.40529        0.028483       0.0259076 
        2.41143        0.028316       0.0257444 
        2.41757       0.0281795       0.0255826 
         2.4237       0.0279901       0.0254225 
        2.42983       0.0278449       0.0252637 
        2.43598       0.0276854       0.0251059 
        2.44211       0.0275104       0.0249497 
        2.44823       0.0273685       0.0247952 
        2.45437       0.0272061       0.0246416 
        2.46052        0.027053       0.0244891 
        2.46665       0.0268821       0.0243382 
        2.47279       0.0267906       0.0241886 
        2.47892       0.0266378       0.0240402 
        2.48507       0.0264538       0.0238929 
         2.4912       0.0263135       0.0237471 
