# k  (h/Mpc)    P(k)  (Mpc/h)^3    P_linear(k)  (Mpc/h)^3
     0.00783031         7587.15         7654.98 
       0.013688         9055.28            9248 
       0.019231         9036.29         9138.54 
      0.0249154         8228.61         8209.77 
      0.0312784          6849.1          6878.7 
      0.0375637            5651         5702.49 
      0.0433917         4893.72         4892.41 
      0.0492413         4322.97         4347.49 
      0.0555754         3978.38         3972.12 
      0.0619321         3619.45         3700.26 
       0.067871         3416.67         3449.46 
      0.0738098         3141.75         3155.61 
      0.0800417         2804.81         2802.09 
      0.0862327         2439.99         2442.39 
      0.0921407         2145.52         2134.08 
      0.0982031         1918.68         1882.97 
       0.104506         1711.75         1700.51 
       0.110769         1602.51         1585.98 
       0.116806         1548.95         1514.51 
       0.122832         1468.66         1454.93 
       0.129052         1399.11         1383.66 
       0.135211         1328.51         1292.85 
       0.141259         1212.67         1186.95 
       0.147318         1096.47         1075.87 
       0.153489         1007.12         971.645 
       0.159709         941.966         886.167 
       0.165845         860.724         824.641 
       0.171974         841.097         782.991 
       0.178125          810.78         754.026 
       0.184229         764.197         729.576 
        0.19034         746.813         702.284 
       0.196428         717.112         668.551 
       0.202534          663.12         628.401 
       0.208729         640.217          584.63 
       0.214876         605.195         542.808 
       0.220989         560.937         506.634 
       0.227147          544.72         477.583 
        0.23329         523.198         455.767 
       0.239377         513.458         439.369 
       0.245482          489.07         425.465 
       0.251667         470.264         411.377 
       0.257832         463.965         395.646 
       0.263955         436.861         377.912 
       0.270079         418.473         358.797 
        0.27624         399.008         339.589 
       0.282372         387.041         321.871 
        0.28843          382.32         306.698 
       0.294538         362.819         293.969 
       0.300721         350.292         283.369 
        0.30691         344.648         274.232 
       0.313033         329.457         265.757 
       0.319153         323.829          257.11 
       0.325316          315.25         247.894 
        0.33145         306.247         238.237 
       0.337538         294.851         228.537 
       0.343633         285.302          219.14 
       0.349808         276.839         210.372 
       0.355968         270.645         202.561 
       0.362074         262.985         195.766 
       0.368217         259.191         189.671 
       0.374374         252.944         184.023 
       0.380519         242.544         178.581 
       0.386598         238.592         173.171 
       0.392688         231.971         167.683 
        0.39888         226.812         162.073 
       0.405048         221.815         156.573 
       0.411186         219.342         151.346 
       0.417313         214.656         146.472 
       0.423458         208.854         141.959 
       0.429607         203.653         137.814 
       0.435692         200.273         133.992 
       0.441815         195.775         130.324 
       0.447964         190.247         126.746 
       0.454126         187.173         123.219 
       0.460267         184.968         119.732 
       0.466387         180.712         116.315 
        0.47254         178.536         112.984 
       0.478662         172.917         109.809 
       0.484765         170.615         106.799 
       0.490885         167.632         103.949 
       0.497035         165.717         101.247 
       0.503198         163.217         98.6676 
       0.509342         158.897         96.1876 
       0.515458         156.723         93.7864 
       0.521598         152.952         91.4363 
       0.527764         151.432         89.1322 
       0.533884         150.589         86.9003 
           0.54         146.757         84.7359 
       0.546137          143.43         82.6423 
       0.552299         141.705         80.6295 
       0.558452         139.203         78.7068 
       0.564573         138.509         76.8685 
       0.570708         134.856         75.0903 
       0.576825         133.216         73.3729 
       0.582926         131.748         71.7107 
       0.589034         129.622         70.0936 
       0.595184          128.32         68.5099 
       0.601379         125.585         66.9581 
       0.607522         123.186         65.4631 
       0.613639         122.278         64.0199 
       0.619772         120.483         62.6203 
       0.625918         119.615         61.2661 
       0.632068         116.871         59.9571 
       0.638161         115.603         58.7013 
         0.6443         114.888         57.4734 
       0.650464         112.493         56.2745 
       0.656582         111.986         55.1152 
       0.662703         110.639         53.9857 
       0.668861         108.301         52.8801 
       0.675024         108.289         51.8045 
       0.681124         106.434         50.7706 
       0.687237         104.828         49.7647 
       0.693381          103.89          48.783 
       0.699536         102.645         47.8273 
       0.705665         101.401          46.902 
       0.711789          100.05         46.0022 
       0.717957         98.8535         45.1195 
        0.72409         97.9439         44.2644 
       0.730186         97.5682         43.4361 
       0.736317         95.9467         42.6243 
       0.742472         94.5213         41.8302 
       0.748622         93.1418         41.0572 
        0.75476         93.1381         40.3057 
       0.760888         92.3159         39.5746 
       0.767043         90.4949         38.8591 
       0.773185         89.4337         38.1632 
       0.779291          88.472         37.4886 
       0.785407         87.6794         36.8294 
       0.791564         87.2542         36.1822 
       0.797719         85.9658         35.5508 
       0.803834          85.575         34.9386 
       0.809972          84.834         34.3385 
       0.816124          83.636         33.7513 
       0.822261         82.6956         33.1794 
       0.828378         82.5171         32.6225 
       0.834502         81.3662          32.078 
       0.840667         80.8282         31.5425 
       0.846816         80.0504         31.0208 
       0.852925         79.0757         30.5143 
       0.859047         78.7831         30.0182 
       0.865192         77.7842         29.5315 
       0.871341         76.9484         29.0554 
       0.877463         76.3242         28.5921 
       0.883569         76.2318         28.1401 
       0.889708          75.442         27.6956 
       0.895864         74.8293         27.2597 
       0.902008         74.0249         26.8342 
       0.908149         73.0895          26.418 
       0.914301         72.9084           26.01 
       0.920448         72.6986         25.6111 
       0.926574         71.1889          25.222 
       0.932687         71.0221         24.8418 
       0.938823         70.4759         24.4682 
       0.944975         69.6278         24.1014 
       0.951105         69.0633         23.7435 
       0.957225         68.8664         23.3936 
       0.963368         68.1524         23.0495 
       0.969511         67.6688         22.7123 
       0.975621         67.0304         22.3838 
       0.981748         66.4728         22.0609 
       0.987916         65.9695         21.7424 
        0.99406         65.7067         21.4314 
        1.00019          64.857         21.1272 
        1.00632         64.4062         20.8291 
        1.01246         64.0454         20.5364 
        1.01859         63.7602         20.2498 
        1.02471         63.1133         19.9691 
        1.03085         62.5948         19.6927 
        1.03698         62.2378         19.4222 
        1.04314          61.728         19.1557 
        1.04929         61.3172         18.8947 
        1.05541         60.9307         18.6397 
        1.06154          60.534         18.3889 
        1.06769         59.9642         18.1422 
        1.07382         59.4177          17.901 
        1.07993         59.2683         17.6646 
        1.08607         58.7746         17.4316 
        1.09222         58.5444         17.2026 
        1.09836         58.0274          16.978 
        1.10449          57.697         16.7577 
        1.11063         57.2419         16.5411 
        1.11677         57.0077         16.3284 
         1.1229         56.4266         16.1198 
        1.12903          56.223         15.9147 
        1.13518          56.016          15.713 
        1.14131         55.4541          15.515 
        1.14745         55.1203         15.3204 
        1.15359         54.4691         15.1292 
        1.15973         54.4891         14.9412 
        1.16584         54.0579         14.7573 
        1.17197         53.5648         14.5762 
        1.17811         53.3012         14.3976 
        1.18424         52.6343         14.2225 
        1.19038         52.5765         14.0498 
        1.19652         52.3141           13.88 
        1.20267         51.9238         13.7131 
        1.20881         51.6115          13.549 
        1.21495          51.345         13.3878 
        1.22108         51.2273         13.2292 
         1.2272         50.6409         13.0736 
        1.23334         50.4538         12.9202 
        1.23949         50.1132         12.7689 
        1.24562         49.7725         12.6204 
        1.25174         49.4944         12.4745 
        1.25789         49.3734         12.3305 
        1.26402         48.9863          12.189 
        1.27014         48.8312         12.0501 
        1.27628         48.3202          11.913 
        1.28244         48.3018         11.7777 
        1.28858         47.8902         11.6447 
        1.29471         47.5524         11.5141 
        1.30084         47.1444         11.3856 
        1.30697         47.2275         11.2588 
        1.31312         46.8022         11.1339 
        1.31925         46.4217         11.0112 
        1.32537         46.2102         10.8905 
        1.33151         45.9354         10.7712 
        1.33765         45.7576         10.6537 
        1.34378         45.5054         10.5382 
        1.34992         45.2305         10.4244 
        1.35606         44.8698          10.312 
         1.3622         44.7468         10.2015 
        1.36833         44.5292         10.0929 
        1.37445         44.0682         9.98586 
        1.38059         44.0041         9.88009 
        1.38675         43.5957          9.7756 
        1.39288         43.5464         9.67304 
        1.39901         43.1731         9.57201 
        1.40515         43.0529          9.4722 
         1.4113         42.9416         9.37385 
        1.41742         42.6163         9.27728 
        1.42355         42.3613         9.18188 
         1.4297           42.19         9.08755 
        1.43585         41.9221         8.99458 
        1.44198         41.6299         8.90328 
        1.44809         41.3851         8.81341 
        1.45423         41.2664         8.72445 
        1.46036          41.094         8.63689 
        1.46649         40.8395         8.55049 
        1.47263         40.6097         8.46521 
        1.47877         40.4394         8.38114 
        1.48491         40.2291         8.29807 
        1.49104         39.9314          8.2163 
        1.49718         39.8272         8.13558 
        1.50333         39.6413         8.05582 
        1.50947         39.3943         7.97728 
         1.5156         39.2386         7.89992 
        1.52172         38.9524         7.82358 
        1.52787         38.8229          7.7481 
          1.534         38.5581         7.67371 
        1.54013         38.5763         7.60037 
        1.54627         38.1915         7.52786 
        1.55241         38.0057         7.45629 
        1.55855         37.9015         7.38575 
        1.56467          37.597         7.31632 
         1.5708         37.5728         7.24759 
        1.57695          37.356         7.17964 
        1.58308         37.0624         7.11271 
        1.58922         36.9267          7.0466 
        1.59535         36.8129         6.98135 
         1.6015         36.7533         6.91684 
        1.60764         36.4307         6.85318 
        1.61376         36.2453          6.7905 
        1.61989         35.9911         6.72855 
        1.62604         35.8805         6.66723 
        1.63218         35.6348         6.60672 
        1.63831         35.5731          6.5471 
        1.64444         35.4107          6.4882 
        1.65059         35.1896         6.42988 
        1.65673         35.0381         6.37234 
        1.66285          34.958         6.31567 
        1.66898         34.6791         6.25967 
        1.67512         34.5637         6.20425 
        1.68127         34.3977         6.14944 
         1.6874         34.2484         6.09542 
        1.69353         34.1363         6.04208 
        1.69967         33.9867         5.98925 
        1.70581         33.7402         5.93708 
        1.71193         33.6024         5.88572 
        1.71806          33.491         5.83487 
        1.72421          33.325         5.78451 
        1.73035         33.1495         5.73481 
        1.73649         32.9369          5.6857 
        1.74262         32.7381          5.6372 
        1.74876         32.7967         5.58924 
        1.75489         32.5155         5.54194 
        1.76101         32.4091          5.4952 
        1.76715         32.2654         5.44893 
        1.77329         32.0019         5.40314 
        1.77943         32.0008         5.35786 
        1.78557         31.8757         5.31317 
        1.79171         31.6875         5.26897 
        1.79785         31.5659         5.22528 
        1.80399          31.392         5.18208 
        1.81012         31.3042         5.13944 
        1.81625         31.0243         5.09729 
        1.82239         30.9437         5.05555 
        1.82853         30.8317          5.0143 
        1.83466         30.6707         4.97355 
        1.84078         30.5251          4.9333 
        1.84692         30.3831         4.89343 
        1.85306         30.2233         4.85395 
         1.8592         30.1625         4.81496 
        1.86533         30.0151         4.77643 
        1.87147         29.8756         4.73828 
        1.87761         29.6961         4.70052 
        1.88375         29.6151         4.66322 
        1.88988         29.4966         4.62637 
        1.89601         29.3049          4.5899 
        1.90215         29.1986         4.55379 
        1.90829         29.0943         4.51809 
        1.91442         28.9412         4.48276 
        1.92056         28.8352         4.44785 
         1.9267         28.7683         4.41327 
        1.93284         28.6072         4.37904 
        1.93897         28.5226         4.34524 
        1.94509         28.3466         4.31187 
        1.95123         28.2746         4.27876 
        1.95737         28.1003         4.24598 
        1.96349         28.0496         4.21363 
        1.96964         27.9025         4.18152 
        1.97578          27.719         4.14973 
        1.98192         27.6123         4.11833 
        1.98805         27.4761         4.08726 
        1.99419         27.3861          4.0565 
        2.00033         27.2547         4.02605 
        2.00647         27.2087         3.99592 
         2.0126         27.0156         3.96614 
        2.01874         26.9361         3.93663 
        2.02488         26.7695         3.90739 
        2.03101         26.6542          3.8785 
        2.03714         26.5856         3.84993 
        2.04328          26.471         3.82161 
        2.04941         26.3256         3.79361 
        2.05554         26.2433          3.7659 
        2.06167         26.1254         3.73844 
        2.06781         26.0302         3.71124 
        2.07396         25.9111         3.68428 
        2.08009         25.7842         3.65763 
        2.08622         25.6941         3.63127 
        2.09237         25.6016         3.60512 
        2.09851          25.494         3.57923 
        2.10464          25.339         3.55363 
        2.11077          25.308         3.52832 
        2.11691         25.1394         3.50319 
        2.12305          25.052         3.47831 
        2.12918         24.9424         3.45373 
        2.13531         24.8582         3.42938 
        2.14145         24.7607         3.40521 
         2.1476         24.6255         3.38125 
        2.15372          24.576         3.35764 
        2.15985          24.428         3.33423 
        2.16599         24.2867         3.31098 
        2.17213         24.2332         3.28797 
        2.17827         24.1335         3.26519 
         2.1844         24.0293         3.24264 
        2.19054         23.9862          3.2203 
        2.19666          23.827          3.1982 
         2.2028         23.7875         3.17629 
        2.20893         23.6756         3.15458 
        2.21508         23.5721         3.13304 
        2.22122         23.4645         3.11169 
        2.22736         23.3907         3.09059 
        2.23349         23.2619         3.06969 
        2.23962         23.1852         3.04898 
        2.24577         23.0767         3.02843 
         2.2519         22.9836         3.00811 
        2.25802         22.8561           2.988 
        2.26417         22.7715         2.96802 
        2.27031         22.7022          2.9482 
        2.27644         22.6389         2.92863 
        2.28257           22.54         2.90923 
        2.28872           22.48         2.88997 
        2.29486         22.3605         2.87089 
        2.30099         22.2279         2.85202 
        2.30712         22.1763         2.83331 
        2.31326         22.0596         2.81474 
         2.3194         21.9997         2.79634 
        2.32553         21.9201         2.77814 
        2.33166          21.814         2.76011 
         2.3378         21.7323         2.74222 
        2.34394         21.6501         2.72447 
        2.35007         21.5807         2.70691 
        2.35619         21.5327         2.68953 
        2.36233         21.3531         2.67226 
        2.36848         21.2973          2.6551 
        2.37462         21.2704         2.63813 
        2.38075         21.1394         2.62133 
        2.38689         21.0175         2.60466 
        2.39303         20.9889         2.58813 
        2.39916         20.8638         2.57177 
        2.40529         20.8197         2.55555 
        2.41143         20.6968         2.53946 
        2.41757          20.595         2.52349 
         2.4237         20.5644          2.5077 
        2.42983         20.4572         2.49204 
        2.43598         20.3564         2.47647 
        2.44211         20.3093         2.46107 
        2.44823         20.1917         2.44582 
        2.45437         20.1838         2.43067 
        2.46052         20.0761         2.41563 
        2.46665         20.0077         2.40074 
        2.47279         19.8984         2.38599 
        2.47892          19.833         2.37135 
        2.48507         19.7686         2.35681 
         2.4912         19.6957         2.34243 
