#  k  (h/Mpc)          P(k)  (Mpc/h)^3     P_linear(k) (Mpc/h)^3
     0.00783031         4750.27         4806.01 
       0.013688         5763.67         5744.95 
       0.019231         5682.75         5672.89 
      0.0249154         5083.11         5134.21 
      0.0312784         4361.17         4372.64 
      0.0375637         3712.93         3699.81 
      0.0433917         3211.73         3228.95 
      0.0492413         2897.17         2898.28 
      0.0555754         2616.93         2648.52 
      0.0619321         2460.16         2445.45 
       0.067871         2233.42         2253.61 
      0.0738098          2024.1         2042.56 
      0.0800417         1784.49         1808.66 
      0.0862327         1579.19         1586.83 
      0.0921407         1411.62         1405.83 
      0.0982031         1261.22         1262.16 
       0.104506         1175.76         1156.49 
       0.110769          1098.3         1083.89 
       0.116806          1034.4         1029.12 
       0.122832         986.342         975.707 
       0.129052         913.349         913.332 
       0.135211         846.602         843.176 
       0.141259         785.645         771.017 
       0.147318         723.442          702.61 
       0.153489         659.795         643.015 
       0.159709         617.393         596.068 
       0.165845         589.701         561.731 
       0.171974         556.958         535.761 
       0.178125         534.379         513.458 
       0.184229          512.91         491.081 
        0.19034         478.343         466.237 
       0.196428         460.504         438.972 
       0.202534         438.786         410.667 
       0.208729         410.082         383.238 
       0.214876         384.147         359.203 
       0.220989         369.435         339.335 
       0.227147         349.122         323.184 
        0.23329         335.542         309.905 
       0.239377          326.45         298.181 
       0.245482         306.914         286.634 
       0.251667         300.662         274.422 
       0.257832         288.642         261.635 
       0.263955         276.053         248.728 
       0.270079         264.063          236.26 
        0.27624          257.22          224.75 
       0.282372         246.654         214.639 
        0.28843          237.08         205.975 
       0.294538         227.175         198.293 
       0.300721         223.607         191.206 
        0.30691         213.424         184.392 
       0.313033         207.409         177.682 
       0.319153         198.148         170.912 
       0.325316         193.607         164.128 
        0.33145         186.155         157.567 
       0.337538         182.308         151.428 
       0.343633         175.725         145.755 
       0.349808         170.133         140.523 
       0.355968         166.496         135.751 
       0.362074         161.556         131.348 
       0.368217         156.903         127.131 
       0.374374         152.021         123.015 
       0.380519          148.66         118.982 
       0.386598         144.514         115.067 
       0.392688         141.797         111.256 
        0.39888         137.821         107.547 
       0.405048         134.367         104.054 
       0.411186         131.231         100.789 
       0.417313         127.808         97.7335 
       0.423458         124.825          94.836 
       0.429607         121.666         92.0675 
       0.435692         117.671         89.4287 
       0.441815         116.534         86.8496 
       0.447964         114.429         84.3293 
       0.454126         109.299         81.8828 
       0.460267         107.935         79.5334 
       0.466387         105.855         77.2871 
        0.47254          103.75         75.1301 
       0.478662         102.379         73.0854 
       0.484765         99.3837         71.1375 
       0.490885         97.5195          69.262 
       0.497035           96.21          67.445 
       0.503198         93.4645         65.6861 
       0.509342         91.4487         63.9877 
       0.515458         89.9878         62.3483 
       0.521598         88.6496         60.7557 
       0.527764         87.1292         59.2126 
       0.533884         85.6627         57.7382 
           0.54         83.8991         56.3201 
       0.546137         82.9684         54.9485 
       0.552299         81.6575         53.6199 
       0.558452         79.5736         52.3391 
       0.564573          78.116         51.1067 
       0.570708         77.0775         49.9101 
       0.576825         75.7718         48.7533 
       0.582926         74.2132         47.6342 
       0.589034         72.7041         46.5482 
       0.595184          71.796         45.4896 
       0.601379         70.8095         44.4582 
       0.607522         69.0638         43.4688 
       0.613639         68.8502         42.5148 
       0.619772         67.2095         41.5877 
       0.625918          66.573         40.6864 
       0.632068         65.7053         39.8111 
       0.638161         64.7183         38.9691 
         0.6443         63.7188         38.1454 
       0.650464         62.7987         37.3426 
       0.656582         62.0851         36.5689 
       0.662703         60.8292         35.8171 
       0.668861         60.0872         35.0824 
       0.675024         59.2712          34.368 
       0.681124         58.3623         33.6808 
       0.687237          57.316         33.0112 
       0.693381         56.8141         32.3568 
       0.699536         55.8035         31.7192 
       0.705665         56.0011         31.1016 
       0.711789         54.4586         30.5011 
       0.717957         53.9604         29.9125 
        0.72409         53.2156         29.3427 
       0.730186         52.3515         28.7914 
       0.736317         52.1139         28.2513 
       0.742472         51.3013         27.7231 
       0.748622         50.8104         27.2091 
        0.75476         50.1677         26.7092 
       0.760888         49.3899         26.2226 
       0.767043         48.8659         25.7464 
       0.773185         48.2069         25.2829 
       0.779291         47.9444         24.8336 
       0.785407         47.4678         24.3946 
       0.791564         46.7181         23.9635 
       0.797719          45.893         23.5431 
       0.803834          45.772         23.1355 
       0.809972         45.0341         22.7362 
       0.816124         44.4233         22.3454 
       0.822261         44.0956          21.965 
       0.828378         43.7792         21.5946 
       0.834502         43.2397         21.2325 
       0.840667         42.8081         20.8764 
       0.846816         42.1743         20.5295 
       0.852925         41.8293         20.1927 
       0.859047         41.2697         19.8628 
       0.865192         40.9564         19.5392 
       0.871341         40.7673         19.2227 
       0.877463         39.9433         18.9146 
       0.883569           39.64         18.6141 
       0.889708         39.3605         18.3187 
       0.895864         38.9677         18.0289 
       0.902008         38.6195          17.746 
       0.908149         38.2541         17.4694 
       0.914301         38.0513         17.1982 
       0.920448         37.4955         16.9331 
       0.926574         37.1779         16.6746 
       0.932687         36.8367          16.422 
       0.938823         36.2996         16.1737 
       0.944975         36.1731           15.93 
       0.951105         35.7972         15.6923 
       0.957225         35.3582         15.4598 
       0.963368         35.3075         15.2313 
       0.969511         34.9545         15.0074 
       0.975621          34.658         14.7892 
       0.981748         34.1988         14.5747 
       0.987916         33.9961         14.3633 
        0.99406         33.7441         14.1568 
        1.00019         33.3244         13.9547 
        1.00632         33.1431         13.7569 
        1.01246         32.9311         13.5625 
        1.01859         32.4398         13.3723 
        1.02471         32.4284         13.1859 
        1.03085         32.1178         13.0025 
        1.03698         31.6679          12.823 
        1.04314         31.4261          12.646 
        1.04929         31.2178         12.4729 
        1.05541         30.8768         12.3037 
        1.06154         30.7944         12.1372 
        1.06769          30.521         11.9736 
        1.07382         30.2792         11.8135 
        1.07993         30.1446         11.6567 
        1.08607         29.7404         11.5021 
        1.09222         29.6457         11.3502 
        1.09836         29.3404         11.2013 
        1.10449         29.1373         11.0551 
        1.11063         28.7635         10.9115 
        1.11677          28.661         10.7704 
         1.1229          28.542         10.6321 
        1.12903         28.1491         10.4961 
        1.13518         28.0329         10.3624 
        1.14131         27.9385         10.2311 
        1.14745         27.6154         10.1021 
        1.15359         27.5497         9.97534 
        1.15973           27.22         9.85071 
        1.16584         26.9656         9.72878 
        1.17197         26.9805         9.60874 
        1.17811         26.6262         9.49037 
        1.18424         26.4109         9.37433 
        1.19038         26.3556         9.25991 
        1.19652         26.1979         9.14744 
        1.20267         25.9982         9.03684 
        1.20881         25.7795         8.92809 
        1.21495         25.6051         8.82131 
        1.22108         25.4359         8.71628 
         1.2272         25.1603         8.61322 
        1.23334          25.085         8.51158 
        1.23949         24.9241         8.41135 
        1.24562          24.773         8.31301 
        1.25174          24.656         8.21639 
        1.25789         24.4485         8.12101 
        1.26402         24.3365         8.02733 
        1.27014         24.0616         7.93535 
        1.27628         23.9335         7.84453 
        1.28244         23.8212         7.75497 
        1.28858         23.7229         7.66693 
        1.29471         23.5603         7.58045 
        1.30084         23.4027         7.49538 
        1.30697         23.2176          7.4115 
        1.31312         23.0124         7.32878 
        1.31925         22.9214         7.24758 
        1.32537         22.8328         7.16769 
        1.33151         22.6389         7.08873 
        1.33765         22.5813           7.011 
        1.34378         22.4443          6.9346 
        1.34992         22.1646         6.85928 
        1.35606         22.1034         6.78492 
         1.3622         21.9709         6.71179 
        1.36833         21.8243         6.63992 
        1.37445         21.8148         6.56914 
        1.38059         21.6297         6.49917 
        1.38675         21.3973         6.43006 
        1.39288         21.3669         6.36223 
        1.39901         21.1921         6.29541 
        1.40515         21.1081          6.2294 
         1.4113         20.9764         6.16436 
        1.41742         20.7758          6.1005 
        1.42355         20.7449         6.03742 
         1.4297         20.6299         5.97504 
        1.43585         20.5745         5.91358 
        1.44198         20.3572         5.85321 
        1.44809         20.2729          5.7938 
        1.45423         20.1861         5.73499 
        1.46036         20.1089         5.67711 
        1.46649         19.9652            5.62 
        1.47263         19.8267         5.56364 
        1.47877         19.7482         5.50807 
        1.48491         19.6468         5.45318 
        1.49104         19.5946         5.39915 
        1.49718         19.4073          5.3458 
        1.50333         19.3543          5.2931 
        1.50947         19.2737         5.24121 
         1.5156         19.1046         5.19009 
        1.52172         18.9787         5.13966 
        1.52787         18.9765         5.08979 
          1.534         18.8074         5.04065 
        1.54013         18.6592         4.99221 
        1.54627         18.6196         4.94431 
        1.55241         18.5027         4.89704 
        1.55855         18.3953         4.85045 
        1.56467         18.3206         4.80459 
         1.5708         18.2712          4.7592 
        1.57695         18.0886         4.71432 
        1.58308         18.1092         4.67013 
        1.58922         17.9701         4.62648 
        1.59535         17.8618          4.5834 
         1.6015         17.7725          4.5408 
        1.60764         17.7248         4.49877 
        1.61376         17.5993         4.45739 
        1.61989         17.4666         4.41649 
        1.62604         17.4536         4.37602 
        1.63218          17.334         4.33607 
        1.63831         17.2967         4.29672 
        1.64444         17.1478         4.25784 
        1.65059         17.0711         4.21935 
        1.65673         17.0159         4.18138 
        1.66285         16.9077         4.14398 
        1.66898         16.8669         4.10703 
        1.67512         16.7965         4.07045 
        1.68127         16.6846         4.03429 
         1.6874         16.5956         3.99864 
        1.69353         16.5401         3.96345 
        1.69967         16.4231          3.9286 
        1.70581         16.3588         3.89418 
        1.71193         16.2767         3.86031 
        1.71806         16.2073         3.82676 
        1.72421           16.13         3.79355 
        1.73035         16.0586         3.76077 
        1.73649         15.9827         3.72838 
        1.74262         15.9514          3.6964 
        1.74876         15.8556         3.66477 
        1.75489         15.7833         3.63358 
        1.76101         15.6989         3.60275 
        1.76715         15.6638         3.57225 
        1.77329         15.5686         3.54206 
        1.77943         15.4832          3.5122 
        1.78557         15.4377         3.48273 
        1.79171         15.3918          3.4536 
        1.79785         15.2577         3.42479 
        1.80399         15.2044         3.39632 
        1.81012         15.1905          3.3682 
        1.81625          15.088         3.34042 
        1.82239         15.0593         3.31291 
        1.82853         14.9284         3.28573 
        1.83466         14.8525         3.25887 
        1.84078         14.7697         3.23234 
        1.84692         14.7673         3.20607 
        1.85306         14.6738         3.18005 
         1.8592         14.6209         3.15436 
        1.86533         14.5694         3.12897 
        1.87147         14.4933         3.10383 
        1.87761         14.4617         3.07896 
        1.88375          14.348         3.05439 
        1.88988         14.3192         3.03011 
        1.89601         14.2443         3.00608 
        1.90215         14.1781         2.98229 
        1.90829         14.1447         2.95877 
        1.91442         14.0842         2.93551 
        1.92056         14.0175         2.91251 
         1.9267         13.9616         2.88974 
        1.93284         13.8772         2.86719 
        1.93897         13.8255         2.84493 
        1.94509         13.7689         2.82295 
        1.95123         13.7085         2.80115 
        1.95737         13.6638         2.77957 
        1.96349         13.6009         2.75826 
        1.96964         13.5386         2.73712 
        1.97578         13.4925         2.71619 
        1.98192         13.4086         2.69552 
        1.98805         13.3833         2.67506 
        1.99419         13.3078         2.65482 
        2.00033         13.2558         2.63477 
        2.00647         13.2122         2.61494 
         2.0126         13.1361         2.59534 
        2.01874         13.0733         2.57591 
        2.02488         13.0252         2.55667 
        2.03101         13.0109         2.53765 
        2.03714         12.9569         2.51885 
        2.04328         12.8738         2.50022 
        2.04941          12.801         2.48179 
        2.05554         12.8133         2.46356 
        2.06167         12.7332         2.44548 
        2.06781         12.6951         2.42759 
        2.07396         12.6557         2.40985 
        2.08009         12.5983         2.39231 
        2.08622         12.5091         2.37498 
        2.09237         12.4874         2.35777 
        2.09851         12.4374         2.34074 
        2.10464         12.3803          2.3239 
        2.11077         12.3204         2.30725 
        2.11691         12.2904         2.29072 
        2.12305         12.2394         2.27436 
        2.12918         12.1747         2.25819 
        2.13531          12.152         2.24218 
        2.14145         12.0755         2.22629 
         2.1476         12.0637         2.21053 
        2.15372         12.0087           2.195 
        2.15985         11.9372         2.17961 
        2.16599         11.9161         2.16432 
        2.17213         11.8705         2.14919 
        2.17827         11.8354         2.13421 
         2.1844         11.7864         2.11939 
        2.19054         11.7183          2.1047 
        2.19666         11.7088         2.09017 
         2.2028          11.658         2.07576 
        2.20893         11.6072         2.06149 
        2.21508         11.5414         2.04733 
        2.22122            11.5          2.0333 
        2.22736         11.4627         2.01943 
        2.23349          11.405         2.00569 
        2.23962         11.3692         1.99208 
        2.24577         11.3171         1.97858 
         2.2519         11.3133         1.96522 
        2.25802         11.2577           1.952 
        2.26417         11.2255         1.93887 
        2.27031         11.1617         1.92585 
        2.27644         11.1217         1.91299 
        2.28257          11.079         1.90024 
        2.28872          11.045         1.88759 
        2.29486         11.0183         1.87505 
        2.30099         10.9866         1.86265 
        2.30712         10.9333         1.85036 
        2.31326         10.9008         1.83816 
         2.3194         10.8455         1.82608 
        2.32553         10.8107         1.81412 
        2.33166         10.7372         1.80228 
         2.3378          10.728         1.79052 
        2.34394          10.688         1.77887 
        2.35007         10.6338         1.76734 
        2.35619         10.5889         1.75592 
        2.36233         10.5588         1.74458 
        2.36848         10.5472         1.73331 
        2.37462          10.515         1.72217 
        2.38075         10.4374         1.71113 
        2.38689         10.4143         1.70018 
        2.39303         10.3811         1.68933 
        2.39916         10.3539         1.67859 
        2.40529         10.3096         1.66794 
        2.41143         10.2753         1.65737 
        2.41757         10.2475         1.64689 
         2.4237         10.2022         1.63652 
        2.42983          10.158         1.62624 
        2.43598         10.1454         1.61602 
        2.44211         10.0882         1.60591 
        2.44823          10.048          1.5959 
        2.45437         10.0415         1.58596 
        2.46052         9.98439         1.57608 
        2.46665         9.93947         1.56631 
        2.47279         9.90329         1.55663 
        2.47892         9.88117         1.54702 
        2.48507         9.85708         1.53748 
         2.4912         9.82028         1.52805 
