# k  (h/Mpc)    Pcb(k)  (Mpc/h)^3    Pcb_linear(k)  (Mpc/h)^3
     0.00783031         2694.97         2725.91 
       0.013688         3234.41         3232.84 
       0.019231         3117.72         3113.98 
      0.0249154          2700.4         2719.01 
      0.0312784         2219.43         2219.25 
      0.0375637         1828.11         1819.11 
      0.0433917         1566.36         1568.54 
      0.0492413         1415.41         1413.51 
      0.0555754         1298.05         1307.73 
      0.0619321         1222.78         1216.51 
       0.067871         1109.54         1115.46 
      0.0738098         988.685         993.756 
      0.0800417         851.461         857.696 
      0.0862327         734.717         734.995 
      0.0921407         647.242         643.599 
      0.0982031         580.411           579.8 
       0.104506         546.843         540.102 
       0.110769         520.287         516.018 
       0.116806         495.743         495.418 
       0.122832         471.727         469.007 
       0.129052         432.427         432.854 
       0.135211         392.119         391.265 
       0.141259         355.782         350.857 
       0.147318          323.36         316.292 
       0.153489          295.55          290.09 
       0.159709         278.649         272.645 
       0.165845          269.42         261.616 
       0.171974         257.587         253.054 
       0.178125         248.306         243.585 
       0.184229         236.845         231.466 
        0.19034         219.123         216.647 
       0.196428         206.432         200.683 
       0.202534          193.87         185.447 
       0.208729         179.958         172.389 
       0.214876         168.962         162.476 
       0.220989         163.272         155.314 
       0.227147         155.769         149.844 
        0.23329         150.573         144.933 
       0.239377         145.986         139.651 
       0.245482         137.757         133.508 
       0.251667         132.919         126.547 
       0.257832         126.217         119.399 
       0.263955         119.747         112.732 
       0.270079          114.14         106.939 
        0.27624         110.588         102.161 
       0.282372         106.578         98.3101 
        0.28843         102.514         95.0594 
       0.294538         98.7991         91.9758 
       0.300721         96.5754         88.7525 
        0.30691         92.1967         85.3118 
       0.313033          88.826         81.7406 
       0.319153         84.2563         78.1837 
       0.325316         82.3683         74.7962 
        0.33145         78.8944         71.7657 
       0.337538         76.7449         69.1269 
       0.343633         73.9751         66.8105 
       0.349808         71.8659         64.6861 
       0.355968         69.9831         62.6637 
       0.362074         67.7529         60.6726 
       0.368217         65.6079         58.6361 
       0.374374         63.4611          56.585 
       0.380519         61.7374         54.5751 
       0.386598         59.8806         52.6771 
       0.392688         58.4726         50.9137 
        0.39888         56.6465         49.2686 
       0.405048         55.2081         47.7626 
       0.411186         53.8593         46.3661 
       0.417313         52.1738         45.0297 
       0.423458          50.816          43.718 
       0.429607          49.437         42.4256 
       0.435692         47.8272         41.1653 
       0.441815         46.9945         39.9275 
       0.447964         46.0974         38.7356 
       0.454126         44.1584         37.6048 
       0.460267         43.4172         36.5411 
       0.466387         42.1746         35.5405 
        0.47254         41.4393          34.586 
       0.478662         40.7307         33.6743 
       0.484765         39.4818          32.791 
       0.490885          38.595          31.926 
       0.497035         38.0571         31.0799 
       0.503198         36.9902         30.2579 
       0.509342         36.0327         29.4664 
       0.515458         35.2564         28.7088 
       0.521598         34.6489         27.9809 
       0.527764         33.9001         27.2824 
       0.533884         33.3268         26.6176 
           0.54         32.5546         25.9764 
       0.546137          32.042          25.352 
       0.552299         31.5074         24.7428 
       0.558452         30.5364         24.1525 
       0.564573         30.0526         23.5835 
       0.570708         29.5465         23.0314 
       0.576825         28.8471         22.4991 
       0.582926         28.2545         21.9859 
       0.589034          27.531         21.4892 
       0.595184         27.1786         21.0061 
       0.601379         26.6415         20.5358 
       0.607522          26.132         20.0842 
       0.613639         25.8737         19.6481 
       0.619772         25.2026         19.2233 
       0.625918         25.0385         18.8095 
       0.632068         24.6367         18.4071 
       0.638161         24.0937           18.02 
         0.6443         23.6146         17.6414 
       0.650464         23.1856         17.2729 
       0.656582         23.0306         16.9182 
       0.662703         22.5721         16.5739 
       0.668861          22.146         16.2376 
       0.675024         21.7535         15.9105 
       0.681124         21.3775         15.5958 
       0.687237         21.0084         15.2888 
       0.693381         20.8105         14.9885 
       0.699536         20.2759         14.6956 
       0.705665         20.1989         14.4119 
       0.711789         19.7396          14.136 
       0.717957         19.4559         13.8655 
        0.72409         19.1744         13.6037 
       0.730186         18.8988         13.3504 
       0.736317           18.69         13.1024 
       0.742472         18.3621         12.8598 
       0.748622         18.1661         12.6237 
        0.75476         17.8264         12.3941 
       0.760888         17.5587         12.1706 
       0.767043         17.3427         11.9518 
       0.773185         17.0339         11.7388 
       0.779291         16.9306         11.5323 
       0.785407         16.7301         11.3305 
       0.791564         16.4242         11.1323 
       0.797719         16.0501          10.939 
       0.803834         16.0236         10.7516 
       0.809972         15.8718         10.5679 
       0.816124         15.5056         10.3881 
       0.822261          15.337         10.2131 
       0.828378         15.1848         10.0427 
       0.834502         15.0375         9.87605 
       0.840667         14.8074         9.71217 
       0.846816         14.5376         9.55251 
       0.852925         14.4024         9.39748 
       0.859047          14.238         9.24561 
       0.865192          14.097         9.09663 
       0.871341          13.972         8.95087 
       0.877463         13.7294           8.809 
       0.883569         13.5455          8.6706 
       0.889708         13.3323         8.53449 
       0.895864         13.2182         8.40098 
       0.902008         13.1191         8.27064 
       0.908149         12.9722         8.14317 
       0.914301         12.8725          8.0182 
       0.920448         12.6307         7.89599 
       0.926574         12.5078         7.77678 
       0.932687          12.365          7.6603 
       0.938823         12.2051         7.54581 
       0.944975         12.0637         7.43341 
       0.951105         11.9512         7.32373 
       0.957225         11.8463         7.21646 
       0.963368         11.7328           7.111 
       0.969511         11.6175         7.00766 
       0.975621          11.498         6.90694 
       0.981748         11.3419         6.80796 
       0.987916         11.2675         6.71031 
        0.99406         11.1084         6.61496 
        1.00019         10.9459         6.52166 
        1.00632         10.9144         6.43026 
        1.01246         10.8002         6.34049 
        1.01859         10.6249         6.25259 
        1.02471         10.5771         6.16649 
        1.03085          10.467         6.08172 
        1.03698         10.3021         5.99874 
        1.04314         10.2431         5.91697 
        1.04929         10.1137         5.83693 
        1.05541         9.99584          5.7587 
        1.06154         9.93409         5.68173 
        1.06769         9.88309         5.60606 
        1.07382         9.74073         5.53203 
        1.07993         9.65699         5.45952 
        1.08607         9.56677         5.38802 
        1.09222         9.49238         5.31774 
        1.09836         9.37318          5.2488 
        1.10449         9.30386         5.18118 
        1.11063         9.19747         5.11469 
        1.11677         9.15462         5.04939 
         1.1229         9.09313         4.98536 
        1.12903         8.97303         4.92239 
        1.13518         8.86118         4.86046 
        1.14131         8.81669         4.79964 
        1.14745         8.73089          4.7399 
        1.15359          8.6723         4.68117 
        1.15973         8.58493         4.62342 
        1.16584         8.46428         4.56691 
        1.17197         8.41875         4.51127 
        1.17811          8.3717         4.45639 
        1.18424          8.2903         4.40259 
        1.19038         8.25307         4.34953 
        1.19652         8.15764         4.29737 
        1.20267         8.07677         4.24607 
        1.20881         8.05072         4.19563 
        1.21495         7.98227         4.14609 
        1.22108         7.88267         4.09736 
         1.2272         7.82667         4.04953 
        1.23334         7.75161         4.00236 
        1.23949          7.6822         3.95583 
        1.24562         7.64686         3.91018 
        1.25174         7.58995         3.86533 
        1.25789         7.52388         3.82104 
        1.26402         7.49272         3.77753 
        1.27014         7.41878         3.73481 
        1.27628         7.32786         3.69263 
        1.28244         7.26637         3.65102 
        1.28858         7.26529         3.61012 
        1.29471         7.17907         3.56993 
        1.30084         7.10684          3.5304 
        1.30697          7.0947         3.49141 
        1.31312         6.98806         3.45296 
        1.31925         6.93865         3.41522 
        1.32537         6.90102         3.37807 
        1.33151           6.868         3.34136 
        1.33765         6.79876         3.30521 
        1.34378         6.74969         3.26967 
        1.34992         6.69831         3.23463 
        1.35606         6.65386         3.20004 
         1.3622          6.6159         3.16601 
        1.36833         6.54881         3.13257 
        1.37445           6.513         3.09963 
        1.38059         6.48542         3.06706 
        1.38675         6.42331         3.03489 
        1.39288         6.39814          3.0033 
        1.39901         6.32194         2.97219 
        1.40515         6.29358         2.94145 
         1.4113         6.24796         2.91115 
        1.41742         6.20264          2.8814 
        1.42355          6.1483         2.85201 
         1.4297          6.1231         2.82295 
        1.43585         6.08986          2.7943 
        1.44198         6.05789         2.76616 
        1.44809         6.00541         2.73847 
        1.45423         5.95754         2.71105 
        1.46036         5.91267         2.68406 
        1.46649          5.8864         2.65743 
        1.47263         5.82933         2.63114 
        1.47877         5.79406         2.60522 
        1.48491         5.76531         2.57961 
        1.49104         5.72521         2.55441 
        1.49718         5.69343         2.52952 
        1.50333         5.65941         2.50492 
        1.50947         5.61051         2.48071 
         1.5156         5.58308         2.45685 
        1.52172          5.5554         2.43331 
        1.52787         5.51564         2.41003 
          1.534         5.47221         2.38709 
        1.54013         5.44669         2.36447 
        1.54627         5.39964          2.3421 
        1.55241         5.36917         2.32002 
        1.55855         5.34897         2.29826 
        1.56467         5.30686         2.27684 
         1.5708         5.28736         2.25563 
        1.57695         5.24033         2.23466 
        1.58308         5.19999         2.21401 
        1.58922          5.1892         2.19361 
        1.59535         5.16416         2.17347 
         1.6015         5.11511         2.15356 
        1.60764         5.07908         2.13391 
        1.61376          5.0637         2.11456 
        1.61989         5.03126         2.09543 
        1.62604         4.99832          2.0765 
        1.63218         4.98502         2.05782 
        1.63831         4.94733         2.03941 
        1.64444         4.92199         2.02122 
        1.65059         4.86801         2.00321 
        1.65673         4.87327         1.98543 
        1.66285         4.82099         1.96793 
        1.66898         4.79691         1.95063 
        1.67512         4.77644         1.93351 
        1.68127         4.74396         1.91657 
         1.6874         4.72724         1.89988 
        1.69353         4.68651          1.8834 
        1.69967         4.67332         1.86707 
        1.70581         4.64874         1.85095 
        1.71193          4.6128         1.83508 
        1.71806          4.5949         1.81936 
        1.72421         4.56614          1.8038 
        1.73035         4.55007         1.78844 
        1.73649         4.52234         1.77326 
        1.74262         4.49163         1.75827 
        1.74876         4.47598         1.74344 
        1.75489         4.45324         1.72881 
        1.76101         4.41844         1.71436 
        1.76715         4.40628         1.70006 
        1.77329         4.37764          1.6859 
        1.77943         4.34461         1.67189 
        1.78557         4.33482         1.65807 
        1.79171         4.30988          1.6444 
        1.79785         4.28507         1.63089 
        1.80399         4.25956         1.61752 
        1.81012         4.23963         1.60433 
        1.81625         4.21954         1.59129 
        1.82239         4.20191         1.57838 
        1.82853          4.1717         1.56562 
        1.83466         4.15556         1.55301 
        1.84078         4.14063         1.54055 
        1.84692         4.12571         1.52821 
        1.85306         4.09293           1.516 
         1.8592         4.06781         1.50393 
        1.86533          4.0503         1.49201 
        1.87147         4.03365          1.4802 
        1.87761         4.01306         1.46851 
        1.88375         3.98744         1.45696 
        1.88988          3.9758         1.44555 
        1.89601         3.95297         1.43426 
        1.90215         3.93372         1.42308 
        1.90829         3.91053         1.41202 
        1.91442         3.89405         1.40108 
        1.92056         3.87865         1.39027 
         1.9267         3.85272         1.37956 
        1.93284         3.83712         1.36896 
        1.93897         3.81648         1.35849 
        1.94509         3.80697         1.34815 
        1.95123         3.78449         1.33789 
        1.95737         3.75755         1.32773 
        1.96349         3.75057         1.31771 
        1.96964         3.73388         1.30776 
        1.97578         3.70684         1.29791 
        1.98192         3.69841         1.28818 
        1.98805         3.68065         1.27855 
        1.99419         3.65895         1.26902 
        2.00033         3.65069         1.25958 
        2.00647          3.6285         1.25024 
         2.0126         3.61753         1.24101 
        2.01874         3.59275         1.23186 
        2.02488         3.58267         1.22279 
        2.03101         3.55834         1.21384 
        2.03714         3.54019         1.20498 
        2.04328         3.52658          1.1962 
        2.04941         3.50627         1.18751 
        2.05554         3.49576         1.17892 
        2.06167         3.48027          1.1704 
        2.06781         3.46682         1.16197 
        2.07396          3.4571          1.1536 
        2.08009         3.43829         1.14534 
        2.08622         3.41861         1.13716 
        2.09237         3.40093         1.12905 
        2.09851         3.39684         1.12102 
        2.10464         3.38048         1.11307 
        2.11077         3.35708         1.10522 
        2.11691         3.34362         1.09742 
        2.12305         3.33461          1.0897 
        2.12918         3.32476         1.08207 
        2.13531         3.30855         1.07452 
        2.14145         3.29336         1.06702 
         2.1476         3.27479         1.05958 
        2.15372         3.25944         1.05225 
        2.15985          3.2596         1.04498 
        2.16599         3.23108         1.03776 
        2.17213         3.22038         1.03062 
        2.17827         3.21363         1.02355 
         2.1844         3.19746         1.01655 
        2.19054         3.17951         1.00961 
        2.19666         3.16641         1.00275 
         2.2028         3.15368        0.995943 
        2.20893         3.14243        0.989198 
        2.21508         3.12815        0.982509 
        2.22122         3.11385        0.975879 
        2.22736         3.10322        0.969324 
        2.23349         3.09506        0.962832 
        2.23962         3.08093        0.956396 
        2.24577         3.06777        0.950013 
         2.2519         3.06032        0.943697 
        2.25802         3.04207         0.93745 
        2.26417         3.03415        0.931241 
        2.27031         3.01827        0.925083 
        2.27644         3.00292           0.919 
        2.28257         2.98731        0.912971 
        2.28872         2.98757        0.906985 
        2.29486         2.97201        0.901055 
        2.30099         2.95542        0.895189 
        2.30712         2.94476        0.889374 
        2.31326         2.93039          0.8836 
         2.3194         2.92213        0.877881 
        2.32553         2.91515        0.872223 
        2.33166         2.90477        0.866617 
         2.3378         2.89016        0.861053 
        2.34394         2.87943        0.855536 
        2.35007         2.86567        0.850075 
        2.35619         2.85788        0.844668 
        2.36233         2.84697        0.839296 
        2.36848         2.83245         0.83396 
        2.37462         2.82953        0.828682 
        2.38075         2.81343        0.823454 
        2.38689         2.80898        0.818268 
        2.39303         2.79216        0.813127 
        2.39916          2.7832        0.808035 
        2.40529         2.77273        0.802988 
        2.41143         2.76107        0.797981 
        2.41757         2.75631        0.793014 
         2.4237         2.74564        0.788098 
        2.42983         2.72694        0.783225 
        2.43598         2.72052        0.778381 
        2.44211         2.70738        0.773585 
        2.44823         2.70099        0.768841 
        2.45437         2.68984        0.764124 
        2.46052         2.68414        0.759442 
        2.46665         2.67357        0.754808 
        2.47279         2.66028        0.750215 
        2.47892         2.65151        0.745656 
        2.48507         2.64375        0.741132 
         2.4912         2.62953        0.736653 
