# k  (h/Mpc)    P(k)  (Mpc/h)^3    P_linear(k)  (Mpc/h)^3
     0.00783031         8182.94         8232.34 
       0.013688         10149.1         10364.8 
       0.019231         10649.7         10778.2 
      0.0249154         10301.5         10299.6 
      0.0312784         9193.83         9277.97 
      0.0375637         8059.59         8185.61 
      0.0433917         7256.14         7300.88 
      0.0492413         6507.93         6598.98 
      0.0555754         5985.29         6027.97 
      0.0619321          5400.8         5583.21 
       0.067871         5110.63         5214.53 
      0.0738098         4772.46         4843.42 
      0.0800417         4379.21         4431.95 
      0.0862327         3946.68         4011.22 
      0.0921407         3580.28         3624.69 
      0.0982031         3269.08         3270.85 
       0.104506         2933.19         2967.74 
       0.110769         2717.55         2735.03 
       0.116806         2593.09         2564.72 
       0.122832         2428.83         2429.43 
       0.129052         2310.43          2305.6 
       0.135211         2223.26         2182.34 
       0.141259          2069.1         2052.68 
       0.147318          1912.2         1914.87 
       0.153489         1797.67         1773.35 
       0.159709         1707.46         1639.15 
       0.165845         1557.56          1522.9 
       0.171974         1513.21         1426.52 
       0.178125         1450.71         1348.85 
       0.184229         1347.96         1286.41 
        0.19034         1320.08         1232.56 
       0.196428         1277.59          1181.8 
       0.202534         1197.36         1129.69 
       0.208729         1172.11         1073.99 
       0.214876         1122.39         1016.72 
       0.220989         1052.47         960.211 
       0.227147            1026          906.58 
        0.23329         985.299         858.555 
       0.239377         968.026         817.312 
       0.245482         919.132         781.957 
       0.251667         884.181         750.926 
       0.257832         873.794         722.938 
       0.263955         828.881         696.358 
       0.270079         802.759          669.79 
        0.27624          769.25         642.648 
       0.282372         753.931         615.482 
        0.28843         746.931          589.14 
       0.294538         709.063         563.887 
       0.300721         688.347         540.275 
        0.30691         676.499         518.906 
       0.313033         648.002         499.885 
       0.319153         637.854         482.605 
       0.325316         626.546         466.411 
        0.33145         612.916         450.998 
       0.337538         591.396         436.019 
       0.343633         574.597         421.209 
       0.349808         560.591         406.414 
       0.355968         550.092          392.05 
       0.362074         533.345         378.404 
       0.368217         529.472         365.449 
       0.374374          519.45         353.325 
       0.380519         499.212         342.056 
       0.386598         493.632          331.63 
       0.392688         483.189         321.744 
        0.39888         470.376         312.116 
       0.405048         462.621         302.834 
       0.411186         460.171         293.827 
       0.417313         454.098          285.07 
       0.423458          440.78         276.551 
       0.429607         429.826         268.335 
       0.435692         422.996         260.562 
       0.441815         416.168         253.117 
       0.447964         407.113         246.009 
       0.454126         402.026         239.235 
       0.460267         395.898         232.785 
       0.466387         389.448         226.602 
        0.47254          383.93         220.595 
       0.478662         374.881         214.805 
       0.484765          370.96         209.203 
       0.490885         366.863         203.756 
       0.497035         360.549         198.466 
       0.503198          359.11          193.36 
       0.509342         349.902         188.463 
       0.515458         345.192         183.777 
       0.521598         339.006         179.255 
       0.527764         334.517         174.884 
       0.533884         333.515         170.696 
           0.54         327.796         166.647 
       0.546137         320.847         162.707 
       0.552299          319.83         158.872 
       0.558452         314.701         155.161 
       0.564573         311.798         151.582 
       0.570708         306.996         148.107 
       0.576825         301.947         144.754 
       0.582926         299.261         141.521 
       0.589034         295.293          138.39 
       0.595184         293.417         135.338 
       0.601379         288.252         132.359 
       0.607522          283.18         129.495 
       0.613639         281.597         126.726 
       0.619772         279.966          124.03 
       0.625918         276.381         121.407 
       0.632068         271.694         118.858 
       0.638161         269.483         116.404 
         0.6443         267.627         114.002 
       0.650464         263.219          111.66 
       0.656582          261.16         109.402 
       0.662703         259.302         107.208 
       0.668861         254.798         105.064 
       0.675024         253.983         102.977 
       0.681124         250.905         100.969 
       0.687237         248.402         99.0097 
       0.693381          245.94         97.0932 
       0.699536         243.306         95.2238 
       0.705665         240.895         93.4118 
       0.711789         238.784          91.649 
       0.717957         236.147         89.9202 
        0.72409         233.926         88.2463 
       0.730186         234.722         86.6258 
       0.736317         230.613         85.0378 
       0.742472         227.681         83.4841 
       0.748622         224.736          81.971 
        0.75476          225.42         80.4989 
       0.760888         222.655         79.0652 
       0.767043         219.753          77.661 
       0.773185          218.29          76.294 
       0.779291         215.197         74.9679 
       0.785407         214.385         73.6717 
       0.791564         212.323         72.3982 
       0.797719         209.281         71.1557 
       0.803834         210.266         69.9505 
       0.809972          208.29         68.7692 
       0.816124         205.353         67.6128 
       0.822261         203.513         66.4863 
       0.828378          203.55         65.3891 
       0.834502         200.265         64.3159 
       0.840667         199.974         63.2599 
       0.846816         197.348         62.2308 
       0.852925         196.135         61.2311 
       0.859047         194.219         60.2514 
       0.865192         193.787         59.2901 
       0.871341         191.247         58.3492 
       0.877463         189.752         57.4332 
       0.883569         189.596         56.5392 
       0.889708         187.938         55.6597 
       0.895864         186.228         54.7969 
       0.902008         184.494         53.9542 
       0.908149         182.648         53.1298 
       0.914301         182.371         52.3215 
       0.920448         181.437         51.5308 
       0.926574         179.127         50.7593 
       0.932687          178.58         50.0053 
       0.938823         177.273          49.264 
       0.944975         175.728         48.5361 
       0.951105          174.32         47.8257 
       0.957225         173.714         47.1307 
       0.963368         172.197         46.4473 
       0.969511         170.324         45.7775 
       0.975621         169.224         45.1246 
       0.981748         168.022         44.4828 
       0.987916         167.361         43.8495 
        0.99406         166.226          43.231 
        1.00019         165.058         42.6257 
        1.00632         164.241         42.0327 
        1.01246         163.077         41.4501 
        1.01859         161.799         40.8795 
        1.02471         160.602         40.3204 
        1.03085          159.53         39.7699 
        1.03698         158.417          39.231 
        1.04314         157.942         38.6997 
        1.04929          157.16         38.1796 
        1.05541         156.036         37.6712 
        1.06154         154.921         37.1708 
        1.06769         153.684         36.6788 
        1.07382         153.001         36.1974 
        1.07993         151.945         35.7257 
        1.08607          150.79         35.2605 
        1.09222         150.148         34.8032 
        1.09836         148.963         34.3545 
        1.10449          147.85         33.9143 
        1.11063         147.046         33.4813 
        1.11677         146.357         33.0561 
         1.1229         145.142          32.639 
        1.12903         144.618         32.2288 
        1.13518         143.657         31.8253 
        1.14131         142.803          31.429 
        1.14745         141.872         31.0397 
        1.15359         140.408         30.6569 
        1.15973         140.083         30.2804 
        1.16584         139.322          29.912 
        1.17197         138.585         29.5492 
        1.17811         137.375         29.1913 
        1.18424         136.734         28.8404 
        1.19038         136.121         28.4943 
        1.19652         135.091          28.154 
        1.20267         134.288         27.8193 
        1.20881         133.448         27.4901 
        1.21495         133.036         27.1668 
        1.22108         132.068         26.8487 
         1.2272         131.082         26.5365 
        1.23334         130.771         26.2286 
        1.23949         130.147         25.9249 
        1.24562         129.072         25.6268 
        1.25174         128.119         25.3339 
        1.25789         127.708         25.0447 
        1.26402         127.141         24.7605 
        1.27014         126.362         24.4814 
        1.27628         124.998         24.2058 
        1.28244         124.901          23.934 
        1.28858         123.845         23.6667 
        1.29471         123.144         23.4041 
        1.30084          122.46         23.1457 
        1.30697         122.087         22.8909 
        1.31312         121.213         22.6395 
        1.31925         120.309         22.3927 
        1.32537         119.938         22.1499 
        1.33151         119.525         21.9097 
        1.33765         118.338         21.6733 
        1.34378         118.271         21.4408 
        1.34992          117.73         21.2116 
        1.35606         116.778         20.9853 
         1.3622         116.561         20.7626 
        1.36833         115.253         20.5438 
        1.37445         114.959         20.3282 
        1.38059         114.431          20.115 
        1.38675         113.553         19.9044 
        1.39288         113.047         19.6977 
        1.39901         112.115          19.494 
        1.40515         111.895         19.2927 
         1.4113         111.307         19.0943 
        1.41742         110.478         18.8995 
        1.42355         110.154         18.7071 
         1.4297         109.344         18.5167 
        1.43585         108.675         18.3291 
        1.44198         108.063         18.1448 
        1.44809          107.37         17.9634 
        1.45423         107.066         17.7839 
        1.46036         106.225         17.6071 
        1.46649         105.649         17.4326 
        1.47263         105.372         17.2604 
        1.47877          104.64         17.0906 
        1.48491         104.062         16.9228 
        1.49104         103.098         16.7576 
        1.49718         103.068         16.5945 
        1.50333         102.463         16.4333 
        1.50947         102.077         16.2746 
         1.5156         101.543         16.1183 
        1.52172         100.798          15.964 
        1.52787         100.258         15.8114 
          1.534         99.8767         15.6609 
        1.54013         99.4423         15.5126 
        1.54627         98.5889          15.366 
        1.55241         98.2142         15.2212 
        1.55855         97.6924         15.0785 
        1.56467         96.8476          14.938 
         1.5708         96.5912         14.7989 
        1.57695         96.2248         14.6614 
        1.58308         95.6921         14.5259 
        1.58922         95.4117         14.3921 
        1.59535         94.9759           14.26 
         1.6015         94.3607         14.1294 
        1.60764         93.7817         14.0005 
        1.61376         93.2304         13.8735 
        1.61989         92.6739          13.748 
        1.62604         92.2929         13.6238 
        1.63218         92.0158         13.5012 
        1.63831         91.3591         13.3804 
        1.64444         90.9789          13.261 
        1.65059         90.4263         13.1428 
        1.65673         89.8923         13.0262 
        1.66285         89.3273         12.9113 
        1.66898         88.8759         12.7978 
        1.67512         88.5511         12.6854 
        1.68127         88.1675         12.5743 
         1.6874          87.591         12.4647 
        1.69353         87.0978         12.3565 
        1.69967         86.8578         12.2494 
        1.70581          86.419         12.1435 
        1.71193          85.901         12.0393 
        1.71806         85.2801         11.9361 
        1.72421         85.0196          11.834 
        1.73035         84.7995         11.7331 
        1.73649         84.1614         11.6334 
        1.74262         83.5625          11.535 
        1.74876         83.2592         11.4376 
        1.75489         82.7097         11.3416 
        1.76101          82.273         11.2467 
        1.76715         82.0261         11.1528 
        1.77329         81.5083         11.0598 
        1.77943         81.2056         10.9678 
        1.78557         80.8888          10.877 
        1.79171         80.4047         10.7873 
        1.79785         79.8969         10.6985 
        1.80399         79.5611         10.6107 
        1.81012           79.09         10.5241 
        1.81625         78.8459         10.4384 
        1.82239         78.5249         10.3536 
        1.82853         77.8691         10.2698 
        1.83466         77.5432         10.1869 
        1.84078         77.2343         10.1051 
        1.84692          77.007          10.024 
        1.85306         76.5123         9.94378 
         1.8592         76.1785         9.86451 
        1.86533         75.7426         9.78616 
        1.87147         75.3003         9.70856 
        1.87761         74.8522         9.63178 
        1.88375         74.4482         9.55591 
        1.88988         74.0855         9.48094 
        1.89601         73.7463         9.40674 
        1.90215         73.3069         9.33327 
        1.90829         73.0655         9.26062 
        1.91442         72.7114         9.18874 
        1.92056         72.3773         9.11769 
         1.9267         71.9639         9.04731 
        1.93284         71.7324         8.97764 
        1.93897         71.3932         8.90883 
        1.94509          70.921         8.84089 
        1.95123         70.6398         8.77349 
        1.95737         70.1787         8.70674 
        1.96349         69.9177         8.64086 
        1.96964          69.547         8.57546 
        1.97578         69.1134         8.51072 
        1.98192         68.8096         8.44678 
        1.98805         68.3751         8.38349 
        1.99419         68.0888         8.32084 
        2.00033         67.7193          8.2588 
        2.00647         67.4967         8.19741 
         2.0126         67.0902         8.13675 
        2.01874         66.9339         8.07661 
        2.02488         66.5583         8.01703 
        2.03101         66.1902         7.95815 
        2.03714         66.0094         7.89993 
        2.04328         65.5321         7.84221 
        2.04941         65.0468         7.78513 
        2.05554         65.0011         7.72865 
        2.06167         64.7506         7.67265 
        2.06781         64.1977          7.6172 
        2.07396         63.9114         7.56222 
        2.08009         63.6992         7.50788 
        2.08622         63.3077         7.45413 
        2.09237         63.0037          7.4008 
        2.09851         62.6306         7.34799 
        2.10464         62.4216         7.29578 
        2.11077         62.1426         7.24414 
        2.11691         61.7935         7.19288 
        2.12305         61.4198         7.14212 
        2.12918         61.1425         7.09197 
        2.13531         60.9084         7.04229 
        2.14145         60.4974         6.99298 
         2.1476         60.3302         6.94409 
        2.15372         60.0717          6.8959 
        2.15985         59.6657         6.84813 
        2.16599         59.3532         6.80067 
        2.17213         59.1125         6.75371 
        2.17827          58.834          6.7072 
         2.1844         58.5621         6.66118 
        2.19054         58.2747         6.61557 
        2.19666         57.9281         6.57045 
         2.2028          57.708         6.52571 
        2.20893         57.3669         6.48137 
        2.21508         57.0328         6.43739 
        2.22122          56.803          6.3938 
        2.22736          56.492         6.35071 
        2.23349         56.3485         6.30802 
        2.23962          56.063          6.2657 
        2.24577         55.7399         6.22374 
         2.2519         55.4757         6.18221 
        2.25802         55.2277         6.14113 
        2.26417         54.9518         6.10032 
        2.27031         54.6745         6.05983 
        2.27644         54.4909         6.01983 
        2.28257         54.1162         5.98019 
        2.28872         54.0395         5.94083 
        2.29486         53.7175         5.90184 
        2.30099         53.3199         5.86328 
        2.30712         53.1965         5.82504 
        2.31326          52.916         5.78708 
         2.3194         52.5983         5.74948 
        2.32553         52.5106         5.71228 
        2.33166         52.0712         5.67542 
         2.3378         51.8481         5.63883 
        2.34394         51.5674         5.60256 
        2.35007         51.3462         5.56666 
        2.35619           51.18         5.53111 
        2.36233         50.8145         5.49579 
        2.36848         50.6448         5.46071 
        2.37462         50.3389           5.426 
        2.38075         50.1886         5.39163 
        2.38689         49.9778         5.35753 
        2.39303         49.7415         5.32373 
        2.39916         49.5161         5.29026 
        2.40529         49.2378         5.25707 
        2.41143         48.9883         5.22415 
        2.41757         48.7973         5.19149 
         2.4237         48.6339         5.15918 
        2.42983         48.2812         5.12714 
        2.43598         48.0381         5.09528 
        2.44211         47.8658         5.06376 
        2.44823         47.6287         5.03256 
        2.45437         47.4062         5.00155 
        2.46052         47.1036         4.97077 
        2.46665         46.9102          4.9403 
        2.47279         46.7115          4.9101 
        2.47892          46.472         4.88013 
        2.48507         46.3425         4.85039 
         2.4912         46.0102         4.82094 
