# k  (h/Mpc)    P(k)  (Mpc/h)^3    P_linear(k)  (Mpc/h)^3
     0.00783031         12340.3         12456.5 
       0.013688         13203.8         13507.3 
       0.019231         11970.4         12110.6 
      0.0249154         9904.37         9833.19 
      0.0312784         7370.04         7365.25 
      0.0375637         5526.87         5546.77 
      0.0433917         4511.87         4480.29 
      0.0492413         3886.22         3880.39 
      0.0555754         3589.13         3554.01 
      0.0619321         3293.92         3351.96 
       0.067871         3121.81         3132.25 
      0.0738098         2827.52         2820.92 
      0.0800417         2441.06         2414.52 
      0.0862327         2025.08         2001.18 
      0.0921407         1707.81         1664.88 
      0.0982031         1480.42         1415.55 
       0.104506            1299         1260.89 
       0.110769         1228.44         1187.99 
       0.116806         1205.19         1158.44 
       0.122832         1160.61         1133.17 
       0.129052         1107.91         1083.73 
       0.135211         1044.83         1001.33 
       0.141259         932.775         896.589 
       0.147318         824.381         786.714 
       0.153489         737.257         688.584 
       0.159709          679.64         615.241 
       0.165845         618.467         569.822 
       0.171974         607.848         545.689 
       0.178125         589.166         533.242 
       0.184229         559.449         522.318 
        0.19034         547.327         504.941 
       0.196428          524.09         477.997 
       0.202534         478.127         443.037 
       0.208729         458.121         404.554 
       0.214876         427.444         369.032 
       0.220989         393.568         340.287 
       0.227147         380.057         319.378 
        0.23329          363.83         305.616 
       0.239377         358.898         296.484 
       0.245482         341.613         288.801 
       0.251667         328.631         279.925 
       0.257832          323.13         268.547 
       0.263955         302.937         254.746 
       0.270079         287.533         239.626 
        0.27624         273.801         224.675 
       0.282372         264.473         211.449 
        0.28843         260.083         200.739 
       0.294538         246.299         192.313 
       0.300721         237.888         185.677 
        0.30691         233.484         180.023 
       0.313033          222.49         174.573 
       0.319153         218.573         168.654 
       0.325316         212.529         162.065 
        0.33145         205.552         155.028 
       0.337538         196.914             148 
       0.343633         190.551         141.338 
       0.349808         184.285         135.295 
       0.355968         180.143           130.1 
       0.362074          174.22         125.676 
       0.368217         171.377         121.759 
       0.374374         166.897         118.083 
       0.380519         159.847         114.455 
       0.386598         157.026         110.784 
       0.392688          151.82         106.999 
        0.39888          148.85         103.142 
       0.405048         144.796         99.4002 
       0.411186         142.955         95.8865 
       0.417313         139.659         92.6719 
       0.423458         135.878          89.733 
       0.429607         131.881         87.0395 
       0.435692         129.872         84.5563 
       0.441815         126.524         82.1579 
       0.447964         122.825         79.7885 
       0.454126         120.706         77.4409 
       0.460267         119.193         75.1278 
       0.466387         115.713         72.8667 
        0.47254         114.453         70.6747 
       0.478662         110.846          68.607 
       0.484765         108.868         66.6641 
       0.490885         106.654         64.8262 
       0.497035         105.353         63.0805 
       0.503198         103.715         61.4134 
       0.509342         101.098         59.8089 
       0.515458         99.1383         58.2493 
       0.521598         96.5321         56.7185 
       0.527764         95.7649         55.2221 
       0.533884         94.7946         53.7824 
           0.54         92.3302         52.3935 
       0.546137         90.1315         51.0531 
       0.552299         88.4826         49.7641 
       0.558452         87.1041          48.535 
       0.564573         86.6676          47.362 
       0.570708         84.1102         46.2281 
       0.576825         83.1063         45.1316 
       0.582926         82.1745         44.0678 
       0.589034         80.6498         43.0326 
       0.595184         79.5101         42.0214 
       0.601379         78.0589         41.0349 
       0.607522         76.0541         40.0883 
       0.613639         75.5903         39.1764 
       0.619772         74.2028         38.2921 
       0.625918         73.7634         37.4353 
       0.632068          71.809         36.6064 
       0.638161         71.2292         35.8115 
         0.6443          70.562         35.0351 
       0.650464         68.9321         34.2788 
       0.656582          68.536         33.5491 
       0.662703         67.7011          32.839 
       0.668861         66.2151         32.1446 
       0.675024         66.0489         31.4693 
       0.681124          64.862         30.8204 
       0.687237         64.0596         30.1891 
       0.693381         62.8965         29.5735 
       0.699536          62.422         28.9748 
       0.705665         61.6746         28.3958 
       0.711789          60.682         27.8335 
       0.717957         59.8837         27.2826 
        0.72409         59.1479         26.7495 
       0.730186         58.8196         26.2336 
       0.736317         58.0441         25.7282 
       0.742472         56.9373         25.2343 
       0.748622           56.17         24.7537 
        0.75476         56.0577         24.2867 
       0.760888         55.4491         23.8326 
       0.767043         54.3311         23.3886 
       0.773185         53.5169          22.957 
       0.779291         53.0817         22.5388 
       0.785407          52.684         22.1307 
       0.791564         52.1836         21.7302 
       0.797719          51.241         21.3399 
       0.803834           51.06         20.9617 
       0.809972         50.5563         20.5913 
       0.816124         49.7039         20.2291 
       0.822261          49.124         19.8766 
       0.828378         48.9456         19.5336 
       0.834502           48.45         19.1984 
       0.840667         47.9652         18.8689 
       0.846816         47.4122         18.5481 
       0.852925         46.8807         18.2368 
       0.859047         46.5405         17.9321 
       0.865192         45.9924         17.6333 
       0.871341         45.5701         17.3412 
       0.877463           45.01         17.0571 
       0.883569         44.9889           16.78 
       0.889708          44.411         16.5078 
       0.895864         44.0794         16.2409 
       0.902008         43.5281         15.9805 
       0.908149         42.9693         15.7259 
       0.914301         42.7713         15.4766 
       0.920448         42.6788         15.2328 
       0.926574         41.8043         14.9953 
       0.932687         41.5867         14.7633 
       0.938823         41.2551         14.5354 
       0.944975          40.751         14.3118 
       0.951105         40.4013         14.0937 
       0.957225         40.1676         13.8806 
       0.963368         39.8125         13.6712 
       0.969511         39.5021         13.4661 
       0.975621         39.0278         13.2664 
       0.981748         38.8107         13.0702 
       0.987916         38.3471         12.8767 
        0.99406         38.2157          12.688 
        1.00019         37.7544         12.5033 
        1.00632         37.4459         12.3226 
        1.01246         37.2288         12.1452 
        1.01859         36.9402         11.9715 
        1.02471         36.6744         11.8015 
        1.03085         36.2835         11.6342 
        1.03698         36.1135         11.4706 
        1.04314         35.7998         11.3094 
        1.04929         35.4859         11.1516 
        1.05541         35.2445         10.9976 
        1.06154         34.9235          10.846 
        1.06769         34.6554         10.6971 
        1.07382         34.3178         10.5515 
        1.07993         34.2033          10.409 
        1.08607         33.8614         10.2685 
        1.09222          33.706         10.1304 
        1.09836         33.4536         9.99508 
        1.10449         33.2228         9.86237 
        1.11063         32.9329         9.73194 
        1.11677         32.8891         9.60391 
         1.1229         32.4941         9.47842 
        1.12903         32.2932         9.35506 
        1.13518          32.082         9.23379 
        1.14131         31.8655         9.11475 
        1.14745         31.6842         8.99787 
        1.15359         31.2738         8.88303 
        1.15973         31.2817         8.77015 
        1.16584         31.0079         8.65975 
        1.17197         30.7397         8.55109 
        1.17811         30.5327         8.44397 
        1.18424          30.178           8.339 
        1.19038         29.9882         8.23551 
        1.19652         29.9362         8.13383 
        1.20267         29.6285         8.03387 
        1.20881         29.4585         7.93561 
        1.21495         29.3622         7.83916 
        1.22108         29.2786         7.74433 
         1.2272         28.9233          7.6513 
        1.23334         28.8371         7.55959 
        1.23949         28.5811         7.46916 
        1.24562          28.422         7.38048 
        1.25174         28.2734         7.29337 
        1.25789         28.0612          7.2074 
        1.26402         27.8808         7.12298 
        1.27014         27.7713         7.04011 
        1.27628         27.5569         6.95832 
        1.28244         27.5551         6.87768 
        1.28858         27.2408         6.79842 
        1.29471         27.0054         6.72059 
        1.30084         26.8449         6.64405 
        1.30697         26.7842         6.56859 
        1.31312         26.6254          6.4942 
        1.31925         26.3988         6.42119 
        1.32537            26.2         6.34937 
        1.33151         26.0949          6.2784 
        1.33765         26.0075         6.20856 
        1.34378         25.8596         6.13992 
        1.34992         25.6441         6.07228 
        1.35606         25.3908          6.0055 
         1.3622         25.3729         5.93986 
        1.36833         25.2902         5.87535 
        1.37445         25.0268         5.81183 
        1.38059          24.862         5.74906 
        1.38675         24.8265         5.68706 
        1.39288         24.6833         5.62623 
        1.39901         24.4792         5.56631 
        1.40515         24.3442         5.50713 
         1.4113         24.3021         5.44884 
        1.41742         24.1236         5.39161 
        1.42355         23.9193          5.3351 
         1.4297         23.9003         5.27923 
        1.43585         23.7763         5.22418 
        1.44198         23.5705         5.17013 
        1.44809         23.4136         5.11695 
        1.45423         23.3871         5.06432 
        1.46036         23.2797         5.01253 
        1.46649         23.0926         4.96144 
        1.47263           22.98         4.91103 
        1.47877          22.822         4.86134 
        1.48491         22.6847         4.81226 
        1.49104         22.6216         4.76396 
        1.49718         22.5277         4.71629 
        1.50333         22.4379          4.6692 
        1.50947         22.2161         4.62284 
         1.5156         22.2002         4.57719 
        1.52172         22.0313         4.53215 
        1.52787         22.0252         4.48763 
          1.534         21.7898         4.44377 
        1.54013          21.809         4.40053 
        1.54627           21.61         4.35779 
        1.55241         21.5517         4.31562 
        1.55855         21.4161         4.27406 
        1.56467         21.2297         4.23317 
         1.5708         21.2414         4.19269 
        1.57695         21.1017         4.15268 
        1.58308         20.9744         4.11329 
        1.58922         20.8858         4.07438 
        1.59535         20.8173         4.03599 
         1.6015         20.7582         3.99804 
        1.60764         20.5766         3.96059 
        1.61376         20.4619         3.92373 
        1.61989         20.3866         3.88731 
        1.62604         20.2603         3.85126 
        1.63218         20.0835          3.8157 
        1.63831         20.0789         3.78067 
        1.64444         20.0017         3.74606 
        1.65059          19.875         3.71181 
        1.65673         19.8228         3.67802 
        1.66285         19.7328         3.64474 
        1.66898         19.6581         3.61187 
        1.67512         19.4989         3.57934 
        1.68127         19.4719         3.54718 
         1.6874         19.3957         3.51548 
        1.69353         19.2406          3.4842 
        1.69967         19.1665         3.45322 
        1.70581         19.1109         3.42263 
        1.71193         19.0022         3.39252 
        1.71806         18.9402         3.36272 
        1.72421         18.8392         3.33321 
        1.73035          18.781         3.30409 
        1.73649         18.6523         3.27533 
        1.74262         18.5537         3.24693 
        1.74876         18.5847         3.21885 
        1.75489          18.397         3.19116 
        1.76101           18.38         3.16381 
        1.76715         18.1882         3.13673 
        1.77329         18.1461         3.10995 
        1.77943         18.0991         3.08346 
        1.78557         18.0523         3.05732 
        1.79171         17.9536         3.03148 
        1.79785           17.86         3.00593 
        1.80399         17.7551         2.98069 
        1.81012         17.6939         2.95576 
        1.81625         17.5778         2.93114 
        1.82239         17.5258         2.90675 
        1.82853         17.4649         2.88266 
        1.83466         17.3599         2.85886 
        1.84078         17.3109         2.83536 
        1.84692         17.1917         2.81208 
        1.85306         17.1545         2.78903 
         1.8592         17.1096         2.76628 
        1.86533         17.0305         2.74379 
        1.87147         16.9287         2.72153 
        1.87761         16.8887         2.69951 
        1.88375         16.7936         2.67775 
        1.88988         16.6706         2.65626 
        1.89601         16.6717         2.63499 
        1.90215         16.6206         2.61394 
        1.90829         16.5098         2.59313 
        1.91442           16.43         2.57254 
        1.92056         16.4028         2.55219 
         1.9267         16.3436         2.53205 
        1.93284         16.2695          2.5121 
        1.93897         16.1905         2.49242 
        1.94509          16.151         2.47298 
        1.95123         16.0351          2.4537 
        1.95737         15.9839         2.43462 
        1.96349         15.9297         2.41578 
        1.96964         15.8417         2.39709 
        1.97578         15.8032         2.37859 
        1.98192         15.7306         2.36033 
        1.98805         15.6736         2.34225 
        1.99419         15.5703         2.32436 
        2.00033         15.5165         2.30665 
        2.00647         15.4672         2.28913 
         2.0126         15.3957         2.27182 
        2.01874         15.3362         2.25466 
        2.02488         15.2564         2.23767 
        2.03101         15.2197         2.22088 
        2.03714         15.1561         2.20428 
        2.04328         15.0703         2.18783 
        2.04941         15.0141         2.17156 
        2.05554         14.9852         2.15547 
        2.06167         14.9372         2.13952 
        2.06781         14.8384         2.12373 
        2.07396          14.814         2.10807 
        2.08009         14.7334          2.0926 
        2.08622         14.6817         2.07731 
        2.09237         14.6093         2.06213 
        2.09851         14.5905         2.04711 
        2.10464         14.5153         2.03226 
        2.11077         14.4529         2.01757 
        2.11691         14.3723           2.003 
        2.12305         14.3497         1.98857 
        2.12918         14.2933         1.97432 
        2.13531         14.2305          1.9602 
        2.14145          14.188         1.94619 
         2.1476         14.1204         1.93231 
        2.15372         14.0813         1.91862 
        2.15985         14.0287         1.90506 
        2.16599         13.9459         1.89158 
        2.17213         13.9159         1.87826 
        2.17827         13.8537         1.86506 
         2.1844         13.7688           1.852 
        2.19054         13.7507         1.83906 
        2.19666         13.6892         1.82627 
         2.2028         13.6656         1.81358 
        2.20893         13.6004         1.80101 
        2.21508          13.541         1.78854 
        2.22122         13.4902         1.77619 
        2.22736         13.4495         1.76398 
        2.23349          13.407         1.75189 
        2.23962         13.3536          1.7399 
        2.24577         13.2885         1.72802 
         2.2519         13.2299         1.71626 
        2.25802         13.1725         1.70463 
        2.26417         13.1411         1.69308 
        2.27031         13.0714         1.68162 
        2.27644         13.0394          1.6703 
        2.28257         13.0051         1.65909 
        2.28872         12.9467         1.64796 
        2.29486         12.9228         1.63693 
        2.30099         12.8534         1.62603 
        2.30712         12.8099         1.61522 
        2.31326         12.7553         1.60449 
         2.3194         12.7178         1.59386 
        2.32553         12.6536         1.58335 
        2.33166         12.6188         1.57294 
         2.3378         12.5691          1.5626 
        2.34394         12.5276         1.55236 
        2.35007         12.4778         1.54222 
        2.35619         12.4466         1.53219 
        2.36233         12.3797         1.52222 
        2.36848         12.3453         1.51232 
        2.37462         12.3116         1.50252 
        2.38075         12.2461         1.49283 
        2.38689         12.2068         1.48321 
        2.39303          12.163         1.47368 
        2.39916          12.108         1.46424 
        2.40529         12.0718         1.45488 
        2.41143          12.033          1.4456 
        2.41757         11.9541          1.4364 
         2.4237          11.925         1.42729 
        2.42983         11.8971         1.41826 
        2.43598         11.8769         1.40929 
        2.44211         11.8155         1.40041 
        2.44823         11.7511         1.39162 
        2.45437         11.7388         1.38289 
        2.46052         11.6924         1.37422 
        2.46665         11.6505         1.36565 
        2.47279         11.5888         1.35715 
        2.47892         11.5789         1.34871 
        2.48507         11.5351         1.34034 
         2.4912         11.4832         1.33206 
