# k  (h/Mpc)    Pcb(k)  (Mpc/h)^3    Pcb_linear(k)  (Mpc/h)^3
     0.00783031         19508.3         19644.7 
       0.013688         20784.2         21335.7 
       0.019231         18875.6         19142.9 
      0.0249154         15686.8         15549.5 
      0.0312784         11641.9           11650 
      0.0375637         8728.53         8775.17 
      0.0433917         7142.42         7088.75 
      0.0492413         6151.47         6140.08 
      0.0555754         5683.76         5624.01 
      0.0619321         5191.52         5304.54 
       0.067871         4926.84         4957.03 
      0.0738098         4476.44         4464.45 
      0.0800417         3870.99         3821.36 
      0.0862327          3219.3         3167.25 
      0.0921407         2734.62         2635.03 
      0.0982031         2383.76         2240.45 
       0.104506         2090.87         1995.69 
       0.110769         1978.44         1880.33 
       0.116806         1936.99         1833.56 
       0.122832         1862.34         1793.58 
       0.129052          1767.1         1715.33 
       0.135211         1680.38         1584.93 
       0.141259         1501.18         1419.15 
       0.147318         1337.42         1245.24 
       0.153489         1204.01         1089.92 
       0.159709            1122         973.834 
       0.165845          1022.9         901.943 
       0.171974         1003.61         863.749 
       0.178125         973.642         844.051 
       0.184229         913.893         826.759 
        0.19034         897.244         799.257 
       0.196428         862.528         756.609 
       0.202534         790.375         701.273 
       0.208729          764.21          640.36 
       0.214876         714.497         584.133 
       0.220989          664.46         538.635 
       0.227147         642.652         505.543 
        0.23329         614.955         483.759 
       0.239377         610.401         469.303 
       0.245482         578.543         457.142 
       0.251667         558.079         443.093 
       0.257832         547.224          425.08 
       0.263955         515.747         403.237 
       0.270079         492.701         379.304 
        0.27624         470.498         355.638 
       0.282372         458.479         334.702 
        0.28843         450.639          317.75 
       0.294538         426.901         304.417 
       0.300721          415.19         293.909 
        0.30691         406.015         284.959 
       0.313033         386.881         276.332 
       0.319153         381.202         266.965 
       0.325316         373.106         256.533 
        0.33145          362.48         245.395 
       0.337538         347.657         234.272 
       0.343633         337.993         223.725 
       0.349808         328.055          214.16 
       0.355968         321.792         205.936 
       0.362074         308.866         198.935 
       0.368217         306.133         192.734 
       0.374374          300.21         186.915 
       0.380519         287.484         181.173 
       0.386598          283.58         175.361 
       0.392688          275.11         169.371 
        0.39888         268.951         163.265 
       0.405048         261.754         157.342 
       0.411186         260.872          151.78 
       0.417313             256         146.692 
       0.423458         249.327          142.04 
       0.429607         241.132         137.776 
       0.435692         237.619         133.846 
       0.441815         232.742         130.049 
       0.447964           227.2         126.299 
       0.454126         224.376         122.582 
       0.460267         220.545         118.921 
       0.466387         214.593         115.342 
        0.47254         212.454         111.872 
       0.478662         207.247         108.599 
       0.484765         203.562         105.524 
       0.490885         201.035         102.615 
       0.497035         196.793         99.8514 
       0.503198         195.708         97.2125 
       0.509342          191.42         94.6722 
       0.515458         187.538         92.2042 
       0.521598         183.884         89.7808 
       0.527764         181.863         87.4122 
       0.533884         179.724         85.1332 
           0.54         176.768         82.9348 
       0.546137         172.654         80.8128 
       0.552299         170.759          78.773 
       0.558452         167.882         76.8269 
       0.564573         167.537         74.9704 
       0.570708         162.938         73.1754 
       0.576825         160.704         71.4395 
       0.582926         159.537         69.7559 
       0.589034         156.287         68.1173 
       0.595184         155.004         66.5166 
       0.601379         152.557         64.9551 
       0.607522          148.57         63.4566 
       0.613639          148.04         62.0131 
       0.619772         146.705         60.6133 
       0.625918          144.57         59.2572 
       0.632068         141.889         57.9451 
       0.638161         141.401         56.6868 
         0.6443         139.061         55.4579 
       0.650464          137.23         54.2606 
       0.656582         135.536         53.1056 
       0.662703         135.133         51.9817 
       0.668861         131.873         50.8824 
       0.675024          131.41         49.8135 
       0.681124         129.503         48.7862 
       0.687237         128.648          47.787 
       0.693381         125.855         46.8125 
       0.699536         125.643         45.8648 
       0.705665         124.079         44.9484 
       0.711789          122.06         44.0582 
       0.717957         121.219         43.1862 
        0.72409         119.471         42.3424 
       0.730186         119.571         41.5257 
       0.736317         117.985         40.7259 
       0.742472         116.376         39.9439 
       0.748622         114.816         39.1832 
        0.75476         114.617          38.444 
       0.760888         113.247         37.7253 
       0.767043         111.228         37.0223 
       0.773185         109.859         36.3391 
       0.779291         109.478         35.6773 
       0.785407         108.517         35.0312 
       0.791564           107.4         34.3972 
       0.797719           105.7         33.7794 
       0.803834         105.846         33.1807 
       0.809972          104.55         32.5945 
       0.816124         102.648         32.0211 
       0.822261         102.092         31.4631 
       0.828378          101.51         30.9201 
       0.834502         100.751         30.3896 
       0.840667         100.167          29.868 
       0.846816         98.5607         29.3603 
       0.852925         98.0956         28.8676 
       0.859047         96.8783         28.3852 
       0.865192         96.3434         27.9122 
       0.871341         95.7072         27.4498 
       0.877463         94.5872         27.0001 
       0.883569         94.5193         26.5615 
       0.889708         93.7476         26.1306 
       0.895864         92.4309         25.7081 
       0.902008         91.5733         25.2959 
       0.908149         90.6602          24.893 
       0.914301         90.0497         24.4982 
       0.920448         90.0387         24.1125 
       0.926574         88.5358         23.7364 
       0.932687         88.3306         23.3691 
       0.938823         87.7943         23.0084 
       0.944975         87.2887         22.6545 
       0.951105         86.3114         22.3093 
       0.957225         85.6858          21.972 
       0.963368         85.0615         21.6405 
       0.969511         84.4365         21.3159 
       0.975621         83.1223         20.9997 
       0.981748         83.1004         20.6891 
       0.987916         82.3923         20.3829 
        0.99406         81.8384         20.0841 
        1.00019         81.4251         19.7919 
        1.00632         80.5995         19.5058 
        1.01246         80.0936         19.2249 
        1.01859         79.5119           18.95 
        1.02471         79.1251         18.6809 
        1.03085         78.5401         18.4161 
        1.03698          77.844         18.1571 
        1.04314         77.4241         17.9019 
        1.04929         77.1399         17.6522 
        1.05541          76.495         17.4083 
        1.06154         75.7368         17.1685 
        1.06769         75.1752         16.9328 
        1.07382         74.7695         16.7023 
        1.07993         74.6304         16.4766 
        1.08607          74.185         16.2542 
        1.09222         73.3565         16.0357 
        1.09836         72.9401         15.8215 
        1.10449         72.5412         15.6114 
        1.11063         71.9682         15.4049 
        1.11677         71.8146         15.2023 
         1.1229         70.9009         15.0036 
        1.12903         70.3476         14.8084 
        1.13518         69.9249         14.6164 
        1.14131          69.826          14.428 
        1.14745         69.3438          14.243 
        1.15359         68.8272         14.0612 
        1.15973         68.4895         13.8825 
        1.16584         68.0428         13.7077 
        1.17197         67.5757         13.5357 
        1.17811         67.2634         13.3662 
        1.18424         66.6882            13.2 
        1.19038         66.4005         13.0362 
        1.19652         66.0842         12.8752 
        1.20267         65.5001          12.717 
        1.20881         65.0409         12.5615 
        1.21495         64.9307         12.4088 
        1.22108         64.4457         12.2587 
         1.2272         64.4129         12.1114 
        1.23334         63.9113         11.9663 
        1.23949         63.2706         11.8231 
        1.24562          62.908         11.6827 
        1.25174         62.9503         11.5449 
        1.25789         62.3741         11.4088 
        1.26402         61.9428         11.2751 
        1.27014         61.5277          11.144 
        1.27628         61.2546         11.0145 
        1.28244         61.0869         10.8869 
        1.28858         60.7694         10.7614 
        1.29471         60.3043         10.6382 
        1.30084         59.9557          10.517 
        1.30697         59.5314         10.3976 
        1.31312         59.4306         10.2798 
        1.31925         58.8851         10.1643 
        1.32537         58.5963         10.0506 
        1.33151         58.5334         9.93825 
        1.33765         57.9514          9.8277 
        1.34378         57.8006         9.71905 
        1.34992         57.4052         9.61197 
        1.35606         57.3656         9.50627 
         1.3622         56.8389         9.40235 
        1.36833          56.567         9.30024 
        1.37445         56.2699         9.19969 
        1.38059         55.8525         9.10033 
        1.38675         55.7181          9.0022 
        1.39288         55.3631          8.9059 
        1.39901         55.1042         8.81106 
        1.40515         54.7587         8.71738 
         1.4113         54.5029         8.62511 
        1.41742         54.3375         8.53452 
        1.42355         54.0175         8.44507 
         1.4297         53.6482         8.35663 
        1.43585         53.6725          8.2695 
        1.44198         53.1621         8.18394 
        1.44809         52.8876         8.09975 
        1.45423         52.8141         8.01645 
        1.46036         52.3401         7.93446 
        1.46649         52.0468         7.85359 
        1.47263         51.7929         7.77379 
        1.47877         51.6279         7.69514 
        1.48491         51.2497         7.61745 
        1.49104         51.0958           7.541 
        1.49718          50.741         7.46554 
        1.50333         50.5743         7.39099 
        1.50947         50.3707         7.31762 
         1.5156         50.1058         7.24535 
        1.52172         49.7482         7.17406 
        1.52787         49.6121         7.10359 
          1.534         49.4102         7.03415 
        1.54013         49.1397         6.96571 
        1.54627         48.8785         6.89807 
        1.55241         48.7216         6.83131 
        1.55855         48.3756         6.76552 
        1.56467         47.9996         6.70079 
         1.5708         47.9861         6.63672 
        1.57695         47.6322         6.57339 
        1.58308         47.5659         6.51104 
        1.58922         47.2243         6.44945 
        1.59535         47.1798         6.38867 
         1.6015         46.8432          6.3286 
        1.60764          46.636         6.26933 
        1.61376          46.481         6.21098 
        1.61989         46.1456         6.15332 
        1.62604         45.9908         6.09627 
        1.63218          45.761         6.03997 
        1.63831          45.557         5.98452 
        1.64444         45.3625         5.92974 
        1.65059         45.1199         5.87551 
        1.65673         44.9246         5.82203 
        1.66285         44.6753         5.76936 
        1.66898         44.3934         5.71732 
        1.67512         44.2209         5.66582 
        1.68127         44.0536         5.61492 
         1.6874         43.9701         5.56475 
        1.69353          43.737         5.51522 
        1.69967         43.4731         5.46618 
        1.70581         43.2987         5.41776 
        1.71193         43.0518         5.37011 
        1.71806         42.8711         5.32293 
        1.72421         42.6386         5.27623 
        1.73035         42.5197         5.23014 
        1.73649         42.3211         5.18461 
        1.74262         42.1194         5.13965 
        1.74876         41.9595         5.09521 
        1.75489         41.8837         5.05137 
        1.76101         41.5766         5.00807 
        1.76715         41.4753         4.96522 
        1.77329         41.2378         4.92282 
        1.77943         40.9919         4.88089 
        1.78557         40.9201         4.83951 
        1.79171         40.5787         4.79861 
        1.79785         40.5273         4.75817 
        1.80399         40.3451         4.71821 
        1.81012         40.1017         4.67876 
        1.81625         39.9818         4.63977 
        1.82239         39.7394         4.60118 
        1.82853         39.5983         4.56304 
        1.83466         39.4294         4.52537 
        1.84078         39.2088         4.48816 
        1.84692         39.1251         4.45131 
        1.85306         39.0277         4.41483 
         1.8592         38.7588         4.37882 
        1.86533         38.5698         4.34322 
        1.87147         38.3248         4.30798 
        1.87761         38.1794         4.27312 
        1.88375         38.0546         4.23868 
        1.88988         37.9527         4.20466 
        1.89601         37.7402         4.17099 
        1.90215          37.601         4.13767 
        1.90829         37.4592         4.10473 
        1.91442         37.2706         4.07214 
        1.92056         37.0547         4.03993 
         1.9267         36.9019         4.00804 
        1.93284         36.7561         3.97647 
        1.93897         36.5744         3.94531 
        1.94509         36.4716         3.91454 
        1.95123         36.3367         3.88403 
        1.95737         36.1167         3.85382 
        1.96349         36.0436         3.82401 
        1.96964         35.8895         3.79442 
        1.97578         35.6577         3.76514 
        1.98192         35.5179         3.73622 
        1.98805         35.3979         3.70761 
        1.99419         35.2195         3.67929 
        2.00033         35.0598         3.65126 
        2.00647         34.8905         3.62352 
         2.0126          34.805         3.59612 
        2.01874         34.6172         3.56896 
        2.02488         34.4739         3.54206 
        2.03101         34.3575         3.51548 
        2.03714           34.22         3.48921 
        2.04328         34.1562         3.46317 
        2.04941         33.8915         3.43741 
        2.05554         33.6995         3.41194 
        2.06167         33.6119          3.3867 
        2.06781         33.5262          3.3617 
        2.07396         33.4022         3.33692 
        2.08009         33.2222         3.31243 
        2.08622         33.0964         3.28822 
        2.09237         32.9542          3.2642 
        2.09851          32.744         3.24042 
        2.10464         32.6819         3.21691 
        2.11077         32.5273         3.19367 
        2.11691         32.3836          3.1706 
        2.12305          32.236         3.14776 
        2.12918         32.0643          3.1252 
        2.13531         31.9343         3.10286 
        2.14145         31.8341         3.08068 
         2.1476         31.7502         3.05869 
        2.15372         31.6124         3.03703 
        2.15985         31.4317         3.01556 
        2.16599         31.3674         2.99423 
        2.17213         31.2244         2.97314 
        2.17827         31.0672         2.95225 
         2.1844         30.9548         2.93158 
        2.19054         30.8981          2.9111 
        2.19666          30.699         2.89084 
         2.2028         30.5767         2.87076 
        2.20893         30.4112         2.85086 
        2.21508         30.3209         2.83113 
        2.22122         30.1559         2.81158 
        2.22736          30.006         2.79225 
        2.23349         29.9633         2.77311 
        2.23962         29.8642         2.75413 
        2.24577         29.6915         2.73532 
         2.2519          29.581         2.71671 
        2.25802         29.4719          2.6983 
        2.26417         29.2699         2.68002 
        2.27031         29.1789         2.66188 
        2.27644         29.0634         2.64397 
        2.28257         29.0176         2.62622 
        2.28872         28.8192          2.6086 
        2.29486          28.753         2.59114 
        2.30099         28.6446         2.57388 
        2.30712         28.4995         2.55677 
        2.31326         28.4068         2.53979 
         2.3194         28.2537         2.52297 
        2.32553         28.1918         2.50633 
        2.33166         28.0813         2.48984 
         2.3378         27.9472         2.47348 
        2.34394         27.7987         2.45727 
        2.35007          27.717         2.44122 
        2.35619         27.6056         2.42534 
        2.36233         27.4965         2.40956 
        2.36848         27.4167         2.39388 
        2.37462         27.3527         2.37838 
        2.38075          27.176         2.36303 
        2.38689         27.0397         2.34781 
        2.39303         26.9474         2.33272 
        2.39916         26.8895         2.31778 
        2.40529         26.7799         2.30297 
        2.41143         26.6628         2.28828 
        2.41757         26.5512         2.27371 
         2.4237         26.4294         2.25929 
        2.42983         26.3031           2.245 
        2.43598         26.2037          2.2308 
        2.44211         26.0752         2.21674 
        2.44823         25.9985         2.20283 
        2.45437         25.9092         2.18901 
        2.46052         25.8105         2.17529 
        2.46665         25.6599         2.16172 
        2.47279         25.5831         2.14826 
        2.47892         25.5145         2.13491 
        2.48507         25.3478         2.12166 
         2.4912         25.3009         2.10855 
