# k  (h/Mpc)    P(k)  (Mpc/h)^3    P_linear(k)  (Mpc/h)^3
     0.00783031         175.995         177.766 
       0.013688         191.925          193.25 
       0.019231         173.255         173.456 
      0.0249154          141.29         140.926 
      0.0312784         106.124         105.601 
      0.0375637         79.9202         79.5488 
      0.0433917         64.6636         64.2645 
      0.0492413         55.8833         55.6661 
      0.0555754         51.2255         50.9888 
      0.0619321          48.038         48.0934 
       0.067871         44.9806         44.9434 
      0.0738098          40.512          40.478 
      0.0800417         34.7454         34.6478 
      0.0862327         28.8131         28.7174 
      0.0921407         23.9855          23.892 
      0.0982031         20.4497         20.3144 
       0.104506         18.1555         18.0953 
       0.110769         17.0965         17.0493 
       0.116806         16.6815         16.6253 
       0.122832         16.2725         16.2627 
       0.129052         15.5817         15.5533 
       0.135211         14.4139         14.3709 
       0.141259         12.8977         12.8678 
       0.147318         11.3138          11.291 
       0.153489         9.92898         9.88273 
       0.159709         8.87956         8.83014 
       0.165845         8.19631          8.1783 
       0.171974         7.88015         7.83195 
       0.178125         7.68395         7.65333 
       0.184229          7.5123         7.49655 
        0.19034         7.27825         7.24716 
       0.196428         6.88488         6.86047 
       0.202534         6.36167         6.35874 
       0.208729         5.83308         5.80642 
       0.214876         5.33488         5.29661 
       0.220989           4.909         4.88406 
       0.227147         4.62133         4.58397 
        0.23329         4.42183         4.38645 
       0.239377         4.28898         4.25538 
       0.245482         4.17745         4.14511 
       0.251667         4.03661         4.01772 
       0.257832         3.88393         3.85441 
       0.263955         3.67813         3.65634 
       0.270079         3.46133         3.43933 
        0.27624         3.24309         3.22474 
       0.282372         3.05381         3.03492 
        0.28843         2.90877          2.8812 
       0.294538         2.78553         2.76027 
       0.300721         2.68198         2.66502 
        0.30691         2.60752         2.58387 
       0.313033         2.52784         2.50564 
       0.319153         2.45078         2.42069 
       0.325316         2.34275         2.32613 
        0.33145         2.24143         2.22512 
       0.337538         2.14265         2.12425 
       0.343633         2.05158         2.02863 
       0.349808         1.96112          1.9419 
       0.355968         1.88524         1.86733 
       0.362074         1.82501         1.80384 
       0.368217         1.76779         1.74762 
       0.374374         1.71816         1.69486 
       0.380519         1.66156         1.64279 
       0.386598         1.60592         1.59009 
       0.392688         1.54979         1.53577 
        0.39888         1.49684         1.48042 
       0.405048         1.44404          1.4267 
       0.411186         1.39295         1.37627 
       0.417313         1.34679         1.33013 
       0.423458         1.30139         1.28795 
       0.429607         1.26634         1.24929 
       0.435692         1.23087         1.21365 
       0.441815         1.19522         1.17922 
       0.447964         1.15752         1.14522 
       0.454126         1.12705         1.11152 
       0.460267         1.09502         1.07832 
       0.466387         1.06189         1.04587 
        0.47254         1.03149         1.01441 
       0.478662        0.999776        0.984728 
       0.484765        0.973271        0.956842 
       0.490885        0.944446        0.930461 
       0.497035        0.917591        0.905406 
       0.503198        0.895799        0.881477 
       0.509342        0.870513        0.858448 
       0.515458         0.84968        0.836063 
       0.521598        0.828042        0.814092 
       0.527764         0.80804        0.792613 
       0.533884        0.783776        0.771949 
           0.54        0.764876        0.752014 
       0.546137        0.744546        0.732775 
       0.552299         0.72648        0.714275 
       0.558452        0.708873        0.696632 
       0.564573        0.691791        0.679797 
       0.570708        0.675713        0.663521 
       0.576825        0.660111        0.647783 
       0.582926         0.64346        0.632514 
       0.589034        0.630147        0.617657 
       0.595184        0.616319        0.603142 
       0.601379        0.600827        0.588983 
       0.607522        0.586326        0.575396 
       0.613639        0.572412        0.562307 
       0.619772        0.560878        0.549615 
       0.625918        0.548582        0.537317 
       0.632068        0.536459         0.52542 
       0.638161        0.524583        0.514011 
         0.6443        0.513272        0.502867 
       0.650464           0.503        0.492011 
       0.656582        0.492718        0.481538 
       0.662703        0.481896        0.471346 
       0.668861        0.470735        0.461379 
       0.675024        0.461451        0.451687 
       0.681124        0.454016        0.442372 
       0.687237        0.443736        0.433311 
       0.693381        0.433609        0.424475 
       0.699536        0.426496        0.415882 
       0.705665        0.418142        0.407572 
       0.711789        0.408472          0.3995 
       0.717957        0.401187        0.391593 
        0.72409        0.393166        0.383942 
       0.730186        0.386897        0.376537 
       0.736317         0.37809        0.369284 
       0.742472        0.371891        0.362194 
       0.748622        0.365172        0.355296 
        0.75476        0.357626        0.348594 
       0.760888        0.351827        0.342076 
       0.767043        0.343178        0.335702 
       0.773185        0.338149        0.329507 
       0.779291        0.333052        0.323506 
       0.785407        0.326547        0.317648 
       0.791564        0.320391        0.311899 
       0.797719        0.314772        0.306297 
       0.803834        0.309126        0.300868 
       0.809972        0.304084        0.295552 
       0.816124        0.298468        0.290353 
       0.822261        0.293652        0.285294 
       0.828378        0.288495         0.28037 
       0.834502        0.283472        0.275559 
       0.840667        0.279161         0.27083 
       0.846816        0.274289        0.266226 
       0.852925        0.269312        0.261758 
       0.859047        0.264967        0.257384 
       0.865192        0.260828        0.253096 
       0.871341        0.256993        0.248903 
       0.877463        0.252025        0.244825 
       0.883569        0.248247        0.240848 
       0.889708        0.244402        0.236941 
       0.895864        0.240619         0.23311 
       0.902008        0.236489        0.229372 
       0.908149        0.233025        0.225719 
       0.914301        0.229931        0.222139 
       0.920448         0.22627        0.218641 
       0.926574         0.22316        0.215231 
       0.932687        0.219769        0.211901 
       0.938823        0.215717         0.20863 
       0.944975        0.212613        0.205421 
       0.951105        0.209052        0.202291 
       0.957225        0.205981        0.199232 
       0.963368        0.203324        0.196227 
       0.969511        0.200644        0.193283 
       0.975621        0.197069        0.190416 
       0.981748        0.193838          0.1876 
       0.987916        0.191328        0.184824 
        0.99406         0.18887        0.182114 
        1.00019        0.185955        0.179464 
        1.00632        0.183789         0.17687 
        1.01246        0.181145        0.174323 
        1.01859        0.178574        0.171831 
        1.02471        0.175666        0.169391 
        1.03085        0.173034         0.16699 
        1.03698        0.171092        0.164641 
        1.04314         0.16856        0.162327 
        1.04929        0.166716        0.160063 
        1.05541        0.163885        0.157851 
        1.06154         0.16194        0.155676 
        1.06769        0.159891        0.153539 
        1.07382         0.15775        0.151449 
        1.07993        0.155673        0.149403 
        1.08607        0.153469        0.147386 
        1.09222        0.151496        0.145405 
        1.09836        0.149501        0.143462 
        1.10449        0.147382        0.141558 
        1.11063         0.14552        0.139686 
        1.11677        0.143917        0.137848 
         1.1229          0.1417        0.136047 
        1.12903        0.140084        0.134276 
        1.13518        0.138263        0.132535 
        1.14131        0.136572        0.130827 
        1.14745        0.135324        0.129149 
        1.15359        0.133281        0.127501 
        1.15973         0.13181        0.125881 
        1.16584        0.130044        0.124296 
        1.17197        0.128207        0.122736 
        1.17811        0.126693        0.121199 
        1.18424        0.125173        0.119692 
        1.19038        0.123407        0.118207 
        1.19652        0.122388        0.116747 
        1.20267        0.120878        0.115313 
        1.20881        0.119023        0.113902 
        1.21495        0.117777        0.112518 
        1.22108        0.116534        0.111157 
         1.2272        0.114927        0.109822 
        1.23334        0.113693        0.108505 
        1.23949        0.112557        0.107207 
        1.24562        0.111141        0.105934 
        1.25174         0.10997        0.104684 
        1.25789        0.108322         0.10345 
        1.26402        0.107467        0.102238 
        1.27014        0.105899        0.101049 
        1.27628        0.104887       0.0998751 
        1.28244        0.103719       0.0987176 
        1.28858        0.102377         0.09758 
        1.29471        0.101376       0.0964629 
        1.30084        0.100138       0.0953643 
        1.30697       0.0993381       0.0942812 
        1.31312       0.0981818       0.0932133 
        1.31925       0.0969813       0.0921654 
        1.32537       0.0959926       0.0911347 
        1.33151        0.094927        0.090116 
        1.33765       0.0937865       0.0891136 
        1.34378         0.09274       0.0881284 
        1.34992       0.0920066       0.0871574 
        1.35606       0.0908816        0.086199 
         1.3622       0.0899369       0.0852567 
        1.36833       0.0891325       0.0843308 
        1.37445       0.0881733       0.0834191 
        1.38059       0.0872153       0.0825181 
        1.38675       0.0861746       0.0816283 
        1.39288       0.0851343       0.0807551 
        1.39901       0.0845091       0.0798951 
        1.40515       0.0835831       0.0790458 
         1.4113       0.0828071        0.078209 
        1.41742       0.0820046       0.0773876 
        1.42355        0.080805       0.0765765 
         1.4297       0.0803086       0.0757746 
        1.43585       0.0793629       0.0749845 
        1.44198       0.0786427       0.0742087 
        1.44809       0.0778475       0.0734453 
        1.45423       0.0770215       0.0726899 
        1.46036       0.0762741       0.0719465 
        1.46649       0.0754938       0.0712133 
        1.47263       0.0745415       0.0704897 
        1.47877       0.0742325       0.0697765 
        1.48491       0.0731895        0.069072 
        1.49104       0.0727596       0.0683788 
        1.49718       0.0719208       0.0676945 
        1.50333       0.0712436       0.0670186 
        1.50947       0.0705699       0.0663533 
         1.5156       0.0699082        0.065698 
        1.52172       0.0692143       0.0650516 
        1.52787       0.0684165       0.0644126 
          1.534       0.0679627       0.0637829 
        1.54013       0.0672131       0.0631624 
        1.54627       0.0667386        0.062549 
        1.55241       0.0660384       0.0619436 
        1.55855       0.0654315       0.0613471 
        1.56467        0.064865       0.0607601 
         1.5708       0.0642349       0.0601792 
        1.57695       0.0636436        0.059605 
        1.58308       0.0628739       0.0590396 
        1.58922         0.06248       0.0584811 
        1.59535       0.0618267         0.05793 
         1.6015       0.0613796       0.0573853 
        1.60764       0.0606974       0.0568478 
        1.61376       0.0602079       0.0563187 
        1.61989       0.0596371       0.0557959 
        1.62604        0.059125       0.0552786 
        1.63218       0.0586132       0.0547681 
        1.63831        0.058081       0.0542653 
        1.64444       0.0575928       0.0537686 
        1.65059        0.056927       0.0532769 
        1.65673       0.0565406       0.0527919 
        1.66285       0.0561457       0.0523143 
        1.66898       0.0555225       0.0518425 
        1.67512       0.0550846       0.0513755 
        1.68127       0.0545806       0.0509139 
         1.6874       0.0541425        0.050459 
        1.69353       0.0536728         0.05001 
        1.69967       0.0530789       0.0495653 
        1.70581       0.0528629       0.0491262 
        1.71193       0.0523764       0.0486942 
        1.71806       0.0518651       0.0482664 
        1.72421       0.0513665       0.0478429 
        1.73035       0.0509997       0.0474249 
        1.73649        0.050577       0.0470121 
        1.74262       0.0501235       0.0466045 
        1.74876       0.0498096       0.0462014 
        1.75489        0.049319        0.045804 
        1.76101        0.048972       0.0454113 
        1.76715       0.0485455       0.0450228 
        1.77329        0.048079       0.0446383 
        1.77943       0.0476732       0.0442581 
        1.78557       0.0473959       0.0438829 
        1.79171       0.0469887        0.043512 
        1.79785       0.0465483       0.0431453 
        1.80399       0.0461489        0.042783 
        1.81012       0.0458369       0.0424252 
        1.81625       0.0455079       0.0420718 
        1.82239       0.0451652       0.0417218 
        1.82853       0.0447511       0.0413759 
        1.83466       0.0444034       0.0410344 
        1.84078       0.0440808        0.040697 
        1.84692       0.0437478       0.0403629 
        1.85306       0.0433901       0.0400321 
         1.8592       0.0430641       0.0397055 
        1.86533       0.0427376       0.0393828 
        1.87147       0.0423815       0.0390632 
        1.87761       0.0420121       0.0387471 
        1.88375       0.0416281       0.0384348 
        1.88988       0.0414039       0.0381263 
        1.89601       0.0410554       0.0378211 
        1.90215        0.040712       0.0375189 
        1.90829       0.0403758       0.0372202 
        1.91442       0.0401407       0.0369247 
        1.92056       0.0398337       0.0366326 
         1.9267       0.0395366       0.0363435 
        1.93284       0.0391661       0.0360572 
        1.93897       0.0388685       0.0357746 
        1.94509       0.0386201       0.0354957 
        1.95123       0.0383228        0.035219 
        1.95737       0.0381254        0.034945 
        1.96349       0.0378417       0.0346747 
        1.96964       0.0374922       0.0344065 
        1.97578       0.0372416       0.0341409 
        1.98192       0.0369632       0.0338787 
        1.98805        0.036724       0.0336193 
        1.99419       0.0364706       0.0333625 
        2.00033       0.0361363       0.0331083 
        2.00647       0.0359114       0.0328568 
         2.0126       0.0356975       0.0326084 
        2.01874       0.0353802       0.0323621 
        2.02488       0.0351292       0.0321181 
        2.03101       0.0348618       0.0318772 
        2.03714       0.0347544       0.0316389 
        2.04328       0.0343331       0.0314028 
        2.04941       0.0341781       0.0311693 
        2.05554       0.0339644       0.0309383 
        2.06167       0.0336678       0.0307094 
        2.06781       0.0334215       0.0304827 
        2.07396       0.0332004        0.030258 
        2.08009       0.0329514        0.030036 
        2.08622       0.0327605       0.0298164 
        2.09237       0.0325359       0.0295987 
        2.09851       0.0322943        0.029383 
        2.10464       0.0320933       0.0291699 
        2.11077       0.0318393       0.0289591 
        2.11691       0.0316644       0.0287499 
        2.12305       0.0313721       0.0285428 
        2.12918       0.0311883       0.0283382 
        2.13531        0.030984       0.0281356 
        2.14145       0.0307705       0.0279346 
         2.1476       0.0305898       0.0277352 
        2.15372       0.0303777       0.0275388 
        2.15985       0.0301681       0.0273441 
        2.16599       0.0299123       0.0271507 
        2.17213       0.0297913       0.0269594 
        2.17827       0.0295763         0.02677 
         2.1844       0.0293613       0.0265826 
        2.19054         0.02919       0.0263969 
        2.19666       0.0289935       0.0262132 
         2.2028       0.0287362       0.0260311 
        2.20893       0.0286252       0.0258507 
        2.21508       0.0283788       0.0256717 
        2.22122       0.0281767       0.0254944 
        2.22736       0.0280348       0.0253192 
        2.23349       0.0278617       0.0251456 
        2.23962       0.0277084       0.0249736 
        2.24577       0.0275199        0.024803 
         2.2519       0.0273105       0.0246343 
        2.25802       0.0271706       0.0244673 
        2.26417       0.0270021       0.0243015 
        2.27031        0.026826       0.0241371 
        2.27644       0.0266926       0.0239746 
        2.28257       0.0264563       0.0238137 
        2.28872       0.0263199       0.0236539 
        2.29486        0.026173       0.0234956 
        2.30099       0.0259785       0.0233391 
        2.30712       0.0258665        0.023184 
        2.31326       0.0256428         0.02303 
         2.3194       0.0255107       0.0228774 
        2.32553       0.0253577       0.0227266 
        2.33166       0.0251661       0.0225771 
         2.3378       0.0250252       0.0224288 
        2.34394       0.0248818       0.0222817 
        2.35007       0.0247375       0.0221362 
        2.35619       0.0246424       0.0219922 
        2.36233       0.0244288       0.0218491 
        2.36848       0.0242786        0.021707 
        2.37462        0.024169       0.0215664 
        2.38075       0.0240043       0.0214272 
        2.38689        0.023871       0.0212892 
        2.39303       0.0237377       0.0211523 
        2.39916       0.0235491       0.0210169 
        2.40529       0.0234151       0.0208826 
        2.41143        0.023258       0.0207494 
        2.41757       0.0231541       0.0206173 
         2.4237       0.0230048       0.0204865 
        2.42983       0.0228581        0.020357 
        2.43598       0.0227276       0.0202282 
        2.44211       0.0225745       0.0201007 
        2.44823       0.0224836       0.0199746 
        2.45437       0.0223287       0.0198493 
        2.46052       0.0222116       0.0197249 
        2.46665       0.0220777       0.0196018 
        2.47279       0.0219717       0.0194798 
        2.47892       0.0218646       0.0193587 
        2.48507       0.0216964       0.0192386 
         2.4912       0.0215918       0.0191197 
