# k  (h/Mpc)    P(k)  (Mpc/h)^3    P_linear(k)  (Mpc/h)^3
     0.00783031         16613.1         16723.9 
       0.013688         18753.9         19256.2 
       0.019231           18028           18298 
      0.0249154         15888.4         15804.4 
      0.0312784         12592.7         12657.5 
      0.0375637         9937.53         10044.8 
      0.0433917         8341.02         8324.91 
      0.0492413         7197.54         7223.23 
      0.0555754         6558.11          6524.3 
      0.0619321         5925.09          6078.5 
       0.067871         5629.82         5692.15 
      0.0738098         5209.21         5222.09 
      0.0800417         4638.48         4620.54 
      0.0862327         3991.76         3976.43 
      0.0921407         3471.54         3404.84 
      0.0982031         3058.63         2929.61 
       0.104506         2669.55         2583.31 
       0.110769         2475.92         2374.63 
       0.116806         2386.08         2262.25 
       0.122832         2274.35         2188.85 
       0.129052          2169.1         2107.27 
       0.135211         2095.18         1990.82 
       0.141259         1913.72         1836.68 
       0.147318         1737.43          1658.3 
       0.153489            1587         1477.87 
       0.159709         1483.49         1321.39 
       0.165845         1341.91         1205.06 
       0.171974         1301.58         1127.49 
       0.178125         1253.53         1079.87 
       0.184229         1169.47         1048.94 
        0.19034         1153.33         1019.99 
       0.196428         1117.54         982.426 
       0.202534         1037.95         931.552 
       0.208729         1011.76         868.742 
       0.214876         953.418         802.217 
       0.220989         889.169          739.86 
       0.227147         858.349         686.968 
        0.23329          819.52           646.7 
       0.239377         810.631         618.194 
       0.245482         768.445          597.63 
       0.251667         741.189         580.462 
       0.257832         729.489         562.713 
       0.263955         691.328         541.778 
       0.270079         665.455         516.969 
        0.27624         636.272         489.323 
       0.282372         622.145         461.495 
        0.28843         611.719         435.965 
       0.294538         579.266         413.817 
       0.300721         563.891         395.613 
        0.30691         551.393         381.095 
       0.313033         526.032         369.206 
       0.319153         518.736         358.309 
       0.325316          509.55         347.115 
        0.33145         496.418         335.041 
       0.337538         477.393         322.096 
       0.343633         464.443         308.619 
       0.349808         452.243         295.161 
       0.355968         443.422         282.659 
       0.362074         426.186         271.579 
       0.368217         423.618         261.926 
       0.374374         415.869         253.493 
       0.380519         398.543         245.944 
       0.386598         394.274         238.886 
       0.392688         383.338         231.828 
        0.39888         374.074         224.508 
       0.405048         365.175         217.042 
       0.411186          364.43         209.581 
       0.417313         358.724         202.345 
       0.423458         348.936         195.487 
       0.429607          338.11         189.139 
       0.435692         333.302         183.426 
       0.441815         326.831         178.147 
       0.447964         319.834         173.191 
       0.454126         316.039         168.447 
       0.460267         310.627         163.825 
       0.466387         303.425         159.238 
        0.47254         299.901          154.66 
       0.478662         293.085         150.188 
       0.484765         288.691          145.86 
       0.490885          285.58         141.701 
       0.497035         279.175         137.751 
       0.503198         278.437          134.04 
       0.509342         272.149         130.546 
       0.515458         266.899         127.228 
       0.521598         262.795         124.022 
       0.527764         258.995         120.898 
       0.533884         256.496         117.868 
           0.54          252.94         114.894 
       0.546137         247.286         111.977 
       0.552299         245.762         109.139 
       0.558452         241.444         106.414 
       0.564573         240.297         103.817 
       0.570708         235.138          101.32 
       0.576825         231.334         98.9289 
       0.582926         229.892         96.6356 
       0.589034         225.446         94.4195 
       0.595184         223.964         92.2576 
       0.601379         220.366         90.1395 
       0.607522         215.174          88.089 
       0.613639         214.475         86.0984 
       0.619772         213.279         84.1591 
       0.625918         209.421          82.277 
       0.632068         206.754         80.4591 
       0.638161         205.622          78.721 
         0.6443         202.295         77.0277 
       0.650464         199.815          75.381 
       0.656582         197.553         73.7943 
       0.662703         196.804         72.2505 
       0.668861         192.355         70.7397 
       0.675024         191.836         69.2694 
       0.681124             189         67.8549 
       0.687237         187.804         66.4769 
       0.693381         184.348         65.1312 
       0.699536         183.841         63.8212 
       0.705665          181.59         62.5533 
       0.711789          179.16         61.3215 
       0.717957         177.889         60.1147 
        0.72409          175.24         58.9474 
       0.730186         176.035         57.8182 
       0.736317         173.214         56.7127 
       0.742472         171.268         55.6322 
       0.748622         169.282         54.5809 
        0.75476         168.988         53.5593 
       0.760888         166.778         52.5655 
       0.767043         164.147         51.5932 
       0.773185         162.537         50.6476 
       0.779291         161.435         49.7312 
       0.785407         160.261         48.8363 
       0.791564         158.918         47.9578 
       0.797719         156.212         47.1014 
       0.803834         156.846         46.2713 
       0.809972         154.751         45.4583 
       0.816124         152.153          44.663 
       0.822261          151.31         43.8889 
       0.828378         150.664         43.1355 
       0.834502         149.075         42.3992 
       0.840667         148.846         41.6753 
       0.846816          146.09         40.9705 
       0.852925          145.72         40.2865 
       0.859047         144.129         39.6167 
       0.865192           143.6         38.9601 
       0.871341         142.193          38.318 
       0.877463          140.71         37.6934 
       0.883569         140.522         37.0843 
       0.889708         139.256         36.4856 
       0.895864         137.477         35.8987 
       0.902008         136.357         35.3259 
       0.908149         135.081          34.766 
       0.914301         134.087         34.2173 
       0.920448         133.897         33.6811 
       0.926574         132.074         33.1582 
       0.932687         131.937         32.6475 
       0.938823         130.762         32.1458 
       0.944975         130.224         31.6535 
       0.951105         128.676         31.1733 
       0.957225           127.8         30.7039 
       0.963368         127.213         30.2427 
       0.969511         125.838         29.7908 
       0.975621         124.144         29.3507 
       0.981748         124.036         28.9184 
       0.987916         123.219          28.492 
        0.99406         122.311         28.0759 
        1.00019         121.705         27.6689 
        1.00632         120.616         27.2704 
        1.01246         119.765         26.8792 
        1.01859         118.806         26.4963 
        1.02471         118.031         26.1213 
        1.03085           117.3         25.7523 
        1.03698         116.482         25.3912 
        1.04314         115.986         25.0355 
        1.04929         115.346         24.6875 
        1.05541         114.792         24.3474 
        1.06154         113.484          24.013 
        1.06769         112.853         23.6843 
        1.07382         112.073         23.3629 
        1.07993          111.48         23.0482 
        1.08607          111.18          22.738 
        1.09222         109.862         22.4332 
        1.09836         109.315         22.1343 
        1.10449         108.752         21.8412 
        1.11063         107.743         21.5532 
        1.11677         107.368         21.2704 
         1.1229         106.329         20.9932 
        1.12903         105.432         20.7207 
        1.13518         104.873         20.4528 
        1.14131         104.691         20.1898 
        1.14745         103.758         19.9315 
        1.15359         103.095         19.6778 
        1.15973         102.565         19.4283 
        1.16584         101.762         19.1843 
        1.17197         101.387         18.9442 
        1.17811           100.6         18.7074 
        1.18424         99.9754         18.4754 
        1.19038         99.4603         18.2466 
        1.19652         98.7654         18.0218 
        1.20267         98.0738         17.8008 
        1.20881         97.3695         17.5836 
        1.21495          97.235         17.3703 
        1.22108         96.3828         17.1606 
         1.2272         96.1431         16.9548 
        1.23334         95.4305          16.752 
        1.23949         94.8161          16.552 
        1.24562         94.1025         16.3558 
        1.25174         94.1635         16.1631 
        1.25789         93.1969         15.9729 
        1.26402         92.7134         15.7861 
        1.27014         92.0001         15.6028 
        1.27628         91.6918         15.4218 
        1.28244         91.2116         15.2433 
        1.28858         90.6721         15.0679 
        1.29471         90.0375         14.8956 
        1.30084         89.4125         14.7262 
        1.30697         88.8684         14.5592 
        1.31312         88.5422         14.3945 
        1.31925         87.7851         14.2329 
        1.32537         87.3584         14.0739 
        1.33151         87.1964         13.9167 
        1.33765          86.518         13.7621 
        1.34378         86.2447         13.6101 
        1.34992         85.6427         13.4603 
        1.35606         85.3653         13.3125 
         1.3622         84.8911         13.1671 
        1.36833         84.2082         13.0242 
        1.37445         83.8993         12.8836 
        1.38059         83.3478         12.7445 
        1.38675         82.9439         12.6072 
        1.39288         82.3997         12.4725 
        1.39901         82.0209         12.3398 
        1.40515         81.5558         12.2087 
         1.4113         81.0578         12.0796 
        1.41742         80.9167         11.9528 
        1.42355         80.4098         11.8276 
         1.4297         79.8299         11.7039 
        1.43585         79.6072         11.5819 
        1.44198          78.932         11.4622 
        1.44809         78.5129         11.3444 
        1.45423         78.4619         11.2278 
        1.46036         77.6586          11.113 
        1.46649         77.2437         10.9998 
        1.47263         76.7381         10.8881 
        1.47877         76.6308          10.778 
        1.48491         76.1242         10.6692 
        1.49104         75.6359         10.5622 
        1.49718         75.2251         10.4565 
        1.50333         74.8402         10.3521 
        1.50947         74.6685         10.2494 
         1.5156         74.1701         10.1482 
        1.52172         73.5257         10.0483 
        1.52787         73.4083         9.94966 
          1.534         73.0751         9.85241 
        1.54013         72.6306         9.75656 
        1.54627         72.1763         9.66181 
        1.55241         72.0321          9.5683 
        1.55855         71.3514         9.47616 
        1.56467         70.9915         9.38548 
         1.5708         70.5244         9.29574 
        1.57695         70.3524         9.20703 
        1.58308         69.9964         9.11968 
        1.58922         69.6577          9.0334 
        1.59535         69.5653         8.94827 
         1.6015            68.9         8.86411 
        1.60764         68.5699         8.78107 
        1.61376         68.4757         8.69933 
        1.61989         67.9375         8.61855 
        1.62604         67.6963         8.53862 
        1.63218         67.2091         8.45975 
        1.63831         67.0046         8.38206 
        1.64444         66.5579         8.30531 
        1.65059         66.1871         8.22934 
        1.65673          66.078          8.1544 
        1.66285         65.6388         8.08061 
        1.66898         65.1053          8.0077 
        1.67512         64.7769         7.93554 
        1.68127         64.6225         7.86421 
         1.6874          64.313         7.79391 
        1.69353         63.9069         7.72452 
        1.69967           63.58          7.6558 
        1.70581         63.3354         7.58795 
        1.71193          63.005         7.52117 
        1.71806         62.6937         7.45505 
        1.72421         62.3479          7.3896 
        1.73035          62.003           7.325 
        1.73649          61.744         7.26119 
        1.74262          61.436         7.19818 
        1.74876          61.053         7.13588 
        1.75489         60.9298         7.07445 
        1.76101          60.655         7.01376 
        1.76715         60.2463         6.95369 
        1.77329           59.94         6.89425 
        1.77943         59.6877         6.83549 
        1.78557         59.4732         6.77749 
        1.79171         58.9872         6.72015 
        1.79785         58.8335         6.66346 
        1.80399          58.609         6.60744 
        1.81012         58.1487         6.55214 
        1.81625         57.9487         6.49749 
        1.82239         57.5224         6.44338 
        1.82853         57.4408         6.38991 
        1.83466         57.0632          6.3371 
        1.84078         56.7273         6.28494 
        1.84692         56.5861         6.23329 
        1.85306         56.4937         6.18214 
         1.8592         56.1172         6.13165 
        1.86533         55.7278         6.08175 
        1.87147         55.4361         6.03235 
        1.87761         55.0104         5.98347 
        1.88375         55.0091         5.93519 
        1.88988          54.685          5.8875 
        1.89601         54.5091          5.8403 
        1.90215         54.2036         5.79358 
        1.90829         53.8533         5.74739 
        1.91442         53.5564          5.7017 
        1.92056          53.408         5.65655 
         1.9267         53.1065         5.61184 
        1.93284         52.9587         5.56758 
        1.93897         52.5561         5.52389 
        1.94509         52.3716         5.48075 
        1.95123         52.1101         5.43797 
        1.95737          51.914         5.39561 
        1.96349         51.7284         5.35381 
        1.96964          51.403         5.31233 
        1.97578         51.0806         5.27127 
        1.98192         50.7858         5.23073 
        1.98805         50.5537          5.1906 
        1.99419          50.536          5.1509 
        2.00033         50.1266         5.11159 
        2.00647         49.8966          5.0727 
         2.0126         49.7605         5.03427 
        2.01874         49.5809         4.99619 
        2.02488         49.3155         4.95847 
        2.03101         48.9956          4.9212 
        2.03714         48.7997         4.88435 
        2.04328         48.6348         4.84784 
        2.04941         48.3013         4.81173 
        2.05554         48.0214         4.77601 
        2.06167         47.7968          4.7406 
        2.06781         47.6799         4.70555 
        2.07396         47.3931          4.6708 
        2.08009         47.2722         4.63646 
        2.08622         46.9512         4.60251 
        2.09237         46.7705         4.56883 
        2.09851         46.4751         4.53547 
        2.10464          46.258         4.50251 
        2.11077         46.0977         4.46991 
        2.11691         45.9054         4.43756 
        2.12305         45.6342         4.40553 
        2.12918         45.3841         4.37389 
        2.13531         45.2491         4.34256 
        2.14145         44.9398         4.31146 
         2.1476         44.9485         4.28063 
        2.15372         44.5777         4.25025 
        2.15985         44.4157         4.22014 
        2.16599         44.2519         4.19023 
        2.17213         44.0378         4.16065 
        2.17827         43.7404         4.13136 
         2.1844         43.5294         4.10237 
        2.19054         43.4831         4.07365 
        2.19666          43.212         4.04525 
         2.2028         42.9859         4.01709 
        2.20893         42.7141         3.98918 
        2.21508         42.6135         3.96151 
        2.22122         42.2845         3.93409 
        2.22736         42.1429         3.90698 
        2.23349         42.0145         3.88014 
        2.23962         41.8632         3.85353 
        2.24577         41.5997         3.82715 
         2.2519          41.394         3.80106 
        2.25802         41.2083         3.77524 
        2.26417         41.0427          3.7496 
        2.27031         40.8692         3.72417 
        2.27644         40.5583         3.69904 
        2.28257         40.4939         3.67415 
        2.28872         40.2798         3.64944 
        2.29486         40.0721         3.62496 
        2.30099         39.8888         3.60076 
        2.30712         39.7145         3.57676 
        2.31326          39.532         3.55295 
         2.3194         39.3451         3.52936 
        2.32553         39.1773         3.50602 
        2.33166         39.0574         3.48291 
         2.3378         38.7916         3.45997 
        2.34394         38.6606         3.43723 
        2.35007          38.506         3.41473 
        2.35619         38.2822         3.39245 
        2.36233         38.1737         3.37032 
        2.36848          37.931         3.34834 
        2.37462         37.7785         3.32661 
        2.38075         37.5992         3.30508 
        2.38689         37.4056         3.28373 
        2.39303          37.286         3.26257 
        2.39916         37.1372         3.24162 
        2.40529         36.9815         3.22085 
        2.41143         36.8274         3.20025 
        2.41757         36.6084         3.17982 
         2.4237           36.43         3.15961 
        2.42983         36.3319         3.13957 
        2.43598         36.1572         3.11965 
        2.44211         35.9099         3.09994 
        2.44823         35.8462         3.08044 
        2.45437         35.6381         3.06106 
        2.46052         35.4302         3.04182 
        2.46665         35.2841         3.02278 
        2.47279         35.1406         3.00392 
        2.47892         34.9664          2.9852 
        2.48507         34.8309         2.96662 
         2.4912         34.6416         2.94823 
