# k  (h/Mpc)    Pcb(k)  (Mpc/h)^3    Pcb_linear(k)  (Mpc/h)^3
     0.00783031         8684.05         8741.52 
       0.013688         9884.19         10082.4 
       0.019231         9491.16         9588.22 
      0.0249154         8324.79         8285.35 
      0.0312784         6626.83         6637.69 
      0.0375637         5237.03         5268.67 
      0.0433917         4383.08         4367.11 
      0.0492413         3784.61         3789.55 
      0.0555754         3445.59         3423.13 
      0.0619321         3134.36         3189.42 
       0.067871         2972.14         2986.83 
      0.0738098         2739.61         2740.27 
      0.0800417         2437.52         2424.68 
      0.0862327         2093.99         2086.73 
      0.0921407         1807.51         1786.81 
      0.0982031         1580.73         1537.44 
       0.104506          1378.7         1355.72 
       0.110769         1274.75         1246.22 
       0.116806         1228.22         1187.26 
       0.122832         1172.32         1148.75 
       0.129052          1127.1         1105.94 
       0.135211         1079.48         1044.83 
       0.141259         988.309         963.945 
       0.147318         891.238          870.33 
       0.153489         807.469         775.637 
       0.159709         742.862         693.516 
       0.165845         669.065         632.464 
       0.171974         646.726          591.75 
       0.178125         619.437          566.76 
       0.184229         586.302          550.53 
        0.19034         575.955         535.338 
       0.196428         556.586         515.623 
       0.202534         516.128         488.925 
       0.208729         498.634          455.96 
       0.214876         468.945         421.044 
       0.220989         430.925         388.319 
       0.227147         414.051         360.557 
        0.23329          394.12         339.422 
       0.239377          384.86         324.461 
       0.245482         365.998         313.669 
       0.251667         352.171         304.658 
       0.257832         348.233         295.343 
       0.263955         328.583         284.356 
       0.270079         314.289         271.334 
        0.27624         299.653         256.825 
       0.282372         289.303          242.22 
        0.28843         284.255          228.82 
       0.294538         268.648         217.195 
       0.300721         258.175         207.641 
        0.30691         253.448         200.022 
       0.313033          241.73         193.782 
       0.319153         237.663         188.061 
       0.325316         231.141         182.187 
        0.33145         224.134         175.851 
       0.337538         215.549         169.056 
       0.343633         208.446         161.982 
       0.349808         201.654         154.919 
       0.355968         196.617         148.357 
       0.362074         190.713         142.542 
       0.368217         187.291         137.475 
       0.374374         182.241         133.049 
       0.380519         174.597         129.087 
       0.386598         171.517         125.382 
       0.392688         166.178         121.678 
        0.39888         162.836         117.836 
       0.405048         158.797         113.918 
       0.411186         156.541         110.001 
       0.417313         152.786         106.204 
       0.423458         148.641         102.604 
       0.429607         144.669         99.2734 
       0.435692         142.316         96.2732 
       0.441815         138.585         93.5033 
       0.447964         134.416         90.9019 
       0.454126         132.043         88.4121 
       0.460267         130.568         85.9854 
       0.466387         127.112         83.5788 
        0.47254         125.634         81.1754 
       0.478662         121.414         78.8284 
       0.484765         119.541         76.5568 
       0.490885         117.014          74.374 
       0.497035         115.719         72.3006 
       0.503198         113.697         70.3529 
       0.509342         110.675         68.5189 
       0.515458         108.869         66.7778 
       0.521598          106.06         65.0948 
       0.527764         105.063         63.4555 
       0.533884         104.197         61.8646 
           0.54         101.351         60.3043 
       0.546137         98.9753         58.7732 
       0.552299         97.3411         57.2832 
       0.558452         95.6475         55.8533 
       0.564573         95.1286         54.4898 
       0.570708         92.3845         53.1792 
       0.576825         91.3345         51.9245 
       0.582926          90.248         50.7208 
       0.589034         88.5905         49.5576 
       0.595184         87.4644          48.423 
       0.601379         85.6356         47.3111 
       0.607522          83.768          46.235 
       0.613639         83.1295         45.1903 
       0.619772         81.6101         44.1723 
       0.625918         81.0416         43.1845 
       0.632068         79.1631         42.2304 
       0.638161          78.183          41.318 
         0.6443         77.6188         40.4293 
       0.650464         75.8359          39.565 
       0.656582         75.4806         38.7322 
       0.662703         74.4401          37.922 
       0.668861         72.8135          37.129 
       0.675024         72.7033         36.3573 
       0.681124         71.4283         35.6148 
       0.687237          70.294         34.8916 
       0.693381         69.4164         34.1853 
       0.699536         68.6622         33.4977 
       0.705665         67.7992         32.8322 
       0.711789         66.7851         32.1857 
       0.717957         65.8749         31.5523 
        0.72409         65.1838         30.9396 
       0.730186         64.8072         30.3469 
       0.736317         63.7666         29.7667 
       0.742472         62.7169         29.1995 
       0.748622         61.8251         28.6478 
        0.75476         61.6174         28.1116 
       0.760888         61.1112           27.59 
       0.767043         59.8039         27.0796 
       0.773185         58.9874         26.5833 
       0.779291         58.3953         26.1023 
       0.785407         57.8385         25.6326 
       0.791564         57.5311         25.1715 
       0.797719         56.5297          24.722 
       0.803834         56.2223         24.2863 
       0.809972          55.666         23.8596 
       0.816124         54.8584         23.4422 
       0.822261         54.1399         23.0359 
       0.828378         53.9924         22.6404 
       0.834502         53.3127          22.254 
       0.840667         52.8409         21.8741 
       0.846816         52.2948         21.5041 
       0.852925         51.6105         21.1451 
       0.859047         51.4296         20.7936 
       0.865192         50.6837         20.4489 
       0.871341         50.1439         20.1119 
       0.877463         49.6446         19.7841 
       0.883569         49.5687         19.4644 
       0.889708         48.9704         19.1501 
       0.895864         48.5835         18.8421 
       0.902008         48.0268         18.5415 
       0.908149         47.4054         18.2476 
       0.914301         47.1354         17.9596 
       0.920448         47.0414         17.6781 
       0.926574         46.0917         17.4037 
       0.932687         45.8295         17.1357 
       0.938823         45.4282         16.8723 
       0.944975         44.8771         16.6139 
       0.951105          44.528         16.3619 
       0.957225         44.2678         16.1155 
       0.963368         43.8796         15.8734 
       0.969511         43.5179         15.6363 
       0.975621         43.0962         15.4053 
       0.981748         42.7419         15.1783 
       0.987916         42.3274         14.9546 
        0.99406          42.121         14.7362 
        1.00019         41.5963         14.5226 
        1.00632         41.2956         14.3134 
        1.01246          41.007          14.108 
        1.01859         40.7575         13.9071 
        1.02471         40.3612         13.7102 
        1.03085         40.0239         13.5166 
        1.03698         39.8152          13.327 
        1.04314         39.4465         13.1404 
        1.04929         39.0485         12.9577 
        1.05541         38.9088         12.7792 
        1.06154         38.5589         12.6037 
        1.06769         38.1804         12.4312 
        1.07382         37.8335         12.2625 
        1.07993         37.7031         12.0973 
        1.08607         37.3452         11.9345 
        1.09222         37.1637         11.7745 
        1.09836         36.8822         11.6176 
        1.10449         36.6488         11.4638 
        1.11063         36.3135         11.3126 
        1.11677         36.2095         11.1642 
         1.1229         35.8176         11.0187 
        1.12903         35.6086         10.8756 
        1.13518         35.4574          10.735 
        1.14131         35.1182          10.597 
        1.14745         34.8782         10.4614 
        1.15359          34.464         10.3282 
        1.15973         34.4698         10.1973 
        1.16584         34.1643         10.0693 
        1.17197         33.8104         9.94322 
        1.17811         33.6476         9.81895 
        1.18424         33.1951         9.69716 
        1.19038         33.0738         9.57709 
        1.19652          32.945          9.4591 
        1.20267          32.689         9.34311 
        1.20881         32.4758         9.22908 
        1.21495         32.3759         9.11713 
        1.22108         32.2678         9.00706 
         1.2272         31.8613         8.89907 
        1.23334         31.7373         8.79261 
        1.23949         31.5094         8.68763 
        1.24562          31.312         8.58466 
        1.25174          31.116         8.48351 
        1.25789         30.9359         8.38368 
        1.26402         30.7428         8.28564 
        1.27014         30.6382         8.18941 
        1.27628         30.3183         8.09441 
        1.28244         30.3409         8.00074 
        1.28858         29.9929         7.90867 
        1.29471         29.7462         7.81826 
        1.30084         29.5601         7.72933 
        1.30697         29.5489         7.64166 
        1.31312         29.2978         7.55522 
        1.31925         29.0504         7.47039 
        1.32537         28.8664         7.38694 
        1.33151         28.6811         7.30447 
        1.33765         28.6385         7.22331 
        1.34378         28.4802         7.14354 
        1.34992         28.2258         7.06492 
        1.35606         27.9718         6.98731 
         1.3622         27.9261           6.911 
        1.36833         27.8397         6.83602 
        1.37445         27.5351         6.76219 
        1.38059         27.4098         6.68922 
        1.38675         27.2727         6.61715 
        1.39288         27.1456         6.54643 
        1.39901         26.9253         6.47678 
        1.40515         26.8254         6.40798 
         1.4113         26.7558         6.34021 
        1.41742          26.561         6.27368 
        1.42355         26.3315         6.20797 
         1.4297         26.2932         6.14301 
        1.43585         26.1329           6.079 
        1.44198         25.9316         6.01615 
        1.44809         25.7707         5.95431 
        1.45423         25.7038         5.89311 
        1.46036         25.6129         5.83287 
        1.46649         25.3941         5.77346 
        1.47263         25.2553         5.71482 
        1.47877         25.1235         5.65703 
        1.48491         24.9833         5.59994 
        1.49104         24.8349         5.54375 
        1.49718         24.8083          5.4883 
        1.50333         24.6659         5.43351 
        1.50947          24.443         5.37959 
         1.5156         24.4064         5.32647 
        1.52172         24.2169         5.27407 
        1.52787         24.1834         5.22227 
          1.534         23.9454         5.17123 
        1.54013         23.9906         5.12092 
        1.54627         23.7587         5.07119 
        1.55241         23.6611         5.02211 
        1.55855         23.5214         4.97375 
        1.56467         23.3581         4.92616 
         1.5708         23.3304         4.87905 
        1.57695         23.2169         4.83249 
        1.58308          23.008         4.78664 
        1.58922         22.9297         4.74136 
        1.59535         22.8506         4.69667 
         1.6015         22.8002          4.6525 
        1.60764         22.5872         4.60892 
        1.61376         22.4865         4.56601 
        1.61989         22.3404         4.52362 
        1.62604         22.2448         4.48166 
        1.63218          22.088         4.44027 
        1.63831         22.0508         4.39949 
        1.64444         21.9617         4.35921 
        1.65059         21.8245         4.31933 
        1.65673         21.7509            4.28 
        1.66285         21.6683         4.24126 
        1.66898         21.5456           4.203 
        1.67512         21.4658         4.16513 
        1.68127         21.3404         4.12769 
         1.6874         21.2613         4.09079 
        1.69353          21.134         4.05437 
        1.69967         21.0444          4.0183 
        1.70581         20.9529         3.98268 
        1.71193         20.8517         3.94763 
        1.71806         20.7753         3.91293 
        1.72421         20.6801         3.87857 
        1.73035         20.5697         3.84467 
        1.73649         20.4305         3.81118 
        1.74262          20.344         3.77811 
        1.74876           20.36         3.74541 
        1.75489          20.176         3.71317 
        1.76101          20.112         3.68131 
        1.76715         19.9733         3.64978 
        1.77329         19.8674         3.61859 
        1.77943          19.836         3.58774 
        1.78557         19.7806          3.5573 
        1.79171         19.6724          3.5272 
        1.79785         19.5699         3.49745 
        1.80399         19.4445         3.46805 
        1.81012         19.4237         3.43902 
        1.81625         19.2559         3.41034 
        1.82239         19.1951         3.38194 
        1.82853         19.1235         3.35387 
        1.83466         19.0274         3.32616 
        1.84078         18.9267         3.29878 
        1.84692         18.8511         3.27166 
        1.85306         18.7687         3.24482 
         1.8592         18.7525         3.21832 
        1.86533         18.6451         3.19213 
        1.87147          18.531          3.1662 
        1.87761         18.4496         3.14055 
        1.88375         18.3694          3.1152 
        1.88988         18.3072         3.09017 
        1.89601         18.2178          3.0654 
        1.90215          18.137         3.04088 
        1.90829         18.0888         3.01663 
        1.91442         17.9675         2.99265 
        1.92056         17.9301         2.96895 
         1.9267         17.8617         2.94549 
        1.93284         17.8002         2.92226 
        1.93897         17.7079         2.89932 
        1.94509         17.6327         2.87668 
        1.95123         17.5412         2.85423 
        1.95737         17.4634         2.83199 
        1.96349         17.4231         2.81005 
        1.96964         17.3373         2.78828 
        1.97578         17.2653         2.76673 
        1.98192         17.1761         2.74545 
        1.98805         17.1011         2.72439 
        1.99419         17.0337         2.70355 
        2.00033         16.9548         2.68292 
        2.00647         16.9058         2.66251 
         2.0126         16.7936         2.64234 
        2.01874         16.7561         2.62235 
        2.02488         16.6645         2.60255 
        2.03101          16.598         2.58299 
        2.03714         16.5443         2.56365 
        2.04328         16.4615         2.54448 
        2.04941         16.3882         2.52553 
        2.05554          16.356         2.50678 
        2.06167         16.2998          2.4882 
        2.06781         16.2243          2.4698 
        2.07396         16.1568         2.45156 
        2.08009          16.059         2.43354 
        2.08622         16.0401         2.41572 
        2.09237         15.9628         2.39804 
        2.09851         15.9143         2.38053 
        2.10464         15.7954         2.36323 
        2.11077         15.7611         2.34612 
        2.11691         15.6912         2.32914 
        2.12305         15.6529         2.31233 
        2.12918         15.5736         2.29572 
        2.13531         15.5273         2.27928 
        2.14145         15.4537         2.26296 
         2.1476         15.3698         2.24677 
        2.15372         15.3582         2.23083 
        2.15985         15.2701         2.21503 
        2.16599         15.1936         2.19933 
        2.17213         15.1434          2.1838 
        2.17827         15.0758         2.16843 
         2.1844         15.0103         2.15321 
        2.19054         15.0135         2.13814 
        2.19666          14.909         2.12323 
         2.2028         14.8925         2.10845 
        2.20893         14.7883          2.0938 
        2.21508         14.7412         2.07928 
        2.22122         14.6705         2.06489 
        2.22736         14.6508         2.05066 
        2.23349         14.5687         2.03657 
        2.23962         14.5309         2.02261 
        2.24577         14.4566         2.00876 
         2.2519         14.3971         1.99506 
        2.25802         14.3175         1.98151 
        2.26417         14.3086         1.96805 
        2.27031         14.2319          1.9547 
        2.27644         14.1871         1.94152 
        2.28257         14.1312         1.92845 
        2.28872         14.1106         1.91548 
        2.29486         14.0544         1.90264 
        2.30099         13.9596         1.88993 
        2.30712         13.9429         1.87734 
        2.31326         13.8585         1.86484 
         2.3194         13.8229         1.85246 
        2.32553         13.7631         1.84021 
        2.33166          13.694         1.82808 
         2.3378          13.662         1.81604 
        2.34394          13.603          1.8041 
        2.35007         13.5622         1.79229 
        2.35619         13.5342          1.7806 
        2.36233         13.4245         1.76898 
        2.36848         13.4067         1.75745 
        2.37462         13.3653         1.74604 
        2.38075         13.3103         1.73474 
        2.38689         13.2415         1.72353 
        2.39303         13.1941         1.71243 
        2.39916         13.1472         1.70143 
        2.40529         13.1077         1.69053 
        2.41143         13.0376         1.67972 
        2.41757         12.9777         1.66899 
         2.4237         12.9485         1.65838 
        2.42983          12.917         1.64787 
        2.43598         12.8621         1.63741 
        2.44211         12.8232         1.62707 
        2.44823         12.7451         1.61683 
        2.45437         12.7355         1.60666 
        2.46052         12.6735         1.59656 
        2.46665         12.6523         1.58657 
        2.47279         12.5787         1.57667 
        2.47892         12.5314         1.56684 
        2.48507         12.4997         1.55709 
         2.4912         12.4336         1.54744 
