# k  (h/Mpc)    P(k)  (Mpc/h)^3    P_linear(k)  (Mpc/h)^3
     0.00783031         1641.66         1660.77 
       0.013688         2045.83         2048.61 
       0.019231         2078.99         2079.57 
      0.0249154         1914.25         1927.77 
      0.0312784         1666.56         1669.48 
      0.0375637         1418.41         1414.94 
      0.0433917         1218.52         1221.36 
      0.0492413         1079.75         1078.26 
      0.0555754         967.197          972.74 
      0.0619321         905.117         900.023 
       0.067871         840.367         844.207 
      0.0738098         783.016         787.111 
      0.0800417         713.017         719.299 
      0.0862327         642.652         645.024 
      0.0921407         573.688           573.6 
      0.0982031         505.631         506.854 
       0.104506         454.234         450.048 
       0.110769         412.128         408.299 
       0.116806         381.666         380.495 
       0.122832         364.185         361.357 
       0.129052          345.89         346.002 
       0.135211         330.617          330.91 
       0.141259         314.998         313.491 
       0.147318         295.657          292.77 
       0.153489         271.261         269.432 
       0.159709         248.864         245.874 
       0.165845         230.412          224.85 
       0.171974         211.359         207.545 
       0.178125         198.906         194.337 
       0.184229         189.836         184.842 
        0.19034         180.204         177.799 
       0.196428         175.848         171.852 
       0.202534         170.994         165.727 
       0.208729         162.722         158.554 
       0.214876           153.6         150.311 
       0.220989         146.443         141.374 
       0.227147         136.216         132.323 
        0.23329         128.264         123.959 
       0.239377         122.091         116.828 
       0.245482         114.925         111.013 
       0.251667         111.786          106.37 
       0.257832         107.885         102.643 
       0.263955         104.418         99.3818 
       0.270079         101.024         96.1557 
        0.27624         98.4549         92.6701 
       0.282372         94.5579         88.8751 
        0.28843          90.166         84.8995 
       0.294538         86.1515         80.8536 
       0.300721         83.2566         76.9566 
        0.30691         79.0596         73.4318 
       0.313033         76.2603         70.4114 
       0.319153         72.6922         67.8355 
       0.325316         71.5193         65.6003 
        0.33145         69.0613         63.5907 
       0.337538         67.3635         61.6779 
       0.343633         65.0942         59.7379 
       0.349808         63.2212         57.7085 
       0.355968         61.2502         55.6215 
       0.362074          59.093         53.5497 
       0.368217         57.1821         51.5288 
       0.374374         55.2047         49.6285 
       0.380519         53.6784         47.9003 
       0.386598         52.1754         46.3559 
       0.392688          51.005         44.9591 
        0.39888         49.5272         43.6492 
       0.405048         48.3612         42.4084 
       0.411186         47.2077         41.2025 
       0.417313         45.6703         40.0011 
       0.423458         44.4982         38.7942 
       0.429607         43.2357         37.5981 
       0.435692         41.8622         36.4414 
       0.441815         41.0488         35.3245 
       0.447964         40.2822         34.2686 
       0.454126          38.696         33.2797 
       0.460267         37.9923         32.3591 
       0.466387         36.8714         31.4987 
        0.47254         36.2984         30.6753 
       0.478662         35.6403         29.8825 
       0.484765         34.5759         29.1096 
       0.490885         33.7771         28.3492 
       0.497035         33.3306         27.5977 
       0.503198         32.4254         26.8615 
       0.509342         31.5752         26.1511 
       0.515458         30.9021         25.4732 
       0.521598         30.3397         24.8234 
       0.527764         29.6747         24.2011 
       0.533884         29.1592         23.6124 
           0.54         28.5211         23.0495 
       0.546137         28.0442         22.5048 
       0.552299         27.5724         21.9733 
       0.558452         26.7211         21.4555 
       0.564573         26.3413          20.953 
       0.570708         25.8839         20.4627 
       0.576825         25.2301         19.9875 
       0.582926         24.7657          19.528 
       0.589034         24.1136         19.0833 
       0.595184         23.7901         18.6518 
       0.601379         23.3219         18.2339 
       0.607522         22.9242         17.8345 
       0.613639         22.6709         17.4496 
       0.619772         22.0713          17.075 
       0.625918         21.9398         16.7095 
       0.632068         21.5702         16.3536 
       0.638161         21.0926         16.0104 
         0.6443         20.6679         15.6741 
       0.650464         20.2902          15.346 
       0.656582         20.1494         15.0296 
       0.662703         19.7675         14.7222 
       0.668861         19.3954         14.4221 
       0.675024         19.0383         14.1306 
       0.681124         18.7125         13.8508 
       0.687237         18.4139         13.5785 
       0.693381         18.2282         13.3125 
       0.699536         17.7403         13.0531 
       0.705665         17.6357         12.8016 
       0.711789         17.2851         12.5565 
       0.717957         17.0321         12.3158 
        0.72409         16.7648         12.0826 
       0.730186         16.5356         11.8568 
       0.736317         16.3542         11.6357 
       0.742472         16.0813         11.4196 
       0.748622         15.8776         11.2095 
        0.75476         15.5767         11.0053 
       0.760888         15.3717         10.8067 
       0.767043          15.187         10.6122 
       0.773185         14.8949          10.423 
       0.779291          14.807         10.2394 
       0.785407         14.5973         10.0599 
       0.791564         14.3498         9.88356 
       0.797719         14.0605         9.71145 
       0.803834         14.0143         9.54453 
       0.809972         13.8801         9.38093 
       0.816124         13.5702         9.22084 
       0.822261         13.4097         9.06497 
       0.828378         13.2529         8.91324 
       0.834502          13.139          8.7649 
       0.840667         12.9316         8.61902 
       0.846816         12.7048         8.47692 
       0.852925         12.5866         8.33894 
       0.859047         12.4419         8.20377 
       0.865192         12.3307         8.07116 
       0.871341         12.2144         7.94141 
       0.877463         11.9998          7.8151 
       0.883569         11.8346         7.69186 
       0.889708         11.6498         7.57065 
       0.895864         11.5607         7.45174 
       0.902008         11.4581         7.33565 
       0.908149         11.3321         7.22211 
       0.914301         11.2105          7.1108 
       0.920448         11.0213         7.00195 
       0.926574         10.9082         6.89577 
       0.932687         10.7994         6.79202 
       0.938823         10.6534         6.69005 
       0.944975         10.5254         6.58995 
       0.951105         10.4286         6.49226 
       0.957225         10.3592         6.39673 
       0.963368         10.2372         6.30281 
       0.969511         10.1316         6.21079 
       0.975621         10.0171          6.1211 
       0.981748         9.90096         6.03297 
       0.987916         9.82713         5.94602 
        0.99406          9.6751         5.86112 
        1.00019         9.53319         5.77805 
        1.00632         9.51864         5.69667 
        1.01246         9.40779         5.61675 
        1.01859         9.26686          5.5385 
        1.02471         9.20928         5.46185 
        1.03085          9.1138         5.38638 
        1.03698         8.98373         5.31251 
        1.04314         8.93096         5.23971 
        1.04929         8.81277         5.16845 
        1.05541         8.71575         5.09881 
        1.06154         8.65144         5.03029 
        1.06769         8.60954         4.96292 
        1.07382         8.47498         4.89702 
        1.07993         8.40364         4.83246 
        1.08607         8.34177          4.7688 
        1.09222           8.262         4.70623 
        1.09836         8.17127         4.64487 
        1.10449         8.09806         4.58466 
        1.11063         8.01885         4.52547 
        1.11677         7.97428         4.46734 
         1.1229         7.91093         4.41034 
        1.12903         7.81302         4.35428 
        1.13518         7.72482         4.29915 
        1.14131         7.65816         4.24501 
        1.14745         7.58332         4.19184 
        1.15359         7.53728         4.13956 
        1.15973         7.46703         4.08816 
        1.16584         7.36372         4.03787 
        1.17197         7.31407         3.98835 
        1.17811         7.28007         3.93951 
        1.18424         7.21414         3.89164 
        1.19038         7.17836         3.84442 
        1.19652         7.09464         3.79801 
        1.20267         7.01895         3.75237 
        1.20881         6.99693         3.70748 
        1.21495         6.93164         3.66341 
        1.22108         6.85238         3.62006 
         1.2272         6.81268         3.57752 
        1.23334         6.73211         3.53556 
        1.23949         6.67559         3.49418 
        1.24562         6.64525         3.45358 
        1.25174         6.58291         3.41368 
        1.25789          6.5381          3.3743 
        1.26402         6.49564         3.33561 
        1.27014         6.43955         3.29762 
        1.27628         6.37105         3.26011 
        1.28244         6.30641         3.22311 
        1.28858         6.29864         3.18674 
        1.29471         6.22355         3.15101 
        1.30084         6.16539         3.11586 
        1.30697         6.16656          3.0812 
        1.31312         6.05861         3.04701 
        1.31925         6.02596         3.01345 
        1.32537          5.9828         2.98043 
        1.33151         5.95981         2.94779 
        1.33765         5.89016         2.91566 
        1.34378          5.8491         2.88407 
        1.34992         5.81722         2.85292 
        1.35606         5.75852         2.82217 
         1.3622         5.73103         2.79193 
        1.36833          5.6839         2.76221 
        1.37445          5.6471         2.73293 
        1.38059         5.62694         2.70399 
        1.38675         5.57827         2.67539 
        1.39288         5.54151         2.64733 
        1.39901         5.47884         2.61968 
        1.40515         5.45143         2.59236 
         1.4113         5.41583         2.56545 
        1.41742         5.37863         2.53902 
        1.42355         5.32989         2.51291 
         1.4297         5.29577         2.48709 
        1.43585          5.2745         2.46165 
        1.44198         5.25024         2.43666 
        1.44809         5.19671         2.41206 
        1.45423         5.15742         2.38771 
        1.46036         5.11809         2.36375 
        1.46649         5.08653          2.3401 
        1.47263         5.04618         2.31676 
        1.47877         5.01222         2.29375 
        1.48491         4.98331         2.27101 
        1.49104         4.95383         2.24863 
        1.49718         4.92393         2.22654 
        1.50333         4.89555         2.20471 
        1.50947         4.85549         2.18321 
         1.5156         4.82707         2.16204 
        1.52172         4.79888         2.14114 
        1.52787         4.77116         2.12048 
          1.534         4.73119         2.10012 
        1.54013         4.71259         2.08005 
        1.54627         4.66811          2.0602 
        1.55241         4.64171         2.04061 
        1.55855         4.62364          2.0213 
        1.56467         4.58936          2.0023 
         1.5708         4.56403         1.98348 
        1.57695         4.52408         1.96488 
        1.58308         4.49252         1.94656 
        1.58922         4.48238         1.92846 
        1.59535         4.45547          1.9106 
         1.6015         4.41915         1.89294 
        1.60764         4.39094         1.87551 
        1.61376         4.37026         1.85835 
        1.61989         4.34576         1.84139 
        1.62604         4.31287          1.8246 
        1.63218         4.30407         1.80803 
        1.63831         4.27137         1.79171 
        1.64444         4.24763         1.77558 
        1.65059         4.20524         1.75961 
        1.65673         4.20129         1.74385 
        1.66285         4.16117         1.72834 
        1.66898         4.14182           1.713 
        1.67512         4.11574         1.69782 
        1.68127         4.09317         1.68282 
         1.6874         4.08024         1.66802 
        1.69353         4.03975         1.65342 
        1.69967         4.02576         1.63895 
        1.70581         4.00593         1.62467 
        1.71193         3.98104         1.61061 
        1.71806         3.96428         1.59668 
        1.72421         3.93702         1.58289 
        1.73035         3.92301         1.56928 
        1.73649         3.89641         1.55583 
        1.74262         3.87091         1.54256 
        1.74876          3.8596         1.52942 
        1.75489         3.83706         1.51647 
        1.76101         3.80479         1.50367 
        1.76715         3.79456           1.491 
        1.77329         3.77681         1.47847 
        1.77943         3.73922         1.46607 
        1.78557         3.73213         1.45383 
        1.79171         3.71091         1.44173 
        1.79785         3.68953         1.42976 
        1.80399         3.66893         1.41793 
        1.81012         3.65304         1.40626 
        1.81625         3.63259         1.39471 
        1.82239         3.61337         1.38329 
        1.82853         3.59121         1.37199 
        1.83466         3.58186         1.36083 
        1.84078         3.56171         1.34981 
        1.84692         3.55021         1.33889 
        1.85306         3.51875         1.32808 
         1.8592         3.49868          1.3174 
        1.86533         3.48463         1.30685 
        1.87147         3.47229          1.2964 
        1.87761         3.44961         1.28607 
        1.88375         3.43285         1.27585 
        1.88988         3.41297         1.26576 
        1.89601         3.39862         1.25577 
        1.90215         3.38245         1.24588 
        1.90829         3.36003          1.2361 
        1.91442         3.35004         1.22643 
        1.92056         3.32827         1.21687 
         1.9267         3.31381          1.2074 
        1.93284         3.30128         1.19802 
        1.93897         3.28488         1.18876 
        1.94509         3.26361         1.17963 
        1.95123         3.24772         1.17056 
        1.95737         3.22843         1.16158 
        1.96349          3.2203         1.15272 
        1.96964         3.20944         1.14393 
        1.97578         3.18293         1.13522 
        1.98192         3.17479         1.12662 
        1.98805         3.16133         1.11811 
        1.99419          3.1449         1.10969 
        2.00033         3.13505         1.10135 
        2.00647         3.11502          1.0931 
         2.0126         3.10554         1.08494 
        2.01874         3.08048         1.07686 
        2.02488         3.07479         1.06885 
        2.03101         3.05006         1.06094 
        2.03714         3.04086         1.05311 
        2.04328          3.0274         1.04536 
        2.04941         3.00633         1.03769 
        2.05554         2.99948          1.0301 
        2.06167         2.98914         1.02258 
        2.06781         2.97352         1.01513 
        2.07396         2.96377         1.00775 
        2.08009         2.94804         1.00045 
        2.08622         2.93096         0.99323 
        2.09237          2.9209        0.986069 
        2.09851         2.90807        0.978978 
        2.10464         2.89825        0.971967 
        2.11077         2.88117        0.965034 
        2.11691          2.8692        0.958154 
        2.12305         2.85996        0.951339 
        2.12918         2.85094        0.944608 
        2.13531         2.83605        0.937941 
        2.14145         2.82302        0.931322 
         2.1476         2.80567         0.92476 
        2.15372         2.79486        0.918294 
        2.15985         2.78703        0.911883 
        2.16599         2.77348        0.905515 
        2.17213         2.75605        0.899215 
        2.17827         2.74971        0.892975 
         2.1844         2.73629        0.886801 
        2.19054          2.7287        0.880683 
        2.19666         2.71321        0.874631 
         2.2028         2.70025         0.86863 
        2.20893         2.69155        0.862683 
        2.21508         2.67717        0.856784 
        2.22122          2.6659        0.850939 
        2.22736         2.65592        0.845161 
        2.23349         2.64817        0.839437 
        2.23962         2.63326        0.833764 
        2.24577         2.62514        0.828137 
         2.2519         2.61491        0.822571 
        2.25802          2.6049        0.817064 
        2.26417         2.59598        0.811593 
        2.27031         2.58135        0.806166 
        2.27644         2.57263        0.800805 
        2.28257         2.55876        0.795493 
        2.28872         2.55406        0.790219 
        2.29486         2.53868        0.784994 
        2.30099         2.52839        0.779826 
        2.30712         2.51693        0.774703 
        2.31326         2.50852        0.769617 
         2.3194         2.50011        0.764579 
        2.32553         2.48925        0.759595 
        2.33166         2.48205        0.754658 
         2.3378         2.47094        0.749757 
        2.34394         2.46078        0.744899 
        2.35007         2.45021         0.74009 
        2.35619         2.44404        0.735329 
        2.36233         2.43386        0.730599 
        2.36848         2.42093        0.725901 
        2.37462         2.41564        0.721254 
        2.38075         2.40342        0.716652 
        2.38689         2.39805        0.712086 
        2.39303         2.38646        0.707561 
        2.39916         2.37729         0.70308 
        2.40529         2.36872        0.698638 
        2.41143         2.35875        0.694231 
        2.41757         2.34951         0.68986 
         2.4237         2.34322        0.685535 
        2.42983         2.32513        0.681247 
        2.43598          2.3272        0.676984 
        2.44211         2.31181        0.672765 
        2.44823         2.30763        0.668591 
        2.45437         2.29608        0.664442 
        2.46052         2.29128        0.660323 
        2.46665         2.28209        0.656247 
        2.47279         2.27155        0.652207 
        2.47892         2.26523        0.648198 
        2.48507         2.25641        0.644219 
         2.4912         2.24197         0.64028 
