# k  (h/Mpc)    P(k)  (Mpc/h)^3    P_linear(k)  (Mpc/h)^3
     0.00783031         17120.2         17291.7 
       0.013688         20267.1         20883.5 
       0.019231         20363.8           20735 
      0.0249154         18811.8         18790.9 
      0.0312784         15719.4         15900.4 
      0.0375637         12997.2         13241.2 
      0.0433917         11256.5         11323.1 
      0.0492413         9840.42         9969.99 
      0.0555754         8967.84         9010.03 
      0.0619321         8042.89         8349.73 
       0.067871         7639.97         7813.12 
      0.0738098         7136.78         7230.23 
      0.0800417          6465.2         6526.37 
      0.0862327         5707.11         5772.03 
      0.0921407         5086.54         5076.15 
      0.0982031         4567.35         4458.62 
       0.104506          4023.9         3963.77 
       0.110769         3718.76         3622.62 
       0.116806         3555.38         3406.28 
       0.122832         3360.13         3255.23 
       0.129052         3190.51         3118.08 
       0.135211         3101.22         2963.07 
       0.141259         2863.87         2775.99 
       0.147318         2640.84         2559.48 
       0.153489         2458.43         2329.73 
       0.159709         2333.05         2114.08 
       0.165845          2119.7         1935.86 
       0.171974         2053.67         1799.79 
       0.178125         1978.96         1702.11 
       0.184229         1828.82          1632.8 
        0.19034         1805.84          1576.7 
       0.196428         1754.37         1520.76 
       0.202534         1646.31         1455.84 
       0.208729         1612.78         1378.46 
       0.214876         1533.09         1293.68 
       0.220989         1449.85         1208.36 
       0.227147          1404.6          1128.7 
        0.23329         1344.75         1060.69 
       0.239377         1334.77         1006.39 
       0.245482         1268.24         963.687 
       0.251667         1223.07         928.898 
       0.257832         1202.44         898.205 
       0.263955         1146.81         867.709 
       0.270079         1113.51         834.803 
        0.27624         1067.51         798.692 
       0.282372         1052.35         760.919 
        0.28843         1033.41         723.815 
       0.294538         984.151         688.695 
       0.300721         963.906         657.043 
        0.30691         939.899         629.787 
       0.313033         902.006         606.844 
       0.319153         892.021         586.775 
       0.325316         879.657         568.165 
        0.33145         858.936         550.007 
       0.337538         829.606         531.648 
       0.343633         810.201         512.702 
       0.349808         793.474         493.263 
       0.355968         778.303         474.183 
       0.362074         751.726          456.19 
       0.368217         749.319         439.499 
       0.374374         737.898         424.313 
       0.380519          710.31          410.65 
       0.386598         705.414         398.259 
       0.392688         687.302         386.583 
        0.39888         672.494          375.12 
       0.405048         658.299         363.825 
       0.411186         657.463         352.641 
       0.417313         651.533         341.593 
       0.423458         632.515         330.756 
       0.429607         614.956         320.344 
       0.435692         608.654          310.61 
       0.441815         596.769         301.413 
       0.447964         588.454         292.783 
       0.454126          581.23          284.66 
       0.460267         572.902         276.953 
       0.466387         561.843         269.544 
        0.47254         554.267         262.298 
       0.478662         544.896         255.242 
       0.484765         538.332         248.349 
       0.490885         533.366         241.625 
       0.497035         521.905         235.103 
       0.503198         521.577         228.835 
       0.509342         511.299          222.86 
       0.515458         501.102         217.193 
       0.521598         498.803         211.765 
       0.527764         487.904         206.532 
       0.533884         482.878         201.515 
           0.54         478.985         196.649 
       0.546137         470.811         191.904 
       0.552299         468.718         187.271 
       0.558452         461.613         182.774 
       0.564573         458.942         178.432 
       0.570708         452.851         174.225 
       0.576825         444.248         170.183 
       0.582926         443.038         166.302 
       0.589034         435.481         162.553 
       0.595184         432.027         158.905 
       0.601379         425.265         155.346 
       0.607522         417.694         151.923 
       0.613639         417.129         148.614 
       0.619772         414.987          145.39 
       0.625918         407.046          142.25 
       0.632068         405.175         139.196 
       0.638161         401.116         136.256 
         0.6443         395.558         133.382 
       0.650464         392.269         130.585 
       0.656582         388.793         127.896 
       0.662703         385.863         125.286 
       0.668861         379.599         122.737 
       0.675024         378.291         120.258 
       0.681124         370.858         117.872 
       0.687237         370.453         115.542 
       0.693381         364.915         113.263 
       0.699536         364.647         111.041 
       0.705665         359.426         108.888 
       0.711789         357.697         106.795 
       0.717957         353.569         104.744 
        0.72409         349.483         102.761 
       0.730186         350.457         100.842 
       0.736317         344.492         98.9622 
       0.742472         341.743          97.124 
       0.748622         340.019         95.3343 
        0.75476          336.68         93.5934 
       0.760888         334.223         91.8986 
       0.767043         331.059          90.239 
       0.773185         328.487         88.6241 
       0.779291         325.299         87.0582 
       0.785407         323.208         85.5283 
       0.791564         321.212         84.0261 
       0.797719          316.06         82.5612 
       0.803834         317.371          81.141 
       0.809972         312.289         79.7495 
       0.816124         309.749          78.388 
       0.822261         307.494         77.0622 
       0.828378         306.081         75.7712 
       0.834502         301.395         74.5089 
       0.840667         301.474         73.2672 
       0.846816         296.909         72.0575 
       0.852925          297.43         70.8828 
       0.859047         294.195          69.732 
       0.865192         292.832         68.6031 
       0.871341         289.361         67.4986 
       0.877463         288.028         66.4235 
       0.883569         285.884         65.3748 
       0.889708         283.313         64.3434 
       0.895864          279.89         63.3319 
       0.902008         278.846         62.3443 
       0.908149          276.22         61.3785 
       0.914301          275.09         60.4318 
       0.920448         272.666          59.506 
       0.926574         270.826          58.603 
       0.932687         270.408         57.7208 
       0.938823         267.224         56.8537 
       0.944975         266.735         56.0025 
       0.951105         264.132         55.1719 
       0.957225          261.35         54.3596 
       0.963368         261.738         53.5611 
       0.969511         257.391         52.7787 
       0.975621         255.327         52.0162 
       0.981748         255.099         51.2669 
       0.987916         253.433         50.5278 
        0.99406         251.133         49.8061 
        1.00019         249.127            49.1 
        1.00632         248.488         48.4084 
        1.01246         246.462         47.7291 
        1.01859         243.986          47.064 
        1.02471         242.477         46.4125 
        1.03085         241.425         45.7712 
        1.03698          240.49         45.1434 
        1.04314         239.099         44.5248 
        1.04929          237.55         43.9193 
        1.05541         236.059         43.3275 
        1.06154         234.014         42.7453 
        1.06769         232.306         42.1729 
        1.07382         230.558          41.613 
        1.07993         229.526         41.0645 
        1.08607          228.39         40.5237 
        1.09222         226.211         39.9921 
        1.09836          225.42         39.4707 
        1.10449         224.017         38.9592 
        1.11063         222.446         38.4563 
        1.11677         220.504         37.9625 
         1.1229         220.252         37.4783 
        1.12903         217.771         37.0021 
        1.13518         216.707         36.5338 
        1.14131         215.797         36.0739 
        1.14745         213.785         35.6223 
        1.15359         212.331         35.1783 
        1.15973         211.512         34.7417 
        1.16584         210.036         34.3145 
        1.17197         209.238         33.8939 
        1.17811         207.184         33.4791 
        1.18424         206.097         33.0725 
        1.19038         205.373         32.6714 
        1.19652         203.047         32.2772 
        1.20267         202.377         31.8896 
        1.20881         201.011         31.5084 
        1.21495         200.486         31.1341 
        1.22108         198.898         30.7659 
         1.2272         197.332         30.4046 
        1.23334         196.286         30.0483 
        1.23949         195.313         29.6969 
        1.24562         194.027         29.3521 
        1.25174         193.332         29.0133 
        1.25789         191.427         28.6789 
        1.26402         191.001         28.3504 
        1.27014         190.011         28.0278 
        1.27628         188.808         27.7093 
        1.28244         187.125         27.3951 
        1.28858         186.332         27.0863 
        1.29471         184.954          26.783 
        1.30084          184.51         26.4845 
        1.30697         182.852         26.1902 
        1.31312         182.024            25.9 
        1.31925         180.755         25.6151 
        1.32537         180.217         25.3347 
        1.33151         178.724         25.0576 
        1.33765         177.776         24.7848 
        1.34378         177.171         24.5166 
        1.34992         175.553         24.2521 
        1.35606         174.982          23.991 
         1.3622         173.471         23.7343 
        1.36833         172.944         23.4819 
        1.37445         172.358         23.2333 
        1.38059         170.476         22.9876 
        1.38675         169.503         22.7448 
        1.39288         168.766         22.5066 
        1.39901         167.342         22.2718 
        1.40515         166.842         22.0399 
         1.4113         165.985         21.8114 
        1.41742         164.798          21.587 
        1.42355          164.01         21.3654 
         1.4297         163.067         21.1462 
        1.43585         162.585         20.9302 
        1.44198         160.964          20.718 
        1.44809         160.562         20.5092 
        1.45423          159.58         20.3025 
        1.46036         158.536          20.099 
        1.46649         157.405         19.8983 
        1.47263         156.946         19.7001 
        1.47877         155.947         19.5047 
        1.48491         154.813         19.3117 
        1.49104         153.493         19.1217 
        1.49718         153.244         18.9342 
        1.50333         151.702         18.7488 
        1.50947         151.361         18.5664 
         1.5156         150.357         18.3866 
        1.52172         149.534         18.2092 
        1.52787         148.948         18.0338 
          1.534         148.242         17.8609 
        1.54013         147.091         17.6905 
        1.54627         146.483          17.522 
        1.55241         145.708         17.3557 
        1.55855         144.914         17.1918 
        1.56467         144.084         17.0304 
         1.5708         143.046         16.8707 
        1.57695         142.569         16.7128 
        1.58308         141.345         16.5572 
        1.58922          140.65         16.4036 
        1.59535         139.979         16.2519 
         1.6015          139.14          16.102 
        1.60764         138.218          15.954 
        1.61376         137.514         15.8083 
        1.61989         136.902         15.6643 
        1.62604         136.017         15.5218 
        1.63218         135.379         15.3812 
        1.63831         134.582         15.2426 
        1.64444         133.545         15.1057 
        1.65059         133.056         14.9701 
        1.65673         132.308         14.8364 
        1.66285         131.767         14.7046 
        1.66898         130.932         14.5744 
        1.67512         129.831         14.4456 
        1.68127         129.557         14.3181 
         1.6874         128.759         14.1926 
        1.69353           128.1         14.0685 
        1.69967          127.28         13.9457 
        1.70581         126.793         13.8244 
        1.71193         126.084          13.705 
        1.71806         124.978         13.5868 
        1.72421         124.424         13.4697 
        1.73035         123.888         13.3542 
        1.73649         123.107           13.24 
        1.74262         122.407         13.1273 
        1.74876         121.772         13.0158 
        1.75489         121.599         12.9058 
        1.76101         120.414         12.7971 
        1.76715         119.788         12.6895 
        1.77329         119.065         12.5831 
        1.77943          118.36         12.4778 
        1.78557         117.785         12.3739 
        1.79171         117.054         12.2711 
        1.79785         116.368         12.1695 
        1.80399         115.831         12.0691 
        1.81012          115.22         11.9699 
        1.81625         114.502         11.8719 
        1.82239         114.194         11.7749 
        1.82853         113.165         11.6789 
        1.83466         112.331         11.5842 
        1.84078         112.185         11.4906 
        1.84692         111.706         11.3979 
        1.85306         110.925         11.3061 
         1.8592         110.442         11.2154 
        1.86533         109.706         11.1258 
        1.87147         109.074         11.0371 
        1.87761         108.522         10.9493 
        1.88375         107.893         10.8626 
        1.88988         107.344         10.7769 
        1.89601         106.831          10.692 
        1.90215         106.419          10.608 
        1.90829         105.525          10.525 
        1.91442         104.786         10.4429 
        1.92056         104.498         10.3617 
         1.9267         103.801         10.2812 
        1.93284          103.16         10.2016 
        1.93897         102.826          10.123 
        1.94509         102.281         10.0454 
        1.95123         101.663         9.96837 
        1.95737         101.119         9.89212 
        1.96349         100.626         9.81686 
        1.96964         99.9684         9.74217 
        1.97578         99.5574         9.66822 
        1.98192          99.096          9.5952 
        1.98805         98.6394         9.52292 
        1.99419         97.9905         9.45138 
        2.00033         97.4268         9.38054 
        2.00647         97.0023         9.31045 
         2.0126         96.4288         9.24119 
        2.01874         95.7996         9.17253 
        2.02488          95.398         9.10451 
        2.03101         94.9758         9.03731 
        2.03714         94.3548         8.97085 
        2.04328          94.077         8.90498 
        2.04941         93.4131         8.83982 
        2.05554         93.1433         8.77537 
        2.06167         92.3124         8.71147 
        2.06781          92.089          8.6482 
        2.07396         91.3964         8.58547 
        2.08009         90.8491         8.52347 
        2.08622         90.4843         8.46215 
        2.09237         89.9253         8.40131 
        2.09851         89.4998         8.34107 
        2.10464         89.2533         8.28151 
        2.11077         88.5241         8.22261 
        2.11691          88.074         8.16415 
        2.12305         87.6171         8.10626 
        2.12918         87.1812         8.04907 
        2.13531         86.8094         7.99243 
        2.14145         86.3844          7.9362 
         2.1476         85.8956         7.88045 
        2.15372         85.3853         7.82551 
        2.15985         84.9645         7.77104 
        2.16599         84.4276         7.71694 
        2.17213         84.0389         7.66341 
        2.17827         83.5862          7.6104 
         2.1844         83.2034         7.55794 
        2.19054         82.6463         7.50595 
        2.19666         82.0568         7.45453 
         2.2028         82.0328         7.40355 
        2.20893         81.5762         7.35301 
        2.21508         81.0076         7.30289 
        2.22122         80.6401         7.25323 
        2.22736          80.302         7.20412 
        2.23349         79.7602         7.15549 
        2.23962         79.4351         7.10728 
        2.24577         78.9839         7.05947 
         2.2519         78.5502         7.01216 
        2.25802         78.2022         6.96537 
        2.26417         77.6768         6.91887 
        2.27031         77.1593         6.87276 
        2.27644          76.942          6.8272 
        2.28257         76.6367         6.78205 
        2.28872         76.1373         6.73723 
        2.29486         75.8616         6.69282 
        2.30099         75.3638         6.64891 
        2.30712         75.1189         6.60537 
        2.31326         74.5884         6.56214 
         2.3194         74.2868         6.51933 
        2.32553         73.9032         6.47697 
        2.33166         73.5248         6.43501 
         2.3378         73.0735         6.39336 
        2.34394         72.8649         6.35207 
        2.35007         72.3572          6.3112 
        2.35619         71.9306         6.27074 
        2.36233         71.5186         6.23053 
        2.36848         71.3355          6.1906 
        2.37462         70.9634          6.1511 
        2.38075         70.5545         6.11198 
        2.38689         70.2355         6.07318 
        2.39303         69.9472         6.03471 
        2.39916         69.5201         5.99662 
        2.40529          69.225         5.95886 
        2.41143         68.7743          5.9214 
        2.41757         68.3661         5.88424 
         2.4237          68.111         5.84747 
        2.42983         67.7128         5.81102 
        2.43598         67.5143         5.77478 
        2.44211         67.1407         5.73891 
        2.44823         66.7244         5.70343 
        2.45437          66.473         5.66815 
        2.46052         66.0732         5.63314 
        2.46665         65.5737         5.59848 
        2.47279         65.3968         5.56413 
        2.47892         65.1288         5.53005 
        2.48507         64.7858         5.49622 
         2.4912         64.4542         5.46273 
