# k  (h/Mpc)    P(k)  (Mpc/h)^3    P_linear(k)  (Mpc/h)^3
     0.00783031         15496.3         15642.2 
       0.013688         18771.7         19342.9 
       0.019231         19297.1         19661.8 
      0.0249154         18271.5         18296.7 
      0.0312784         15767.3         15997.4 
      0.0375637         13462.1         13770.2 
      0.0433917           11969         12099.9 
      0.0492413         10654.7         10865.8 
      0.0555754         9796.46         9922.09 
      0.0619321         8793.44         9200.07 
       0.067871         8316.33         8572.66 
      0.0738098         7740.53         7901.28 
      0.0800417         7012.72         7133.95 
      0.0862327         6237.23         6356.35 
      0.0921407         5619.76         5668.34 
      0.0982031         5121.34         5073.26 
       0.104506         4587.31         4598.95 
       0.110769         4280.36         4261.44 
       0.116806         4109.85         4025.89 
       0.122832         3872.26         3833.57 
       0.129052         3661.32            3638 
       0.135211         3533.84         3421.81 
       0.141259         3255.87         3184.08 
       0.147318         3000.35         2934.26 
       0.153489         2813.22         2689.65 
       0.159709          2692.5         2473.41 
       0.165845         2463.85         2300.61 
       0.171974         2402.81         2168.02 
       0.178125         2328.71         2066.17 
       0.184229         2152.71         1982.66 
        0.19034         2122.09         1903.34 
       0.196428         2058.75         1819.33 
       0.202534         1931.92         1726.72 
       0.208729         1889.05         1626.66 
       0.214876         1800.17         1527.36 
       0.220989         1709.45         1435.25 
       0.227147         1662.07         1354.04 
        0.23329         1597.14         1286.35 
       0.239377         1588.62         1231.06 
       0.245482         1514.45            1184 
       0.251667         1460.04         1140.69 
       0.257832         1436.69         1098.17 
       0.263955         1371.94         1054.48 
       0.270079         1335.14         1009.03 
        0.27624         1280.03         962.691 
       0.282372         1264.31         917.888 
        0.28843         1241.86         876.665 
       0.294538          1185.7         839.307 
       0.300721         1163.43         806.007 
        0.30691         1135.25         776.561 
       0.313033         1092.63         750.143 
       0.319153         1081.35         725.179 
       0.325316         1067.51         700.528 
        0.33145         1043.84         675.974 
       0.337538         1009.83         651.604 
       0.343633         986.775         627.578 
       0.349808         968.366         604.151 
       0.355968         949.612         582.195 
       0.362074         920.394         562.046 
       0.368217         917.759         543.437 
       0.374374         904.162         526.182 
       0.380519         872.283         510.019 
       0.386598         867.558         494.719 
       0.392688         846.273         479.791 
        0.39888         828.577         464.917 
       0.405048         812.596           450.4 
       0.411186         810.912         436.349 
       0.417313         806.218          422.87 
       0.423458         781.869         410.005 
       0.429607         761.038          397.83 
       0.435692         754.669         386.475 
       0.441815         740.253         375.644 
       0.447964         731.576          365.26 
       0.454126         722.313         355.252 
       0.460267         712.998         345.595 
       0.466387         700.705         336.229 
        0.47254         689.944         327.078 
       0.478662         680.321         318.266 
       0.484765         672.984         309.793 
       0.490885         666.215         301.627 
       0.497035          653.56         293.767 
       0.503198         653.072         286.235 
       0.509342         640.724          279.03 
       0.515458         628.287         272.123 
       0.521598         626.517         265.424 
       0.527764         612.463         258.914 
       0.533884         606.669         252.647 
           0.54          602.09         246.568 
       0.546137         593.119         240.655 
       0.552299         590.054         234.912 
       0.558452         582.585         229.378 
       0.564573         578.724         224.063 
       0.570708          572.51         218.918 
       0.576825         561.117          213.96 
       0.582926         559.875         209.175 
       0.589034         551.701         204.535 
       0.595184         546.707         200.005 
       0.601379         538.526         195.577 
       0.607522         530.106         191.312 
       0.613639         529.553         187.188 
       0.619772         526.425         183.175 
       0.625918         517.185         179.276 
       0.632068         515.008         175.493 
       0.638161         509.205         171.858 
         0.6443          503.23         168.303 
       0.650464         499.403         164.838 
       0.656582         495.525         161.496 
       0.662703         490.548         158.245 
       0.668861         484.396         155.065 
       0.675024         482.151          151.97 
       0.681124         473.172         148.992 
       0.687237         473.238         146.088 
       0.693381         465.829         143.249 
       0.699536         465.959         140.481 
       0.705665         459.542           137.8 
       0.711789         458.346         135.191 
       0.717957         452.304         132.633 
        0.72409         448.194         130.157 
       0.730186         448.514         127.759 
       0.736317         441.667         125.409 
       0.742472         437.317         123.111 
       0.748622         435.694         120.872 
        0.75476         430.925         118.695 
       0.760888          428.55         116.575 
       0.767043         425.741         114.499 
       0.773185         422.554         112.478 
       0.779291         418.082         110.518 
       0.785407         415.189         108.603 
       0.791564         412.986         106.721 
       0.797719         406.731         104.885 
       0.803834          408.35         103.104 
       0.809972         401.918         101.358 
       0.816124         398.975         99.6499 
       0.822261         396.562         97.9857 
       0.828378         394.672         96.3648 
       0.834502         388.605         94.7795 
       0.840667         388.556           93.22 
       0.846816         383.377         91.7003 
       0.852925         383.986         90.2243 
       0.859047         380.027         88.7779 
       0.865192         377.967         87.3588 
       0.871341         373.366           85.97 
       0.877463         372.262          84.618 
       0.883569         369.028         83.2987 
       0.889708         365.477          82.001 
       0.895864         361.774         80.7278 
       0.902008          361.02         79.4845 
       0.908149         357.648         78.2684 
       0.914301         356.503         77.0759 
       0.920448         352.909         75.9096 
       0.926574         350.861         74.7716 
       0.932687         350.044         73.6596 
       0.938823         345.884         72.5664 
       0.944975         345.156         71.4931 
       0.951105         342.248         70.4455 
       0.957225         337.957         69.4208 
       0.963368         338.752         68.4132 
       0.969511         333.314         67.4257 
       0.975621         331.829         66.4631 
       0.981748         330.766         65.5171 
       0.987916         328.775         64.5836 
        0.99406         325.659          63.672 
        1.00019         322.649         62.7799 
        1.00632         322.305         61.9058 
        1.01246         319.644         61.0472 
        1.01859         316.572         60.2063 
        1.02471         314.788         59.3824 
        1.03085         313.681         58.5712 
        1.03698         312.081          57.777 
        1.04314         310.465         56.9942 
        1.04929         308.632         56.2279 
        1.05541         305.476         55.4788 
        1.06154         303.724         54.7416 
        1.06769         301.261         54.0167 
        1.07382         299.406         53.3075 
        1.07993         298.262         52.6126 
        1.08607         296.591         51.9274 
        1.09222         294.012         51.2537 
        1.09836          292.97         50.5928 
        1.10449         290.964         49.9445 
        1.11063         289.239         49.3068 
        1.11677         286.215         48.6805 
         1.1229             286         48.0663 
        1.12903         283.329         47.4622 
        1.13518         281.565          46.868 
        1.14131         280.519         46.2844 
        1.14745          277.67         45.7111 
        1.15359         275.757         45.1475 
        1.15973         274.595         44.5932 
        1.16584         273.086         44.0508 
        1.17197         271.574         43.5167 
        1.17811         268.936         42.9898 
        1.18424          267.87         42.4732 
        1.19038         266.634         41.9637 
        1.19652         263.813         41.4628 
        1.20267           263.2         40.9701 
        1.20881         261.505         40.4856 
        1.21495          260.32         40.0097 
        1.22108         258.613         39.5416 
         1.2272         255.595         39.0821 
        1.23334         254.818         38.6289 
        1.23949         253.512         38.1819 
        1.24562         252.082         37.7432 
        1.25174         250.846         37.3121 
        1.25789         248.468         36.8864 
        1.26402         248.108         36.4682 
        1.27014         246.838         36.0575 
        1.27628         244.807         35.6519 
        1.28244         243.015         35.2518 
        1.28858         242.202         34.8584 
        1.29471         240.604         34.4719 
        1.30084         240.017         34.0917 
        1.30697         237.371         33.7166 
        1.31312         236.249         33.3467 
        1.31925          234.95         32.9835 
        1.32537         234.193         32.6261 
        1.33151         232.234         32.2727 
        1.33765         230.581         31.9248 
        1.34378         229.828         31.5828 
        1.34992         227.669         31.2455 
        1.35606           226.9         30.9125 
         1.3622         225.127         30.5849 
        1.36833         224.505         30.2629 
        1.37445         223.711         29.9457 
        1.38059         221.078          29.632 
        1.38675         219.845         29.3222 
        1.39288         219.097          29.018 
        1.39901         217.182         28.7183 
        1.40515         216.422         28.4222 
         1.4113         215.034         28.1304 
        1.41742         213.369         27.8438 
        1.42355         212.943         27.5607 
         1.4297         211.499         27.2806 
        1.43585         210.479         27.0046 
        1.44198         208.788         26.7335 
        1.44809         208.114         26.4667 
        1.45423         206.836         26.2025 
        1.46036         205.785         25.9424 
        1.46649         204.387         25.6857 
        1.47263         203.522         25.4324 
        1.47877         202.156         25.1826 
        1.48491         200.662         24.9357 
        1.49104         198.984         24.6927 
        1.49718         198.699         24.4528 
        1.50333          196.84         24.2157 
        1.50947         196.102         23.9822 
         1.5156          195.05         23.7522 
        1.52172         193.951         23.5252 
        1.52787         192.815         23.3007 
          1.534         192.258         23.0794 
        1.54013         190.661         22.8613 
        1.54627         189.937         22.6456 
        1.55241         188.949         22.4326 
        1.55855         187.752         22.2227 
        1.56467         186.824          22.016 
         1.5708         185.266         21.8114 
        1.57695          184.64         21.6091 
        1.58308         183.435         21.4099 
        1.58922         182.274          21.213 
        1.59535         181.059         21.0186 
         1.6015         180.493         20.8265 
        1.60764         179.044         20.6368 
        1.61376         177.968         20.4501 
        1.61989         177.042         20.2655 
        1.62604         176.212         20.0827 
        1.63218         175.125         19.9024 
        1.63831         174.534         19.7247 
        1.64444         173.026         19.5491 
        1.65059         172.207         19.3752 
        1.65673         171.199         19.2036 
        1.66285         170.399         19.0346 
        1.66898          169.43         18.8676 
        1.67512         168.351         18.7023 
        1.68127         167.642         18.5388 
         1.6874         166.539         18.3776 
        1.69353         165.975         18.2185 
        1.69967         164.595         18.0608 
        1.70581         164.228         17.9051 
        1.71193         163.047         17.7519 
        1.71806         161.768         17.6001 
        1.72421         161.093         17.4498 
        1.73035          160.14         17.3014 
        1.73649          159.09         17.1548 
        1.74262         158.468           17.01 
        1.74876         157.712         16.8667 
        1.75489         157.168         16.7255 
        1.76101         155.774         16.5859 
        1.76715          154.93         16.4477 
        1.77329         153.901         16.3109 
        1.77943         152.979         16.1756 
        1.78557         152.292         16.0421 
        1.79171         151.594           15.91 
        1.79785         150.481         15.7794 
        1.80399         149.838         15.6503 
        1.81012         149.265         15.5228 
        1.81625          147.91         15.3968 
        1.82239         147.586          15.272 
        1.82853         146.523         15.1487 
        1.83466         145.303         15.0268 
        1.84078         145.075         14.9064 
        1.84692         144.332         14.7872 
        1.85306         143.267         14.6691 
         1.8592         142.782         14.5524 
        1.86533         141.566         14.4371 
        1.87147         140.795          14.323 
        1.87761         140.149           14.21 
        1.88375         139.091         14.0984 
        1.88988         138.691         13.9881 
        1.89601         138.126         13.8789 
        1.90215         137.488         13.7708 
        1.90829         136.177         13.6639 
        1.91442           135.5         13.5581 
        1.92056         134.906         13.4536 
         1.9267          134.13           13.35 
        1.93284         133.111         13.2475 
        1.93897         132.819         13.1463 
        1.94509         131.818         13.0463 
        1.95123         131.237         12.9471 
        1.95737         130.709         12.8489 
        1.96349         129.729         12.7519 
        1.96964          128.93         12.6557 
        1.97578         128.294         12.5605 
        1.98192         127.895         12.4664 
        1.98805         127.153         12.3732 
        1.99419         126.036          12.281 
        2.00033         125.621         12.1897 
        2.00647         125.102         12.0994 
         2.0126         124.181         12.0101 
        2.01874         123.574         11.9216 
        2.02488         122.898         11.8339 
        2.03101         122.452         11.7473 
        2.03714         121.611         11.6616 
        2.04328         121.111         11.5767 
        2.04941         120.578         11.4927 
        2.05554          119.94         11.4096 
        2.06167         119.077         11.3272 
        2.06781         118.521         11.2456 
        2.07396         117.794         11.1646 
        2.08009         117.141         11.0847 
        2.08622         116.582         11.0056 
        2.09237         115.695         10.9271 
        2.09851         115.402         10.8494 
        2.10464         114.824         10.7725 
        2.11077         114.127         10.6965 
        2.11691         113.551         10.6211 
        2.12305         112.925         10.5464 
        2.12918         112.373         10.4725 
        2.13531         111.614         10.3994 
        2.14145         111.245         10.3268 
         2.1476         110.567         10.2549 
        2.15372         109.837         10.1839 
        2.15985         109.336         10.1136 
        2.16599         108.631         10.0438 
        2.17213         108.099         9.97464 
        2.17827         107.587         9.90619 
         2.1844         107.096         9.83843 
        2.19054         106.519          9.7713 
        2.19666         105.698         9.70488 
         2.2028         105.372         9.63902 
        2.20893         104.952         9.57375 
        2.21508         104.131           9.509 
        2.22122         103.535         9.44483 
        2.22736         103.404         9.38139 
        2.23349         102.736         9.31855 
        2.23962         102.067         9.25625 
        2.24577         101.473         9.19447 
         2.2519         100.912         9.13334 
        2.25802         100.566         9.07286 
        2.26417         99.8622         9.01276 
        2.27031         99.2126         8.95315 
        2.27644         98.8897         8.89426 
        2.28257         98.4949          8.8359 
        2.28872         97.8868         8.77795 
        2.29486         97.5258         8.72053 
        2.30099         96.8148         8.66375 
        2.30712         96.4526         8.60745 
        2.31326         95.8859         8.55155 
         2.3194         95.4371         8.49618 
        2.32553         94.9812          8.4414 
        2.33166         94.4572         8.38712 
         2.3378         93.8217         8.33325 
        2.34394         93.3952         8.27984 
        2.35007         92.8208         8.22697 
        2.35619         92.3392         8.17463 
        2.36233         91.9227         8.12261 
        2.36848         91.3872         8.07095 
        2.37462         91.2287         8.01984 
        2.38075         90.5219         7.96923 
        2.38689         90.0946         7.91901 
        2.39303         89.7725         7.86923 
        2.39916         89.1832         7.81994 
        2.40529         88.8545         7.77107 
        2.41143           88.27         7.72258 
        2.41757         87.6094         7.67448 
         2.4237         87.3124         7.62689 
        2.42983         86.8162          7.5797 
        2.43598         86.4761         7.53278 
        2.44211         86.1766         7.48635 
        2.44823           85.63          7.4404 
        2.45437         85.3099         7.39472 
        2.46052         84.7257         7.34939 
        2.46665         84.1169         7.30451 
        2.47279         83.9341         7.26002 
        2.47892          83.556         7.21588 
        2.48507         83.1573         7.17206 
         2.4912         82.5399         7.12869 
