# k  (h/Mpc)    P(k)  (Mpc/h)^3    P_linear(k)  (Mpc/h)^3
     0.00783031         16021.3         16109.1 
       0.013688         18817.9         19327.1 
       0.019231         18822.4         19119.6 
      0.0249154         17353.5         17307.6 
      0.0312784         14556.4         14698.9 
      0.0375637         12148.9         12359.4 
      0.0433917           10649         10705.1 
      0.0492413         9424.33         9545.62 
      0.0555754            8649         8697.13 
      0.0619321         7761.48         8052.19 
       0.067871         7308.59         7470.02 
      0.0738098         6747.44         6825.05 
      0.0800417         6046.34         6082.84 
      0.0862327         5308.98         5344.48 
      0.0921407         4738.59         4713.33 
      0.0982031         4294.26         4191.71 
       0.104506         3840.54         3798.36 
       0.110769         3595.16         3533.64 
       0.116806         3459.22         3352.96 
       0.122832         3262.25         3197.78 
       0.129052         3075.81         3024.98 
       0.135211         2951.39         2823.29 
       0.141259         2698.96         2600.59 
       0.147318         2470.49          2372.8 
       0.153489         2300.56         2159.54 
       0.159709         2193.64         1981.25 
       0.165845         2008.93         1847.08 
       0.171974         1962.14          1749.2 
       0.178125         1899.62         1674.84 
       0.184229         1758.67         1610.23 
        0.19034         1728.48         1542.82 
       0.196428         1670.73         1466.73 
       0.202534            1558         1381.77 
       0.208729         1520.77          1292.1 
       0.214876         1443.52         1206.92 
       0.220989         1364.35         1131.97 
       0.227147         1325.87         1069.33 
        0.23329         1273.59         1019.22 
       0.239377         1265.13         978.777 
       0.245482         1203.34         943.241 
       0.251667         1159.26         908.287 
       0.257832         1139.59         871.828 
       0.263955         1084.01         833.354 
       0.270079         1050.12          793.54 
        0.27624         1005.79         754.132 
       0.282372         990.316         717.533 
        0.28843         973.732         685.234 
       0.294538          927.02         656.952 
       0.300721         907.454         632.103 
        0.30691         886.198         609.923 
       0.313033         849.888         589.302 
       0.319153         839.609         569.031 
       0.325316         827.734         548.373 
        0.33145         808.018         527.643 
       0.337538         779.675         507.253 
       0.343633         760.575         487.623 
       0.349808           744.4         469.017 
       0.355968         730.157         452.005 
       0.362074         704.919         436.667 
       0.368217         702.436         422.497 
       0.374374         691.702         409.218 
       0.380519         665.313         396.497 
       0.386598         660.274         384.194 
       0.392688         643.782         372.058 
        0.39888         628.863         359.916 
       0.405048         615.939         348.178 
       0.411186         614.956          336.99 
       0.417313         609.226         326.409 
       0.423458         591.255         316.454 
       0.429607          574.48         307.097 
       0.435692         568.299          298.34 
       0.441815         557.503          289.93 
       0.447964         548.758         281.791 
       0.454126         542.268         273.856 
       0.460267         533.962         266.159 
       0.466387         523.817         258.712 
        0.47254         516.588         251.469 
       0.478662           507.6         244.539 
       0.484765         501.278         237.933 
       0.490885         496.675         231.613 
       0.497035         485.911          225.54 
       0.503198         485.575         219.704 
       0.509342         475.718         214.105 
       0.515458         466.336          208.72 
       0.521598         463.082         203.477 
       0.527764         453.631         198.363 
       0.533884         449.482         193.445 
           0.54         445.234         188.694 
       0.546137         437.176         184.093 
       0.552299         435.386         179.637 
       0.558452         428.701         175.349 
       0.564573         425.761         171.235 
       0.570708         420.174         167.255 
       0.576825         412.095         163.417 
       0.582926         410.847         159.708 
       0.589034         403.754         156.103 
       0.595184         400.734         152.579 
       0.601379         394.343         149.136 
       0.607522         387.073         145.827 
       0.613639          386.32         142.636 
       0.619772         384.658         139.536 
       0.625918         376.969         136.526 
       0.632068         375.017         133.605 
       0.638161         371.456         130.797 
         0.6443         366.323         128.051 
       0.650464         362.932         125.375 
       0.656582         359.566         122.795 
       0.662703         357.047         120.286 
       0.668861         351.063         117.833 
       0.675024         349.672         115.447 
       0.681124         343.451         113.151 
       0.687237         342.635         110.913 
       0.693381         337.494         108.725 
       0.699536         336.876         106.594 
       0.705665         332.288          104.53 
       0.711789         330.393         102.524 
       0.717957         326.696         100.558 
        0.72409         322.723         98.6544 
       0.730186         324.005         96.8122 
       0.736317         318.359         95.0072 
       0.742472          315.69         93.2418 
       0.748622         313.545          91.523 
        0.75476         311.214         89.8514 
       0.760888         308.322         88.2244 
       0.767043           305.3         86.6314 
       0.773185         303.129         85.0814 
       0.779291          299.87         83.5785 
       0.785407         298.029           82.11 
       0.791564          296.07         80.6679 
       0.797719         291.265         79.2615 
       0.803834         292.762         77.8978 
       0.809972         288.093         76.5616 
       0.816124         285.277          75.254 
       0.822261         283.265         73.9807 
       0.828378         281.987         72.7409 
       0.834502          277.91         71.5287 
       0.840667         278.101         70.3364 
       0.846816         273.238         69.1749 
       0.852925          273.75         68.0471 
       0.859047         270.948         66.9422 
       0.865192          269.78         65.8584 
       0.871341           266.4          64.798 
       0.877463         264.925         63.7659 
       0.883569         263.266          62.759 
       0.889708         260.959         61.7689 
       0.895864         257.864         60.7977 
       0.902008         256.671         59.8495 
       0.908149         254.377         58.9223 
       0.914301         253.105         58.0134 
       0.920448         251.372         57.1246 
       0.926574         249.378         56.2576 
       0.932687         248.953         55.4106 
       0.938823         245.961         54.5781 
       0.944975         245.566         53.7609 
       0.951105         242.952         52.9634 
       0.957225         240.563         52.1837 
       0.963368          240.89          51.417 
       0.969511         236.707         50.6659 
       0.975621         234.905         49.9339 
       0.981748         234.644         49.2145 
       0.987916         233.298         48.5049 
        0.99406         231.109          47.812 
        1.00019         229.464         47.1341 
        1.00632         228.714           46.47 
        1.01246         226.875         45.8178 
        1.01859         224.444         45.1792 
        1.02471         222.998         44.5536 
        1.03085         221.833         43.9378 
        1.03698         221.175          43.335 
        1.04314         220.096         42.7411 
        1.04929         218.555         42.1596 
        1.05541         217.163         41.5914 
        1.06154          215.26         41.0323 
        1.06769         213.707         40.4827 
        1.07382          212.36         39.9449 
        1.07993         210.902         39.4182 
        1.08607         209.967         38.8989 
        1.09222         208.094         38.3884 
        1.09836         207.413         37.8878 
        1.10449         205.981         37.3967 
        1.11063         204.486         36.9138 
        1.11677           202.9         36.4396 
         1.1229         202.528         35.9746 
        1.12903         200.302         35.5174 
        1.13518         199.308         35.0678 
        1.14131         198.531         34.6262 
        1.14745         196.515         34.1925 
        1.15359         195.349         33.7662 
        1.15973         194.657          33.347 
        1.16584         193.364         32.9369 
        1.17197         192.492         32.5331 
        1.17811         190.742         32.1349 
        1.18424         189.677         31.7445 
        1.19038         188.976         31.3595 
        1.19652         186.766          30.981 
        1.20267         186.101         30.6089 
        1.20881         184.817         30.2429 
        1.21495         184.586         29.8836 
        1.22108         183.052         29.5301 
         1.2272         181.577         29.1832 
        1.23334         180.686         28.8411 
        1.23949         179.786         28.5037 
        1.24562         178.582         28.1727 
        1.25174         177.861         27.8474 
        1.25789         176.176         27.5263 
        1.26402         175.813         27.2109 
        1.27014         174.958         26.9011 
        1.27628         173.718         26.5953 
        1.28244         172.289         26.2937 
        1.28858         171.428         25.9972 
        1.29471         170.269         25.7059 
        1.30084         169.604         25.4193 
        1.30697         168.209         25.1367 
        1.31312          167.48          24.858 
        1.31925         166.241         24.5844 
        1.32537         165.801         24.3153 
        1.33151         164.544         24.0491 
        1.33765         163.581         23.7872 
        1.34378         163.037         23.5296 
        1.34992         161.667         23.2757 
        1.35606         161.025         23.0251 
         1.3622         159.834         22.7785 
        1.36833         158.925         22.5362 
        1.37445         158.663         22.2975 
        1.38059         157.006         22.0616 
        1.38675         156.183         21.8285 
        1.39288         155.285         21.5998 
        1.39901         154.153         21.3744 
        1.40515         153.704         21.1517 
         1.4113         152.737         20.9324 
        1.41742         151.707         20.7169 
        1.42355          151.24         20.5041 
         1.4297         150.119         20.2937 
        1.43585         149.666         20.0863 
        1.44198         148.081         19.8826 
        1.44809         147.786         19.6822 
        1.45423         146.948         19.4837 
        1.46036         145.943         19.2884 
        1.46649         144.964         19.0957 
        1.47263         144.496         18.9054 
        1.47877         143.502         18.7179 
        1.48491         142.523         18.5326 
        1.49104         141.355         18.3502 
        1.49718         141.111         18.1701 
        1.50333         139.846         17.9922 
        1.50947          139.44          17.817 
         1.5156         138.438         17.6444 
        1.52172         137.776         17.4741 
        1.52787          137.23         17.3057 
          1.534         136.432         17.1398 
        1.54013         135.415         16.9761 
        1.54627         134.777         16.8144 
        1.55241         134.211         16.6547 
        1.55855         133.506         16.4973 
        1.56467         132.757         16.3424 
         1.5708         131.657          16.189 
        1.57695         131.323         16.0374 
        1.58308         130.212          15.888 
        1.58922         129.627         15.7405 
        1.59535         129.034         15.5949 
         1.6015         128.199          15.451 
        1.60764         127.374         15.3089 
        1.61376         126.731          15.169 
        1.61989         126.247         15.0308 
        1.62604         125.218          14.894 
        1.63218         124.773         14.7589 
        1.63831         123.929         14.6259 
        1.64444         123.088         14.4944 
        1.65059          122.68         14.3643 
        1.65673         122.047         14.2359 
        1.66285         121.589         14.1094 
        1.66898         120.646         13.9845 
        1.67512         119.719         13.8608 
        1.68127         119.521         13.7384 
         1.6874         118.676         13.6179 
        1.69353         118.173         13.4988 
        1.69967         117.313          13.381 
        1.70581         116.928         13.2645 
        1.71193         116.236         13.1499 
        1.71806         115.132         13.0364 
        1.72421         114.795          12.924 
        1.73035         114.219         12.8131 
        1.73649         113.506         12.7035 
        1.74262         112.993         12.5953 
        1.74876         112.264         12.4883 
        1.75489         112.086         12.3827 
        1.76101         111.075         12.2784 
        1.76715         110.394         12.1751 
        1.77329         109.853         12.0729 
        1.77943         109.184         11.9718 
        1.78557          108.82         11.8721 
        1.79171         108.034         11.7734 
        1.79785         107.353         11.6759 
        1.80399          106.89         11.5795 
        1.81012         106.157         11.4843 
        1.81625         105.662         11.3902 
        1.82239         105.312          11.297 
        1.82853         104.404          11.205 
        1.83466         103.686          11.114 
        1.84078         103.579         11.0241 
        1.84692         103.206         10.9351 
        1.85306         102.446          10.847 
         1.8592         101.986           10.76 
        1.86533         101.283          10.674 
        1.87147         100.825         10.5888 
        1.87761         100.145         10.5045 
        1.88375          99.587         10.4213 
        1.88988         99.0197          10.339 
        1.89601         98.7461         10.2576 
        1.90215         98.3314          10.177 
        1.90829          97.421         10.0972 
        1.91442         96.7297         10.0184 
        1.92056         96.4313         9.94044 
         1.9267         95.9191         9.86325 
        1.93284         95.2925         9.78683 
        1.93897         94.9587         9.71137 
        1.94509         94.4854         9.63686 
        1.95123         93.9606         9.56295 
        1.95737         93.4748         9.48976 
        1.96349         93.0207         9.41753 
        1.96964         92.4333         9.34584 
        1.97578         91.9733         9.27487 
        1.98192          91.617         9.20477 
        1.98805         91.0716          9.1354 
        1.99419          90.583         9.06673 
        2.00033          89.997         8.99874 
        2.00647         89.5639         8.93147 
         2.0126         89.1362           8.865 
        2.01874         88.6875          8.7991 
        2.02488         88.1184         8.73381 
        2.03101         87.7297         8.66931 
        2.03714         87.2477         8.60551 
        2.04328         87.0439         8.54229 
        2.04941         86.4397         8.47976 
        2.05554          86.071         8.41789 
        2.06167         85.3898         8.35656 
        2.06781         85.0991         8.29583 
        2.07396         84.4507         8.23562 
        2.08009         84.0056         8.17611 
        2.08622         83.6922         8.11726 
        2.09237         83.1875         8.05887 
        2.09851           82.72         8.00105 
        2.10464         82.5771         7.94389 
        2.11077         81.9175         7.88735 
        2.11691         81.5671         7.83125 
        2.12305          81.139         7.77568 
        2.12918          80.667         7.72079 
        2.13531         80.3052         7.66643 
        2.14145         79.9406         7.61246 
         2.1476         79.5519         7.55895 
        2.15372          79.018         7.50622 
        2.15985         78.6356         7.45395 
        2.16599          78.213         7.40202 
        2.17213         77.7228         7.35064 
        2.17827         77.2669         7.29976 
         2.1844         77.0143         7.24941 
        2.19054         76.4939         7.19952 
        2.19666         76.0691         7.15016 
         2.2028         75.9529         7.10123 
        2.20893         75.5371         7.05273 
        2.21508         75.0744         7.00463 
        2.22122         74.6122         6.95696 
        2.22736         74.2783         6.90983 
        2.23349         73.8144         6.86315 
        2.23962         73.5139         6.81688 
        2.24577         73.2177           6.771 
         2.2519         72.7671          6.7256 
        2.25802         72.4036         6.68069 
        2.26417         71.9499         6.63607 
        2.27031         71.5284         6.59181 
        2.27644         71.2674         6.54809 
        2.28257         70.9363         6.50476 
        2.28872         70.5046         6.46175 
        2.29486         70.3405         6.41913 
        2.30099         69.7643         6.37698 
        2.30712         69.6183          6.3352 
        2.31326         69.1189         6.29372 
         2.3194         68.8194         6.25263 
        2.32553         68.3994         6.21198 
        2.33166         68.1029         6.17171 
         2.3378         67.7745         6.13174 
        2.34394          67.572         6.09211 
        2.35007         67.0684         6.05289 
        2.35619         66.7413         6.01406 
        2.36233         66.3398         5.97548 
        2.36848         66.1003         5.93715 
        2.37462         65.7484         5.89925 
        2.38075         65.4026         5.86171 
        2.38689         65.0349         5.82447 
        2.39303         64.8401         5.78755 
        2.39916         64.3946           5.751 
        2.40529         64.1913         5.71476 
        2.41143         63.7845         5.67881 
        2.41757         63.4009         5.64316 
         2.4237         63.1443         5.60787 
        2.42983         62.8199         5.57289 
        2.43598         62.5573         5.53812 
        2.44211         62.2571          5.5037 
        2.44823          61.914         5.46965 
        2.45437         61.6261         5.43579 
        2.46052         61.3187          5.4022 
        2.46665         60.8049         5.36894 
        2.47279         60.6398         5.33598 
        2.47892          60.429         5.30327 
        2.48507         60.1206         5.27081 
         2.4912         59.7856         5.23868 
