# k  (h/Mpc)    P(k)  (Mpc/h)^3    P_linear(k)  (Mpc/h)^3
     0.00783031         12113.3         12291.6 
       0.013688         15577.4         15467.3 
       0.019231         15899.7         15889.1 
      0.0249154           14584         14881.8 
      0.0312784         12923.6           13071 
      0.0375637         11277.7         11299.7 
      0.0433917          9793.5         9981.28 
      0.0492413         8934.23         9021.65 
      0.0555754         8032.67         8296.39 
      0.0619321         7708.53         7732.55 
       0.067871         7003.25         7219.88 
      0.0738098         6449.83         6650.42 
      0.0800417         5751.15         5990.73 
      0.0862327         5186.49         5326.55 
      0.0921407         4710.84         4749.93 
      0.0982031         4214.21         4264.59 
       0.104506         3959.95         3890.56 
       0.110769         3685.74         3632.62 
       0.116806         3479.83         3452.99 
       0.122832         3329.44         3298.29 
       0.129052         3094.39         3128.17 
       0.135211         2918.92         2931.59 
       0.141259         2768.66         2714.87 
       0.147318         2587.94         2492.12 
       0.153489         2364.39         2281.82 
       0.159709         2232.25         2104.12 
       0.165845         2148.99         1968.84 
       0.171974         2034.16         1869.05 
       0.178125         1943.52         1792.62 
       0.184229         1869.45         1726.05 
        0.19034         1760.81         1656.63 
       0.196428         1724.16         1578.26 
       0.202534         1656.51         1490.51 
       0.208729         1573.28         1397.51 
       0.214876         1498.24         1308.84 
       0.220989         1447.54         1230.63 
       0.227147         1381.26         1165.26 
        0.23329         1329.25         1113.12 
       0.239377         1308.35         1071.21 
       0.245482         1226.86         1034.42 
       0.251667         1219.63         997.986 
       0.257832         1172.47          959.54 
       0.263955         1133.41         918.477 
       0.270079          1093.4         875.597 
        0.27624         1080.55         832.965 
       0.282372         1034.41         793.366 
        0.28843         1022.06         758.591 
       0.294538         971.366         728.396 
       0.300721         967.777         702.125 
        0.30691         926.887         678.822 
       0.313033         909.511         657.098 
       0.319153         890.392         635.509 
       0.325316         861.945         613.184 
        0.33145         840.763         590.493 
       0.337538         828.263         567.991 
       0.343633         806.148         546.276 
       0.349808         778.897         525.771 
       0.355968         774.205          507.16 
       0.362074         764.013         490.557 
       0.368217         741.736          475.33 
       0.374374         711.584           461.1 
       0.380519         710.877         447.406 
       0.386598         692.483         434.017 
       0.392688         690.052         420.667 
        0.39888         669.747         407.176 
       0.405048         658.851         394.063 
       0.411186         649.039         381.571 
       0.417313         636.154         369.798 
       0.423458         625.228         358.794 
       0.429607          615.38         348.532 
       0.435692         601.556         338.961 
       0.441815         597.314         329.769 
       0.447964         584.677          320.84 
       0.454126         574.434         312.071 
       0.460267         563.512         303.491 
       0.466387         557.456         295.149 
        0.47254           548.5         287.015 
       0.478662         546.432          279.23 
       0.484765         529.482         271.826 
       0.490885         525.307          264.78 
       0.497035         515.307         258.034 
       0.503198         509.709         251.559 
       0.509342         505.308         245.337 
       0.515458         501.232         239.339 
       0.521598         489.487          233.48 
       0.527764         480.212         227.736 
       0.533884         478.622         222.189 
           0.54         472.341         216.823 
       0.546137          470.13         211.632 
       0.552299         461.397         206.617 
       0.558452         459.155         201.795 
       0.564573         452.257         197.171 
       0.570708         445.955         192.699 
       0.576825         435.429         188.386 
       0.582926         435.101         184.214 
       0.589034         431.221         180.151 
       0.595184         427.146         176.167 
       0.601379         421.566         172.265 
       0.607522         415.485         168.511 
       0.613639         414.436         164.889 
       0.619772         404.214         161.377 
       0.625918         403.317          157.97 
       0.632068         397.234         154.666 
       0.638161          395.77         151.488 
         0.6443         388.608         148.376 
       0.650464         385.988         145.338 
       0.656582         384.185         142.405 
       0.662703         382.097         139.552 
       0.668861         375.237          136.76 
       0.675024         371.924         134.044 
       0.681124         369.542          131.43 
       0.687237         365.877         128.882 
       0.693381         360.937          126.39 
       0.699536         356.957         123.961 
       0.705665         354.734         121.608 
       0.711789         352.299         119.318 
       0.717957         349.374         117.072 
        0.72409         346.442         114.897 
       0.730186         342.505          112.79 
       0.736317         339.343         110.726 
       0.742472          337.92         108.707 
       0.748622         334.208          106.74 
        0.75476         330.796         104.826 
       0.760888          327.11         102.962 
       0.767043         327.618         101.137 
       0.773185         323.219         99.3605 
       0.779291         318.466         97.6369 
       0.785407         317.525          95.952 
       0.791564          313.72         94.2965 
       0.797719         311.376         92.6811 
       0.803834         308.996         91.1142 
       0.809972         307.621         89.5782 
       0.816124         307.278         88.0746 
       0.822261         302.551         86.6099 
       0.828378         300.576         85.1833 
       0.834502         298.893         83.7879 
       0.840667         295.297          82.415 
       0.846816         293.799         81.0772 
       0.852925         291.853         79.7777 
       0.859047         290.034         78.5044 
       0.865192         286.906         77.2549 
       0.871341         284.678          76.032 
       0.877463         283.067         74.8414 
       0.883569          281.68         73.6795 
       0.889708         278.875         72.5366 
       0.895864         275.876         71.4151 
       0.902008         274.832         70.3199 
       0.908149          273.32         69.2485 
       0.914301         269.929         68.1979 
       0.920448         268.182         67.1701 
       0.926574         265.821         66.1674 
       0.932687         266.125         65.1873 
       0.938823         262.823         64.2238 
       0.944975         261.719         63.2776 
       0.951105         259.852          62.354 
       0.957225          257.79         61.4505 
       0.963368         254.602          60.562 
       0.969511         253.551         59.6911 
       0.975621         251.279         58.8422 
       0.981748         251.426         58.0077 
       0.987916         248.958         57.1842 
        0.99406         245.756         56.3799 
        1.00019         245.809         55.5928 
        1.00632         243.927         54.8215 
        1.01246         241.911         54.0638 
        1.01859         241.955         53.3217 
        1.02471         238.617         52.5946 
        1.03085         236.466         51.8785 
        1.03698         235.691         51.1774 
        1.04314         233.464         50.4864 
        1.04929         231.977         49.8099 
        1.05541         232.059         49.1485 
        1.06154         228.943         48.4976 
        1.06769         228.516         47.8576 
        1.07382         226.848         47.2314 
        1.07993         224.959         46.6178 
        1.08607         224.308         46.0127 
        1.09222         222.757         45.4178 
        1.09836         220.902         44.8342 
        1.10449          218.66         44.2616 
        1.11063         216.876         43.6984 
        1.11677         216.641         43.1453 
         1.1229         214.955         42.6028 
        1.12903         213.694         42.0692 
        1.13518         212.405         41.5444 
        1.14131         210.654         41.0288 
        1.14745         210.409         40.5224 
        1.15359         208.543         40.0244 
        1.15973         207.429         39.5346 
        1.16584         205.435         39.0553 
        1.17197         205.132         38.5833 
        1.17811         203.278         38.1176 
        1.18424         202.118         37.6611 
        1.19038         201.457         37.2107 
        1.19652         199.908         36.7679 
        1.20267         199.303         36.3323 
        1.20881         197.327         35.9039 
        1.21495          196.37         35.4832 
        1.22108         195.296         35.0692 
         1.2272         193.673         34.6629 
        1.23334         192.867         34.2621 
        1.23949         191.604         33.8668 
        1.24562         190.659         33.4788 
        1.25174         188.719         33.0975 
        1.25789         187.596         32.7209 
        1.26402         186.556          32.351 
        1.27014         185.248         31.9877 
        1.27628         184.457         31.6289 
        1.28244         184.161         31.2749 
        1.28858         182.274         30.9269 
        1.29471         180.672          30.585 
        1.30084         180.121         30.2485 
        1.30697         178.768         29.9167 
        1.31312         177.671         29.5894 
        1.31925         177.003          29.268 
        1.32537         175.934         28.9518 
        1.33151          174.26         28.6391 
        1.33765         173.531         28.3312 
        1.34378         172.663         28.0285 
        1.34992         171.859           27.73 
        1.35606         171.492         27.4353 
         1.3622         169.877         27.1454 
        1.36833         168.303         26.8603 
        1.37445         167.473         26.5796 
        1.38059         166.519          26.302 
        1.38675         165.785         26.0277 
        1.39288         164.816         25.7584 
        1.39901         164.624         25.4931 
        1.40515          162.86          25.231 
         1.4113         161.694         24.9726 
        1.41742         160.906         24.7189 
        1.42355         159.877         24.4682 
         1.4297         159.049         24.2203 
        1.43585         157.828         23.9759 
        1.44198         157.228         23.7358 
        1.44809         156.472         23.4995 
        1.45423         155.373         23.2655 
        1.46036          154.52         23.0351 
        1.46649         153.442         22.8078 
        1.47263         152.615         22.5834 
        1.47877         151.958         22.3621 
        1.48491         150.354         22.1434 
        1.49104         150.306         21.9281 
        1.49718         148.621         21.7156 
        1.50333         148.167         21.5055 
        1.50947         147.571         21.2987 
         1.5156         146.407         21.0948 
        1.52172         145.578         20.8937 
        1.52787         144.556         20.6948 
          1.534         144.009         20.4987 
        1.54013         142.986         20.3054 
        1.54627         142.358         20.1142 
        1.55241         141.287         19.9255 
        1.55855          140.55         19.7395 
        1.56467         139.857         19.5564 
         1.5708         138.959          19.375 
        1.57695          138.27         19.1957 
        1.58308         137.606         19.0192 
        1.58922         136.888         18.8447 
        1.59535         135.752         18.6724 
         1.6015         135.325         18.5021 
        1.60764         134.494          18.334 
        1.61376         133.763         18.1685 
        1.61989         132.804         18.0049 
        1.62604         132.156         17.8429 
        1.63218         131.517         17.6831 
        1.63831         130.542         17.5255 
        1.64444         130.165         17.3699 
        1.65059         129.487         17.2157 
        1.65673         128.188         17.0636 
        1.66285         128.011         16.9138 
        1.66898         127.171         16.7657 
        1.67512         126.695         16.6191 
        1.68127          125.56         16.4742 
         1.6874         124.534         16.3312 
        1.69353         124.347         16.1901 
        1.69967         123.637         16.0503 
        1.70581         122.873         15.9123 
        1.71193         122.189         15.7763 
        1.71806         121.605         15.6417 
        1.72421         120.781         15.5084 
        1.73035         120.541         15.3768 
        1.73649         119.645         15.2467 
        1.74262         118.817         15.1183 
        1.74876         118.484         14.9913 
        1.75489           117.4          14.866 
        1.76101         116.868         14.7421 
        1.76715         116.144         14.6195 
        1.77329         115.942         14.4982 
        1.77943         114.845         14.3782 
        1.78557         114.329         14.2597 
        1.79171         113.632         14.1425 
        1.79785         113.002         14.0267 
        1.80399         112.334         13.9121 
        1.81012         111.814          13.799 
        1.81625         111.134         13.6872 
        1.82239          110.84         13.5765 
        1.82853         110.172         13.4671 
        1.83466         109.319          13.359 
        1.84078         108.988         13.2521 
        1.84692         108.096         13.1463 
        1.85306         107.678         13.0415 
         1.8592         106.975         12.9381 
        1.86533         106.244         12.8358 
        1.87147         105.702         12.7345 
        1.87761         105.284         12.6342 
        1.88375         104.368         12.5351 
        1.88988         103.947         12.4373 
        1.89601         103.321         12.3404 
        1.90215         102.938         12.2444 
        1.90829         102.291         12.1496 
        1.91442         101.841         12.0557 
        1.92056         101.144         11.9629 
         1.9267         100.796          11.871 
        1.93284         100.214           11.78 
        1.93897         99.5726         11.6902 
        1.94509         99.2272         11.6014 
        1.95123         98.5974         11.5134 
        1.95737         98.0796         11.4262 
        1.96349         97.4834         11.3402 
        1.96964         96.7329         11.2547 
        1.97578         96.3576         11.1702 
        1.98192         96.0468         11.0866 
        1.98805         95.1306         11.0039 
        1.99419         94.8929         10.9221 
        2.00033         94.3781         10.8411 
        2.00647         93.8402         10.7609 
         2.0126         93.2891         10.6816 
        2.01874         92.7235          10.603 
        2.02488          92.234         10.5252 
        2.03101         91.6825         10.4483 
        2.03714         91.1702         10.3722 
        2.04328         90.7757         10.2968 
        2.04941         90.2842         10.2222 
        2.05554         89.7711         10.1484 
        2.06167         89.3171         10.0752 
        2.06781         88.7933         10.0027 
        2.07396          88.284         9.93087 
        2.08009         87.9162         9.85985 
        2.08622         87.4617          9.7896 
        2.09237         86.8484         9.71991 
        2.09851         86.5776         9.65088 
        2.10464         85.9468         9.58263 
        2.11077         85.6817         9.51513 
        2.11691         85.2798         9.44813 
        2.12305         84.5864         9.38178 
        2.12918         84.1206         9.31622 
        2.13531          83.892         9.25128 
        2.14145         83.0388         9.18682 
         2.1476         82.7399         9.12289 
        2.15372         82.3985          9.0599 
        2.15985         81.9578         8.99744 
        2.16599         81.5941         8.93538 
        2.17213         81.0312         8.87399 
        2.17827         80.6867         8.81318 
         2.1844         80.1419           8.753 
        2.19054         79.9949         8.69336 
        2.19666          79.395         8.63437 
         2.2028         79.1857         8.57586 
        2.20893         78.5389         8.51788 
        2.21508         78.1001         8.46036 
        2.22122         77.7814         8.40336 
        2.22736         77.3606           8.347 
        2.23349         77.0109         8.29117 
        2.23962           76.51         8.23582 
        2.24577         76.1644         8.18093 
         2.2519         75.8796         8.12662 
        2.25802         75.3458         8.07289 
        2.26417         74.9006          8.0195 
        2.27031         74.6104         7.96654 
        2.27644         74.1856         7.91421 
        2.28257         73.6926         7.86236 
        2.28872         73.3323         7.81087 
        2.29486         72.8888         7.75986 
        2.30099         72.5436          7.7094 
        2.30712         72.2842         7.65938 
        2.31326         71.9359         7.60971 
         2.3194         71.4927         7.56051 
        2.32553         71.1075         7.51184 
        2.33166         70.6915         7.46361 
         2.3378         70.2634         7.41574 
        2.34394         70.0195         7.36827 
        2.35007         69.5334         7.32129 
        2.35619         69.1863         7.27478 
        2.36233         68.9105         7.22856 
        2.36848         68.5273         7.18264 
        2.37462         68.1134         7.13723 
        2.38075         67.9368         7.09225 
        2.38689          67.442         7.04762 
        2.39303         67.1583         7.00338 
        2.39916         66.7197         6.95956 
        2.40529         66.5495         6.91613 
        2.41143         66.1125         6.87304 
        2.41757         65.8166         6.83029 
         2.4237         65.5446         6.78799 
        2.42983          65.061         6.74605 
        2.43598         64.8227         6.70435 
        2.44211          64.465         6.66307 
        2.44823          64.159         6.62224 
        2.45437         63.7085         6.58163 
        2.46052         63.4064         6.54134 
        2.46665         63.1612         6.50145 
        2.47279         62.7707         6.46191 
        2.47892          62.486         6.42267 
        2.48507         62.0805         6.38372 
         2.4912         61.8709         6.34517 
