# k  (h/Mpc)    Pcb(k)  (Mpc/h)^3    Pcb_linear(k)  (Mpc/h)^3
     0.00783031          820.66         827.416 
       0.013688         977.652          987.63 
       0.019231         956.978         960.828 
      0.0249154         846.946          846.21 
      0.0312784         691.984         691.304 
      0.0375637         559.281         559.296 
      0.0433917         473.205         471.526 
      0.0492413          415.43         415.076 
      0.0555754         380.288          378.78 
      0.0619321         352.403         354.325 
       0.067871         331.402         331.621 
      0.0738098         303.504         303.522 
      0.0800417         268.833         268.153 
      0.0862327         231.571         231.281 
      0.0921407         199.879         199.462 
      0.0982031         174.901          173.75 
       0.104506         155.694         155.575 
       0.110769         145.108         144.889 
       0.116806         139.769         138.975 
       0.122832         134.513         134.459 
       0.129052         129.091         128.706 
       0.135211         121.306         120.597 
       0.141259         110.848         110.488 
       0.147318         99.5893         99.4861 
       0.153489         89.5074         88.9886 
       0.159709         81.2139          80.385 
       0.165845          74.554         74.3314 
       0.171974         71.4181         70.4721 
       0.178125          68.832         68.0736 
       0.184229         66.6522         66.2392 
        0.19034         64.8596         64.1268 
       0.196428          61.911         61.2662 
       0.202534         57.7715          57.599 
       0.208729         54.0848         53.4054 
       0.214876          50.252         49.2902 
       0.220989          46.285         45.7017 
       0.227147         43.8844         42.8538 
        0.23329         41.8434         40.7965 
       0.239377         40.4318         39.3558 
       0.245482         39.1822         38.2282 
       0.251667         37.8128         37.1111 
       0.257832         36.8148         35.8076 
       0.263955          34.995         34.2509 
       0.270079         33.2473         32.4881 
        0.27624          31.335         30.6576 
       0.282372         29.6942         28.9425 
        0.28843         28.5061          27.472 
       0.294538         27.2313          26.265 
       0.300721         26.0881          25.297 
        0.30691         25.4777         24.5071 
       0.313033         24.6684         23.7974 
       0.319153          24.141         23.0755 
       0.325316         23.0617         22.2807 
        0.33145         22.1702         21.4202 
       0.337538         21.3363         20.5258 
       0.343633         20.5594         19.6437 
       0.349808         19.6754         18.8125 
       0.355968         18.9212         18.0773 
       0.362074         18.4193         17.4504 
       0.368217         17.8155         16.9033 
       0.374374         17.4155          16.412 
       0.380519         16.7969         15.9436 
       0.386598         16.2708         15.4768 
       0.392688         15.7508         14.9956 
        0.39888         15.3303         14.4915 
       0.405048         14.8616         13.9895 
       0.411186          14.359         13.5067 
       0.417313         13.9035         13.0539 
       0.423458         13.4185         12.6396 
       0.429607         13.1437         12.2638 
       0.435692         12.8414         11.9221 
       0.441815         12.4115         11.5997 
       0.447964          12.034         11.2877 
       0.454126         11.7936         10.9772 
       0.460267         11.5621         10.6679 
       0.466387          11.207         10.3623 
        0.47254         10.9504         10.0607 
       0.478662         10.6159         9.77066 
       0.484765         10.3457         9.49654 
       0.490885          10.035         9.23908 
       0.497035         9.76978         8.99616 
       0.503198         9.58705         8.76568 
       0.509342         9.30297         8.54606 
       0.515458           9.135         8.33473 
       0.521598         8.92603         8.12721 
       0.527764         8.75667         7.92164 
       0.533884         8.47764         7.72146 
           0.54         8.31659         7.52707 
       0.546137         8.07389         7.33906 
       0.552299         7.90923         7.15807 
       0.558452         7.72236         6.98493 
       0.564573         7.58104         6.81998 
       0.570708         7.41367         6.66155 
       0.576825         7.26057         6.50953 
       0.582926         7.09384         6.36261 
       0.589034         6.96076         6.21914 
       0.595184         6.84925         6.07781 
       0.601379         6.66584         5.93887 
       0.607522         6.52117         5.80501 
       0.613639         6.37499         5.67604 
       0.619772          6.2716          5.5513 
       0.625918         6.13986         5.43072 
       0.632068         6.03575         5.31406 
       0.638161         5.91088         5.20206 
         0.6443         5.78916         5.09251 
       0.650464         5.66357         4.98562 
       0.656582         5.59558         4.88248 
       0.662703          5.4909         4.78215 
       0.668861         5.34781         4.68403 
       0.675024         5.25253         4.58854 
       0.681124         5.22823         4.49666 
       0.687237         5.09862         4.40712 
       0.693381         4.96797         4.31961 
       0.699536         4.92186         4.23437 
       0.705665         4.82819         4.15184 
       0.711789         4.72051         4.07165 
       0.717957         4.63188         3.99309 
        0.72409         4.56716         3.91709 
       0.730186         4.52221         3.84356 
       0.736317         4.41274         3.77154 
       0.742472         4.35737         3.70111 
       0.748622         4.28813         3.63255 
        0.75476          4.1821         3.56587 
       0.760888         4.13985         3.50096 
       0.767043         4.03598         3.43742 
       0.773185         3.98711         3.37558 
       0.779291         3.95726         3.31563 
       0.785407         3.87469         3.25705 
       0.791564         3.81316         3.19953 
       0.797719         3.74743         3.14343 
       0.803834         3.69884         3.08904 
       0.809972         3.63261         3.03576 
       0.816124         3.58218         2.98363 
       0.822261         3.52966         2.93287 
       0.828378         3.47422         2.88346 
       0.834502         3.42202         2.83516 
       0.840667         3.38285         2.78767 
       0.846816         3.31617          2.7414 
       0.852925         3.27092         2.69649 
       0.859047         3.22254          2.6525 
       0.865192         3.17726         2.60935 
       0.871341          3.1342         2.56715 
       0.877463         3.08075         2.52608 
       0.883569         3.04517         2.48601 
       0.889708         3.00499         2.44662 
       0.895864         2.96306         2.40798 
       0.902008          2.9122         2.37026 
       0.908149         2.87575         2.33338 
       0.914301         2.84062         2.29723 
       0.920448         2.80739         2.26188 
       0.926574         2.78093         2.22741 
       0.932687         2.73461         2.19373 
       0.938823         2.68358         2.16063 
       0.944975         2.66422         2.12814 
       0.951105         2.60922         2.09644 
       0.957225         2.58984         2.06544 
       0.963368         2.55892         2.03497 
       0.969511         2.52808         2.00512 
       0.975621         2.48846         1.97602 
       0.981748         2.44404         1.94744 
       0.987916         2.42071         1.91924 
        0.99406         2.40059         1.89171 
        1.00019         2.36841         1.86478 
        1.00632         2.34538         1.83839 
        1.01246         2.31043         1.81249 
        1.01859         2.28367         1.78712 
        1.02471         2.24575         1.76227 
        1.03085          2.2231         1.73782 
        1.03698         2.20013         1.71388 
        1.04314         2.17416         1.69029 
        1.04929         2.15039          1.6672 
        1.05541         2.11691         1.64464 
        1.06154         2.10096         1.62245 
        1.06769         2.08196         1.60063 
        1.07382         2.04882         1.57929 
        1.07993         2.02248         1.55839 
        1.08607         2.00697         1.53778 
        1.09222         1.97783         1.51753 
        1.09836         1.96719         1.49766 
        1.10449         1.92875         1.47818 
        1.11063          1.9112         1.45902 
        1.11677         1.89437         1.44022 
         1.1229         1.86756         1.42177 
        1.12903         1.85526         1.40364 
        1.13518         1.82785         1.38581 
        1.14131         1.81061          1.3683 
        1.14745         1.79065          1.3511 
        1.15359         1.77098          1.3342 
        1.15973         1.75081         1.31758 
        1.16584         1.73299         1.30132 
        1.17197         1.71131         1.28532 
        1.17811         1.69341         1.26953 
        1.18424         1.67578         1.25406 
        1.19038         1.65805          1.2388 
        1.19652         1.64384          1.2238 
        1.20267         1.63086         1.20905 
        1.20881          1.6093         1.19455 
        1.21495         1.59402         1.18031 
        1.22108         1.57964          1.1663 
         1.2272          1.5565         1.15256 
        1.23334         1.54701           1.139 
        1.23949         1.53006         1.12563 
        1.24562         1.51602         1.11252 
        1.25174         1.50389         1.09963 
        1.25789         1.48252         1.08691 
        1.26402         1.46808         1.07442 
        1.27014         1.45132         1.06215 
        1.27628         1.44102         1.05003 
        1.28244         1.42696         1.03809 
        1.28858         1.41223         1.02634 
        1.29471         1.39583         1.01481 
        1.30084         1.38544         1.00346 
        1.30697         1.37576        0.992268 
        1.31312         1.36084        0.981232 
        1.31925         1.34789        0.970401 
        1.32537         1.33726        0.959743 
        1.33151         1.32163        0.949209 
        1.33765          1.3106        0.938839 
        1.34378         1.29875        0.928646 
        1.34992         1.28871        0.918597 
        1.35606         1.27514        0.908676 
         1.3622         1.26498         0.89892 
        1.36833          1.2514         0.88933 
        1.37445          1.2393        0.879886 
        1.38059         1.22933        0.870551 
        1.38675         1.21796        0.861329 
        1.39288         1.20962        0.852278 
        1.39901          1.1963        0.843362 
        1.40515         1.18585        0.834554 
         1.4113         1.17951        0.825875 
        1.41742         1.16462        0.817353 
        1.42355         1.15367        0.808936 
         1.4297         1.14677        0.800612 
        1.43585         1.13591        0.792409 
        1.44198          1.1267        0.784352 
        1.44809         1.11709        0.776423 
        1.45423         1.10769        0.768574 
        1.46036         1.09871        0.760847 
        1.46649         1.08584        0.753225 
        1.47263          1.0804        0.745701 
        1.47877         1.07516        0.738283 
        1.48491         1.05899        0.730955 
        1.49104         1.05364        0.723742 
        1.49718         1.04301        0.716621 
        1.50333         1.03529        0.709585 
        1.50947         1.02855        0.702658 
         1.5156         1.01922        0.695834 
        1.52172         1.01171        0.689101 
        1.52787         1.00241        0.682443 
          1.534        0.996922        0.675882 
        1.54013        0.987283        0.669414 
        1.54627        0.979396         0.66302 
        1.55241        0.970096        0.656708 
        1.55855        0.963447        0.650487 
        1.56467        0.955883        0.644364 
         1.5708         0.94878        0.638303 
        1.57695        0.940109        0.632311 
        1.58308        0.931248         0.62641 
        1.58922        0.926799         0.62058 
        1.59535        0.917028        0.614827 
         1.6015        0.910257        0.609139 
        1.60764        0.904322        0.603525 
        1.61376        0.896445        0.597999 
        1.61989        0.890562        0.592537 
        1.62604        0.881193        0.587131 
        1.63218        0.877976        0.581796 
        1.63831        0.870086         0.57654 
        1.64444        0.863717        0.571347 
        1.65059        0.858157        0.566206 
        1.65673        0.849273        0.561133 
        1.66285        0.844094        0.556137 
        1.66898        0.839164        0.551201 
        1.67512        0.829603        0.546314 
        1.68127        0.824325        0.541483 
         1.6874        0.821061         0.53672 
        1.69353        0.812701        0.532018 
        1.69967        0.808059        0.527362 
        1.70581        0.804027        0.522763 
        1.71193        0.794881        0.518236 
        1.71806        0.791258        0.513753 
        1.72421          0.7858        0.509315 
        1.73035        0.777033        0.504934 
        1.73649        0.775881        0.500606 
        1.74262        0.767346        0.496332 
        1.74876        0.762642        0.492105 
        1.75489        0.758215        0.487936 
        1.76101        0.750524        0.483817 
        1.76715        0.746669         0.47974 
        1.77329         0.74219        0.475705 
        1.77943         0.73686        0.471714 
        1.78557        0.733147        0.467776 
        1.79171        0.727877        0.463881 
        1.79785        0.722408        0.460031 
        1.80399        0.715576        0.456225 
        1.81012        0.712014        0.452467 
        1.81625        0.706641        0.448753 
        1.82239        0.702941        0.445075 
        1.82853        0.697426        0.441441 
        1.83466          0.6926         0.43785 
        1.84078        0.687715        0.434304 
        1.84692        0.683537        0.430791 
        1.85306         0.68072        0.427312 
         1.8592        0.673859        0.423878 
        1.86533        0.670908        0.420483 
        1.87147        0.664322        0.417122 
        1.87761        0.661328        0.413796 
        1.88375        0.656748         0.41051 
        1.88988        0.651579        0.407263 
        1.89601        0.647349         0.40405 
        1.90215        0.644289        0.400869 
        1.90829        0.639543        0.397724 
        1.91442        0.635713        0.394612 
        1.92056        0.632706        0.391537 
         1.9267        0.627704        0.388491 
        1.93284        0.622847        0.385475 
        1.93897        0.619448        0.382498 
        1.94509        0.616318        0.379558 
        1.95123        0.610794        0.376641 
        1.95737        0.608012        0.373754 
        1.96349        0.603595        0.370904 
        1.96964        0.601474        0.368075 
        1.97578        0.595601        0.365275 
        1.98192        0.592448        0.362509 
        1.98805        0.589109        0.359772 
        1.99419        0.585918        0.357063 
        2.00033        0.582682        0.354381 
        2.00647        0.579279        0.351727 
         2.0126        0.576008        0.349105 
        2.01874        0.572058        0.346505 
        2.02488        0.567336         0.34393 
        2.03101        0.564261        0.341386 
        2.03714        0.562192        0.338869 
        2.04328        0.557871        0.336376 
        2.04941        0.554559        0.333909 
        2.05554        0.551195        0.331469 
        2.06167        0.548236         0.32905 
        2.06781        0.543623        0.326655 
        2.07396        0.542386        0.324281 
        2.08009        0.538272        0.321934 
        2.08622        0.535157        0.319613 
        2.09237        0.532461         0.31731 
        2.09851        0.528727         0.31503 
        2.10464        0.526056        0.312775 
        2.11077        0.521326        0.310546 
        2.11691        0.519266        0.308333 
        2.12305          0.5179        0.306142 
        2.12918        0.513307        0.303978 
        2.13531        0.510507        0.301834 
        2.14145        0.507307        0.299706 
         2.1476        0.504944        0.297596 
        2.15372        0.502253        0.295517 
        2.15985          0.4987        0.293456 
        2.16599        0.496624        0.291409 
        2.17213        0.493596        0.289383 
        2.17827        0.489992        0.287377 
         2.1844        0.488204        0.285392 
        2.19054        0.485542        0.283425 
        2.19666        0.482914        0.281479 
         2.2028        0.479789         0.27955 
        2.20893        0.477874        0.277638 
        2.21508        0.474759        0.275742 
        2.22122        0.472571        0.273863 
        2.22736        0.468217        0.272005 
        2.23349        0.465882        0.270165 
        2.23962        0.464412        0.268341 
        2.24577        0.461876        0.266532 
         2.2519        0.459069        0.264743 
        2.25802         0.45726        0.262973 
        2.26417        0.453755        0.261214 
        2.27031        0.451936        0.259469 
        2.27644        0.450441        0.257745 
        2.28257        0.446582        0.256038 
        2.28872        0.445401        0.254342 
        2.29486        0.442158        0.252662 
        2.30099        0.439939        0.251001 
        2.30712        0.437693        0.249354 
        2.31326        0.435512        0.247719 
         2.3194         0.43308          0.2461 
        2.32553        0.430482        0.244498 
        2.33166        0.429345        0.242911 
         2.3378        0.426631        0.241335 
        2.34394        0.424603        0.239774 
        2.35007        0.421221        0.238228 
        2.35619        0.418834        0.236698 
        2.36233        0.417366        0.235177 
        2.36848        0.415976        0.233667 
        2.37462        0.413519        0.232173 
        2.38075         0.41114        0.230694 
        2.38689        0.409628        0.229227 
        2.39303        0.407075        0.227772 
        2.39916        0.405178        0.226332 
        2.40529        0.403665        0.224904 
        2.41143        0.400668        0.223487 
        2.41757        0.398976        0.222082 
         2.4237        0.396983        0.220692 
        2.42983        0.394643        0.219313 
        2.43598        0.393056        0.217943 
        2.44211        0.390755        0.216587 
        2.44823        0.389265        0.215245 
        2.45437        0.387784        0.213911 
        2.46052        0.386088        0.212588 
        2.46665        0.383507        0.211278 
        2.47279        0.381714        0.209979 
        2.47892        0.379891         0.20869 
        2.48507        0.378675        0.207411 
         2.4912        0.376239        0.206145 
