# k  (h/Mpc)    P(k)  (Mpc/h)^3    P_linear(k)  (Mpc/h)^3
     0.00783031          192.66         194.222 
       0.013688         247.426         249.283 
       0.019231         261.896         262.629 
      0.0249154         252.882         253.167 
      0.0312784         228.862         229.025 
      0.0375637          201.72         201.833 
      0.0433917         179.551         179.232 
      0.0492413         161.222          161.16 
      0.0555754          147.12         146.722 
      0.0619321         135.745         136.097 
       0.067871         127.926         127.897 
      0.0738098         119.936         119.915 
      0.0800417         111.032         110.894 
      0.0862327         101.169         101.176 
      0.0921407         91.7027         91.6961 
      0.0982031         82.6777         82.5089 
       0.104506         74.1906         74.2453 
       0.110769          67.704         67.7145 
       0.116806         63.1752         62.9867 
       0.122832         59.5029         59.4899 
       0.129052         56.7855         56.6694 
       0.135211         54.3075         54.1478 
       0.141259         51.5844         51.5464 
       0.147318         48.5475         48.6308 
       0.153489         45.3961         45.3698 
       0.159709         42.0776         41.9824 
       0.165845         38.7196         38.7989 
       0.171974         36.1509         35.9955 
       0.178125         33.8217         33.6786 
       0.184229         31.9386         31.8745 
        0.19034         30.6499         30.4705 
       0.196428         29.4544         29.3237 
       0.202534         28.2617         28.2672 
       0.208729         27.2569         27.1599 
       0.214876         26.1211         25.9562 
       0.220989         24.6767         24.6547 
       0.227147         23.4823         23.2933 
        0.23329         22.1764         21.9663 
       0.239377         20.9847         20.7584 
       0.245482         19.9246         19.7027 
       0.251667         18.9608         18.8066 
       0.257832         18.3004         18.0672 
       0.263955           17.61         17.4404 
       0.270079         17.0364         16.8686 
        0.27624         16.4127         16.3023 
       0.282372         15.8378         15.7169 
        0.28843         15.3137         15.1097 
       0.294538         14.6655         14.4783 
       0.300721         13.9818         13.8433 
        0.30691         13.4528         13.2379 
       0.313033         12.8849         12.6895 
       0.319153         12.4764         12.2016 
       0.325316         11.9358         11.7696 
        0.33145         11.5508          11.388 
       0.337538         11.2264          11.041 
       0.343633          10.917         10.7089 
       0.349808         10.5594         10.3759 
       0.355968         10.2173         10.0395 
       0.362074         9.91306         9.70321 
       0.368217         9.56672         9.36611 
       0.374374         9.28675         9.03784 
       0.380519         8.92879         8.72718 
       0.386598         8.62585         8.44112 
       0.392688         8.35582         8.17814 
        0.39888         8.13007         7.93215 
       0.405048         7.90831         7.70478 
       0.411186         7.68596         7.49056 
       0.417313         7.48358         7.28332 
       0.423458         7.25152         7.07913 
       0.429607         7.08447         6.87696 
       0.435692         6.89662         6.67917 
       0.441815         6.67733         6.48462 
       0.447964         6.46908         6.29599 
       0.454126         6.31637         6.11545 
       0.460267         6.17341         5.94539 
       0.466387         5.99757          5.7859 
        0.47254         5.85573         5.63423 
       0.478662           5.702         5.49061 
       0.484765         5.56752         5.35313 
       0.490885         5.42026         5.21939 
       0.497035         5.27134         5.08789 
       0.503198         5.15968           4.959 
       0.509342         5.01814         4.83361 
       0.515458         4.91244         4.71218 
       0.521598          4.7963         4.59424 
       0.527764         4.69815         4.48037 
       0.533884         4.55989         4.37225 
           0.54         4.46648         4.26878 
       0.546137         4.35072         4.16904 
       0.552299         4.26204         4.07259 
       0.558452          4.1693         3.97952 
       0.564573         4.08427         3.88965 
       0.570708         3.99474         3.80188 
       0.576825         3.90818         3.71649 
       0.582926         3.81687         3.63357 
       0.589034          3.7494         3.55293 
       0.595184         3.67684         3.47429 
       0.601379         3.58687         3.39768 
       0.607522         3.51032          3.3242 
       0.613639         3.42721         3.25345 
       0.619772          3.3731         3.18484 
       0.625918         3.30424         3.11827 
       0.632068         3.24073         3.05362 
       0.638161         3.17617         2.99133 
         0.6443         3.11162         2.93017 
       0.650464         3.04904         2.87033 
       0.656582         3.00283         2.81249 
       0.662703         2.94376         2.75619 
       0.668861         2.87221         2.70117 
       0.675024         2.82296         2.64769 
       0.681124         2.79679         2.59628 
       0.687237         2.73006         2.54619 
       0.693381          2.6661         2.49723 
       0.699536         2.63579          2.4495 
       0.705665         2.58615         2.40322 
       0.711789         2.52988         2.35819 
       0.717957         2.48669           2.314 
        0.72409         2.44381         2.27119 
       0.730186         2.41179         2.22972 
       0.736317         2.36071         2.18905 
       0.742472         2.32695         2.14924 
       0.748622         2.28958         2.11046 
        0.75476         2.24068         2.07273 
       0.760888         2.21296         2.03598 
       0.767043         2.15563               2 
       0.773185         2.12987         1.96498 
       0.779291         2.10602         1.93101 
       0.785407         2.06631         1.89782 
       0.791564         2.03288          1.8652 
       0.797719         1.99787         1.83337 
       0.803834         1.96552          1.8025 
       0.809972         1.93557         1.77223 
       0.816124         1.90522         1.74258 
       0.822261         1.87716          1.7137 
       0.828378         1.84437         1.68556 
       0.834502         1.81718         1.65803 
       0.840667         1.79356         1.63094 
       0.846816         1.76445         1.60454 
       0.852925         1.73306         1.57889 
       0.859047         1.70875         1.55375 
       0.865192         1.68475         1.52908 
       0.871341         1.66175         1.50494 
       0.877463         1.63174         1.48143 
       0.883569         1.60938         1.45848 
       0.889708         1.59002         1.43591 
       0.895864         1.56711         1.41376 
       0.902008         1.54029         1.39213 
       0.908149         1.52119         1.37097 
       0.914301         1.50354         1.35021 
       0.920448         1.48195         1.32991 
       0.926574         1.46514         1.31009 
       0.932687         1.44254         1.29073 
       0.938823         1.41723         1.27169 
       0.944975         1.40233         1.25299 
       0.951105         1.37689         1.23474 
       0.957225         1.35968         1.21688 
       0.963368         1.34499         1.19932 
       0.969511         1.32917         1.18211 
       0.975621         1.30821         1.16533 
       0.981748         1.28549         1.14883 
       0.987916         1.27104         1.13256 
        0.99406         1.25824         1.11666 
        1.00019          1.2404          1.1011 
        1.00632         1.22874         1.08585 
        1.01246         1.21098         1.07087 
        1.01859         1.19607         1.05619 
        1.02471          1.1762         1.04182 
        1.03085         1.16135         1.02766 
        1.03698         1.15031         1.01379 
        1.04314         1.13604         1.00013 
        1.04929         1.12461        0.986748 
        1.05541         1.10512        0.973667 
        1.06154         1.09515        0.960793 
        1.06769         1.08271        0.948133 
        1.07382         1.06875        0.935744 
        1.07993         1.05603        0.923605 
        1.08607         1.04353        0.911633 
        1.09222         1.02892        0.899862 
        1.09836         1.01896        0.888313 
        1.10449         1.00431        0.876981 
        1.11063        0.992281        0.865835 
        1.11677        0.983686        0.854887 
         1.1229        0.967968        0.844148 
        1.12903        0.960295        0.833586 
        1.13518        0.947342        0.823196 
        1.14131        0.938304        0.812989 
        1.14745         0.92967        0.802962 
        1.15359        0.916862        0.793103 
        1.15973        0.907829        0.783407 
        1.16584        0.895671        0.773916 
        1.17197         0.88519         0.76457 
        1.17811        0.875038         0.75535 
        1.18424        0.865576        0.746309 
        1.19038        0.854953        0.737391 
        1.19652        0.849383        0.728623 
        1.20267        0.840482        0.719998 
        1.20881        0.827306        0.711515 
        1.21495        0.820256        0.703182 
        1.22108        0.812169        0.694985 
         1.2272        0.801134        0.686939 
        1.23334        0.793853        0.679001 
        1.23949        0.787414        0.671171 
        1.24562        0.778298        0.663487 
        1.25174        0.769854        0.655935 
        1.25789        0.759733        0.648478 
        1.26402        0.753179         0.64115 
        1.27014        0.743524        0.633954 
        1.27628        0.738256        0.626847 
        1.28244        0.731022        0.619836 
        1.28858        0.721506        0.612942 
        1.29471        0.714713        0.606169 
        1.30084        0.707777        0.599504 
        1.30697        0.702699         0.59293 
        1.31312        0.695025        0.586446 
        1.31925        0.687584        0.580079 
        1.32537         0.68119        0.573813 
        1.33151        0.673798        0.567618 
        1.33765        0.667213        0.561518 
        1.34378        0.659098        0.555519 
        1.34992        0.655929        0.549605 
        1.35606        0.647654        0.543764 
         1.3622        0.641991        0.538018 
        1.36833        0.636812         0.53237 
        1.37445        0.630892        0.526805 
        1.38059         0.62424        0.521303 
        1.38675        0.617569        0.515867 
        1.39288        0.610867         0.51053 
        1.39901         0.60706        0.505271 
        1.40515        0.600508        0.500075 
         1.4113        0.596934        0.494954 
        1.41742        0.590085        0.489924 
        1.42355        0.582537        0.484955 
         1.4297        0.580165         0.48004 
        1.43585        0.573039        0.475196 
        1.44198        0.568776        0.470437 
        1.44809        0.562539        0.465752 
        1.45423        0.558706        0.461114 
        1.46036        0.553186        0.456548 
        1.46649        0.547954        0.452042 
        1.47263        0.542021        0.447593 
        1.47877        0.540341        0.443206 
        1.48491        0.532231        0.438872 
        1.49104        0.530563        0.434605 
        1.49718        0.524107        0.430391 
        1.50333        0.520527        0.426227 
        1.50947        0.516434        0.422126 
         1.5156        0.511151        0.418086 
        1.52172        0.507407        0.414099 
        1.52787        0.501239        0.410155 
          1.534        0.498701        0.406268 
        1.54013        0.494358        0.402436 
        1.54627        0.490071        0.398646 
        1.55241         0.48531        0.394904 
        1.55855        0.481525        0.391216 
        1.56467        0.477839        0.387585 
         1.5708        0.473158         0.38399 
        1.57695        0.469207        0.380435 
        1.58308        0.463828        0.376933 
        1.58922         0.46208        0.373473 
        1.59535        0.457158        0.370058 
         1.6015        0.453842         0.36668 
        1.60764        0.449986        0.363347 
        1.61376        0.446314        0.360064 
        1.61989        0.442439        0.356819 
        1.62604        0.438662        0.353608 
        1.63218         0.43628        0.350437 
        1.63831        0.431716        0.347313 
        1.64444         0.42877        0.344226 
        1.65059        0.424555        0.341169 
        1.65673        0.421616        0.338153 
        1.66285        0.419005        0.335181 
        1.66898        0.415058        0.332245 
        1.67512         0.41147        0.329337 
        1.68127        0.407894        0.326463 
         1.6874          0.4055        0.323628 
        1.69353        0.402131         0.32083 
        1.69967        0.398681        0.318057 
        1.70581        0.396521        0.315319 
        1.71193         0.39366        0.312624 
        1.71806        0.390171        0.309954 
        1.72421        0.387033         0.30731 
        1.73035        0.383541          0.3047 
        1.73649        0.382006        0.302121 
        1.74262        0.377779        0.299574 
        1.74876        0.375839        0.297055 
        1.75489        0.373035         0.29457 
        1.76101        0.369659        0.292114 
        1.76715        0.367407        0.289682 
        1.77329        0.364229        0.287276 
        1.77943        0.361416        0.284896 
        1.78557        0.359933        0.282546 
        1.79171        0.356999        0.280222 
        1.79785        0.353785        0.277924 
        1.80399        0.350527        0.275653 
        1.81012        0.349002        0.273409 
        1.81625        0.346855        0.271192 
        1.82239        0.344582        0.268996 
        1.82853        0.341267        0.266826 
        1.83466        0.338698        0.264681 
        1.84078        0.336189        0.262562 
        1.84692        0.334015        0.260463 
        1.85306         0.33189        0.258385 
         1.8592        0.329413        0.256332 
        1.86533        0.327458        0.254303 
        1.87147        0.324614        0.252294 
        1.87761        0.322345        0.250305 
        1.88375        0.319996         0.24834 
        1.88988        0.317652        0.246399 
        1.89601         0.31479        0.244477 
        1.90215        0.313316        0.242574 
        1.90829        0.310694        0.240692 
        1.91442        0.309373         0.23883 
        1.92056        0.307707         0.23699 
         1.9267        0.304858        0.235167 
        1.93284        0.302346        0.233362 
        1.93897        0.300865        0.231579 
        1.94509        0.298919        0.229819 
        1.95123         0.29638        0.228073 
        1.95737        0.294712        0.226344 
        1.96349        0.292616        0.224637 
        1.96964        0.290516        0.222943 
        1.97578         0.28843        0.221265 
        1.98192         0.28719        0.219608 
        1.98805        0.285364        0.217968 
        1.99419         0.28378        0.216345 
        2.00033        0.281439        0.214737 
        2.00647        0.279483        0.213146 
         2.0126        0.277917        0.211574 
        2.01874        0.276275        0.210016 
        2.02488        0.274351        0.208472 
        2.03101        0.272162        0.206946 
        2.03714        0.271415        0.205437 
        2.04328        0.268618        0.203941 
        2.04941        0.267675        0.202461 
        2.05554        0.265894        0.200998 
        2.06167        0.264033        0.199546 
        2.06781        0.261499        0.198109 
        2.07396        0.260666        0.196684 
        2.08009        0.258901        0.195275 
        2.08622        0.257553        0.193882 
        2.09237        0.255719        0.192499 
        2.09851        0.253768         0.19113 
        2.10464        0.252431        0.189777 
        2.11077        0.250633        0.188438 
        2.11691        0.249448        0.187109 
        2.12305        0.247349        0.185793 
        2.12918        0.245972        0.184492 
        2.13531          0.2448        0.183204 
        2.14145        0.243094        0.181926 
         2.1476        0.241852        0.180658 
        2.15372        0.240366        0.179408 
        2.15985        0.238593        0.178169 
        2.16599        0.237114        0.176938 
        2.17213        0.236122         0.17572 
        2.17827        0.234411        0.174514 
         2.1844        0.233264        0.173321 
        2.19054        0.232006        0.172138 
        2.19666        0.230597        0.170968 
         2.2028        0.228599        0.169807 
        2.20893         0.22768        0.168657 
        2.21508        0.226314        0.167516 
        2.22122         0.22524        0.166386 
        2.22736        0.223458        0.165268 
        2.23349        0.222018         0.16416 
        2.23962        0.220914        0.163063 
        2.24577        0.219872        0.161974 
         2.2519        0.218513        0.160897 
        2.25802        0.217189        0.159831 
        2.26417        0.216196        0.158772 
        2.27031        0.214617        0.157722 
        2.27644        0.214115        0.156684 
        2.28257        0.212424        0.155655 
        2.28872          0.2112        0.154634 
        2.29486        0.210064        0.153622 
        2.30099        0.208662        0.152622 
        2.30712        0.207627        0.151629 
        2.31326        0.206218        0.150644 
         2.3194        0.205394        0.149669 
        2.32553        0.204312        0.148703 
        2.33166        0.203057        0.147747 
         2.3378        0.201881        0.146797 
        2.34394        0.200844        0.145856 
        2.35007        0.199699        0.144924 
        2.35619        0.198829        0.144002 
        2.36233        0.197322        0.143085 
        2.36848        0.196496        0.142174 
        2.37462        0.195726        0.141274 
        2.38075        0.194441        0.140382 
        2.38689         0.19347        0.139496 
        2.39303        0.192402        0.138619 
        2.39916        0.191172         0.13775 
        2.40529        0.190222        0.136889 
        2.41143        0.188843        0.136034 
        2.41757         0.18808        0.135187 
         2.4237        0.187221        0.134348 
        2.42983        0.186555        0.133516 
        2.43598        0.185141        0.132689 
        2.44211        0.183678         0.13187 
        2.44823        0.183469         0.13106 
        2.45437        0.182387        0.130255 
        2.46052        0.181412        0.129456 
        2.46665        0.180296        0.128665 
        2.47279        0.179301        0.127881 
        2.47892        0.178865        0.127103 
        2.48507        0.177478         0.12633 
         2.4912        0.176879        0.125566 
