# k  (h/Mpc)    P(k)  (Mpc/h)^3    P_linear(k)  (Mpc/h)^3
     0.00783031         6506.35         6556.92 
       0.013688         8236.44         8406.44 
       0.019231         8749.46         8851.39 
      0.0249154         8524.17         8529.43 
      0.0312784         7649.15          7714.1 
      0.0375637         6702.88          6797.1 
      0.0433917         6004.97         6035.31 
      0.0492413         5361.18         5426.34 
      0.0555754         4914.75         4939.88 
      0.0619321         4449.34         4581.95 
       0.067871          4232.7         4305.71 
      0.0738098         3983.89         4036.89 
      0.0800417         3692.32          3733.1 
      0.0862327         3352.14          3405.9 
      0.0921407          3045.9         3086.71 
      0.0982031         2770.65         2777.41 
       0.104506         2468.81         2499.21 
       0.110769         2264.81         2279.35 
       0.116806         2144.91         2120.18 
       0.122832         2004.67         2002.47 
       0.129052         1914.53         1907.51 
       0.135211         1852.49         1822.62 
       0.141259         1741.71         1735.05 
       0.147318          1623.1          1636.9 
       0.153489         1531.68         1527.13 
       0.159709         1450.51         1413.11 
       0.165845         1318.62         1305.95 
       0.171974         1270.95         1211.58 
       0.178125         1207.34         1133.59 
       0.184229         1119.82         1072.87 
        0.19034         1093.69         1025.61 
       0.196428         1059.15         987.004 
       0.202534         997.375         951.443 
       0.208729         980.204         914.171 
       0.214876         943.626         873.653 
       0.220989           884.3         829.846 
       0.227147         862.071         784.022 
        0.23329         826.024         739.356 
       0.239377          805.54         698.697 
       0.245482          762.32         663.162 
       0.251667         731.295         633.001 
       0.257832         722.394         608.113 
       0.263955         685.007         587.017 
       0.270079         663.885         567.769 
        0.27624         637.227         548.708 
       0.282372         624.034         529.003 
        0.28843         619.386         508.567 
       0.294538         588.255         487.314 
       0.300721         568.614         465.943 
        0.30691          558.81         445.563 
       0.313033         534.662         427.107 
       0.319153         525.227         410.684 
       0.325316         513.996         396.145 
        0.33145         502.381         383.299 
       0.337538          485.24         371.619 
       0.343633         471.146          360.44 
       0.349808         459.279         349.233 
       0.355968           450.3         337.912 
       0.362074         437.809         326.592 
       0.368217         433.231         315.245 
       0.374374         424.106         304.196 
       0.380519         407.201          293.74 
       0.386598         401.794         284.112 
       0.392688         393.034          275.26 
        0.39888         383.037          266.98 
       0.405048         376.627         259.327 
       0.411186         373.798         252.117 
       0.417313         367.568         245.142 
       0.423458         357.425         238.269 
       0.429607         349.243         231.465 
       0.435692         343.062         224.807 
       0.441815         337.192         218.259 
       0.447964         328.995          211.91 
       0.454126         324.347         205.833 
       0.460267         320.083          200.11 
       0.466387         314.449         194.742 
        0.47254         310.416         189.637 
       0.478662          302.03         184.803 
       0.484765         298.708         180.175 
       0.490885         294.964         175.674 
       0.497035         290.866         171.248 
       0.503198         288.247         166.909 
       0.509342         280.583         162.689 
       0.515458         277.487         158.602 
       0.521598         271.679         154.632 
       0.527764         268.449           150.8 
       0.533884         267.933         147.161 
           0.54         262.273         143.678 
       0.546137         256.618         140.321 
       0.552299         255.261         137.075 
       0.558452         251.004         133.942 
       0.564573         249.144         130.917 
       0.570708         244.282         127.963 
       0.576825         240.774         125.089 
       0.582926         238.296         122.298 
       0.589034         235.266         119.584 
       0.595184         233.634         116.937 
       0.601379         228.942         114.359 
       0.607522         225.175         111.886 
       0.613639         223.607         109.504 
       0.619772         221.696         107.195 
       0.625918         219.644         104.954 
       0.632068         215.062         102.778 
       0.638161         213.018         100.682 
         0.6443         211.977         98.6232 
       0.650464         208.245          96.609 
       0.656582         206.961         94.6622 
       0.662703         205.137         92.7675 
       0.668861          201.32         90.9153 
       0.675024         201.158         89.1153 
       0.681124         198.304          87.385 
       0.687237         195.787         85.6991 
       0.693381          194.38         84.0513 
       0.699536         191.996         82.4446 
       0.705665         189.812         80.8871 
       0.711789         187.856         79.3714 
       0.717957         185.866         77.8841 
        0.72409         184.522         76.4432 
       0.730186         184.313         75.0473 
       0.736317         181.138         73.6784 
       0.742472         178.883         72.3386 
       0.748622         176.376         71.0334 
        0.75476         176.885         69.7633 
       0.760888         175.024         68.5266 
       0.767043         172.383         67.3155 
       0.773185         170.746         66.1368 
       0.779291         168.734         64.9936 
       0.785407          167.55         63.8762 
       0.791564         166.434         62.7785 
       0.797719         164.338         61.7073 
       0.803834         164.182         60.6681 
       0.809972         163.155         59.6491 
       0.816124         160.903         58.6514 
       0.822261         159.299         57.6793 
       0.828378         159.233         56.7321 
       0.834502         156.535         55.8055 
       0.840667         156.088         54.8938 
       0.846816         154.655         54.0051 
       0.852925         153.137         53.1418 
       0.859047         151.877         52.2957 
       0.865192         150.954         51.4655 
       0.871341         149.198         50.6528 
       0.877463         148.208         49.8615 
       0.883569         148.009         49.0893 
       0.889708         146.795         48.3296 
       0.895864         145.336         47.5841 
       0.902008         144.144          46.856 
       0.908149         142.342         46.1436 
       0.914301         142.495          45.445 
       0.920448          141.55         44.7616 
       0.926574         139.416         44.0948 
       0.932687         139.178          43.443 
       0.938823         138.087         42.8022 
       0.944975         136.607         42.1728 
       0.951105         135.643         41.5585 
       0.957225         135.516         40.9575 
       0.963368         133.944         40.3665 
       0.969511         132.832         39.7871 
       0.975621         131.872         39.2223 
       0.981748         130.815         38.6671 
       0.987916         130.139         38.1193 
        0.99406         129.513         37.5841 
        1.00019         128.245         37.0604 
        1.00632         127.617         36.5471 
        1.01246         126.732         36.0429 
        1.01859         126.027         35.5491 
        1.02471         125.022         35.0651 
        1.03085         123.973         34.5886 
        1.03698         123.269          34.122 
        1.04314         122.522          33.662 
        1.04929         122.098         33.2117 
        1.05541         121.258         32.7714 
        1.06154         120.486         32.3381 
        1.06769         119.392          31.912 
        1.07382         118.578          31.495 
        1.07993         118.117         31.0864 
        1.08607         117.091         30.6835 
        1.09222         116.796         30.2873 
        1.09836         115.535         29.8986 
        1.10449         114.942         29.5172 
        1.11063         114.237          29.142 
        1.11677         113.535         28.7735 
         1.1229         112.717         28.4121 
        1.12903         112.372         28.0566 
        1.13518         111.719         27.7069 
        1.14131         110.998         27.3633 
        1.14745         110.193         27.0259 
        1.15359         109.059          26.694 
        1.15973         108.813         26.3677 
        1.16584         108.111         26.0482 
        1.17197         107.497         25.7337 
        1.17811         106.746         25.4233 
        1.18424         105.996         25.1191 
        1.19038         105.916         24.8189 
        1.19652         105.063         24.5238 
        1.20267          104.34         24.2335 
        1.20881         103.756         23.9479 
        1.21495          103.28         23.6675 
        1.22108          102.69         23.3916 
         1.2272         101.788         23.1208 
        1.23334         101.536         22.8536 
        1.23949         100.936         22.5901 
        1.24562          100.08         22.3314 
        1.25174         99.4667         22.0772 
        1.25789         99.4646         21.8263 
        1.26402          98.623         21.5796 
        1.27014         98.1746         21.3374 
        1.27628         97.2489         21.0982 
        1.28244         97.0427         20.8622 
        1.28858         96.3702         20.6302 
        1.29471         95.8191         20.4022 
        1.30084         95.1514         20.1779 
        1.30697         95.1245         19.9567 
        1.31312         94.3076         19.7384 
        1.31925         93.7876         19.5241 
        1.32537         93.2679         19.3132 
        1.33151         93.0878         19.1047 
        1.33765         92.2827         18.8994 
        1.34378         92.0408         18.6975 
        1.34992          91.538         18.4984 
        1.35606         90.9211         18.3018 
         1.3622         90.5784         18.1084 
        1.36833         89.8113         17.9183 
        1.37445         89.2059          17.731 
        1.38059          88.998         17.5458 
        1.38675         88.1792         17.3629 
        1.39288         88.1382         17.1832 
        1.39901         87.2363         17.0062 
        1.40515         87.0285         16.8313 
         1.4113         86.6746          16.659 
        1.41742         86.1098         16.4897 
        1.42355         85.6451         16.3225 
         1.4297          85.172          16.157 
        1.43585         84.6495          15.994 
        1.44198         84.2616         15.8338 
        1.44809         83.7379         15.6761 
        1.45423         83.3363           15.52 
        1.46036         82.7288         15.3663 
        1.46649         82.5229         15.2147 
        1.47263         82.0969         15.0649 
        1.47877         81.7648         14.9173 
        1.48491          81.259         14.7714 
        1.49104         80.6362         14.6278 
        1.49718         80.3953         14.4859 
        1.50333         79.9451         14.3458 
        1.50947         79.6698         14.2078 
         1.5156         79.2918         14.0718 
        1.52172         78.7329         13.9376 
        1.52787         78.2604         13.8049 
          1.534         78.0296          13.674 
        1.54013         77.7049          13.545 
        1.54627         77.0112         13.4175 
        1.55241         76.6192         13.2915 
        1.55855         76.4272         13.1674 
        1.56467         75.7043         13.0452 
         1.5708         75.5916         12.9242 
        1.57695         75.1605         12.8045 
        1.58308         74.7581         12.6867 
        1.58922         74.4209         12.5702 
        1.59535         74.1894         12.4553 
         1.6015         74.0123         12.3416 
        1.60764         73.5513         12.2294 
        1.61376         73.0273         12.1189 
        1.61989         72.4452         12.0097 
        1.62604          72.275         11.9016 
        1.63218         71.9875         11.7949 
        1.63831         71.6955         11.6897 
        1.64444         71.3413         11.5858 
        1.65059         70.9853         11.4829 
        1.65673         70.4151         11.3814 
        1.66285         70.1576         11.2814 
        1.66898         69.6143         11.1826 
        1.67512         69.5598         11.0847 
        1.68127         69.1631          10.988 
         1.6874         68.7086         10.8926 
        1.69353         68.5069         10.7984 
        1.69967         68.1791         10.7051 
        1.70581         67.8102         10.6129 
        1.71193         67.4543         10.5222 
        1.71806           67.03         10.4323 
        1.72421          66.868         10.3433 
        1.73035          66.586         10.2555 
        1.73649         66.1539         10.1687 
        1.74262         65.6481         10.0829 
        1.74876         65.5077         9.99815 
        1.75489         65.0249         9.91451 
        1.76101         64.7509         9.83185 
        1.76715         64.7587         9.75001 
        1.77329         64.0806         9.66902 
        1.77943         64.0052          9.5889 
        1.78557         63.7502         9.50982 
        1.79171         63.3368         9.43161 
        1.79785         63.0377         9.35427 
        1.80399         62.7087         9.27781 
        1.81012         62.4178         9.20231 
        1.81625          62.139         9.12768 
        1.82239         61.8674         9.05376 
        1.82853          61.551          8.9807 
        1.83466         61.2453         8.90852 
        1.84078         60.9168         8.83721 
        1.84692         60.6547         8.76657 
        1.85306         60.3676         8.69661 
         1.8592         60.1873         8.62752 
        1.86533         59.7337         8.55923 
        1.87147         59.5122         8.49159 
        1.87761         59.1498         8.42466 
        1.88375         58.9388         8.35853 
        1.88988         58.7074         8.29318 
        1.89601         58.3332         8.22849 
        1.90215         58.0676         8.16445 
        1.90829         57.8702         8.10111 
        1.91442         57.5362         8.03845 
        1.92056         57.2704          7.9765 
         1.9267         57.0216         7.91514 
        1.93284         56.8189         7.85439 
        1.93897         56.5778          7.7944 
        1.94509         56.1103         7.73516 
        1.95123         55.8717         7.67639 
        1.95737         55.5554         7.61818 
        1.96349         55.3885         7.56073 
        1.96964          55.105         7.50371 
        1.97578         54.8846         7.44725 
        1.98192         54.6111         7.39148 
        1.98805         54.3678         7.33628 
        1.99419         54.1099         7.28164 
        2.00033         53.8945         7.22753 
        2.00647         53.6592         7.17399 
         2.0126         53.3056         7.12108 
        2.01874         53.0915         7.06862 
        2.02488         52.8149         7.01665 
        2.03101         52.6073         6.96529 
        2.03714         52.3722          6.9145 
        2.04328         52.1286         6.86416 
        2.04941         51.8273         6.81436 
        2.05554         51.7197         6.76509 
        2.06167         51.5173         6.71624 
        2.06781           51.05         6.66786 
        2.07396          50.865          6.6199 
        2.08009         50.7611         6.57248 
        2.08622         50.4633         6.52559 
        2.09237         50.2266         6.47906 
        2.09851         49.9623         6.43297 
        2.10464         49.7317         6.38741 
        2.11077         49.5476         6.34235 
        2.11691         49.2182         6.29762 
        2.12305         49.0272         6.25332 
        2.12918         48.8156         6.20956 
        2.13531         48.6702          6.1662 
        2.14145         48.3504         6.12317 
         2.1476         48.1467         6.08049 
        2.15372         48.0384         6.03843 
        2.15985         47.6592         5.99673 
        2.16599         47.5107         5.95531 
        2.17213          47.289         5.91432 
        2.17827         47.0273         5.87373 
         2.1844         46.8032         5.83355 
        2.19054         46.5948         5.79373 
        2.19666         46.3511         5.75435 
         2.2028         46.1313         5.71529 
        2.20893         45.9108         5.67658 
        2.21508         45.7511         5.63818 
        2.22122         45.5324         5.60013 
        2.22736         45.2441         5.56251 
        2.23349         45.1286         5.52524 
        2.23962         44.8806         5.48829 
        2.24577         44.7271         5.45165 
         2.2519         44.4263         5.41539 
        2.25802         44.3253         5.37952 
        2.26417         44.0892         5.34387 
        2.27031         43.9151         5.30852 
        2.27644         43.7628         5.27359 
        2.28257         43.3427         5.23897 
        2.28872         43.3839          5.2046 
        2.29486         43.1107         5.17055 
        2.30099         42.8455         5.13687 
        2.30712         42.7577         5.10347 
        2.31326         42.4617         5.07032 
         2.3194         42.2538         5.03748 
        2.32553         42.1288         5.00498 
        2.33166         41.8494         4.97279 
         2.3378         41.6969         4.94083 
        2.34394         41.5295         4.90915 
        2.35007          41.311         4.87779 
        2.35619         41.2533         4.84674 
        2.36233         40.9205         4.81588 
        2.36848         40.7752         4.78524 
        2.37462         40.6137         4.75492 
        2.38075         40.4908         4.72489 
        2.38689         40.3006          4.6951 
        2.39303         40.1249         4.66557 
        2.39916          39.815         4.63633 
        2.40529         39.6476         4.60734 
        2.41143         39.5072         4.57857 
        2.41757         39.3735         4.55004 
         2.4237         39.1843          4.5218 
        2.42983         38.9929         4.49381 
        2.43598          38.855         4.46597 
        2.44211         38.6713         4.43842 
        2.44823         38.4278         4.41117 
        2.45437         38.3445         4.38406 
        2.46052         38.0828         4.35717 
        2.46665         37.9306         4.33054 
        2.47279         37.6944         4.30415 
        2.47892         37.6195         4.27796 
        2.48507         37.4567         4.25196 
         2.4912         37.2922         4.22623 
