# k  (h/Mpc)    Pcb(k)  (Mpc/h)^3    Pcb_linear(k)  (Mpc/h)^3
     0.00783031         1060.71         1069.92 
       0.013688         1418.01         1418.86 
       0.019231         1535.39         1535.79 
      0.0249154         1509.78         1519.72 
      0.0312784         1411.03         1414.55 
      0.0375637         1281.79         1280.64 
      0.0433917         1158.57          1163.1 
      0.0492413         1064.63         1065.37 
      0.0555754         977.536          983.89 
      0.0619321         923.263         920.487 
       0.067871         864.036         868.731 
      0.0738098         811.397         816.798 
      0.0800417         750.197         758.033 
      0.0862327         690.839         695.651 
      0.0921407         633.116         635.796 
      0.0982031         574.595         578.545 
       0.104506         528.459         527.411 
       0.110769         487.644         486.863 
       0.116806          454.84         456.893 
       0.122832         433.892         433.678 
       0.129052          411.09         413.611 
       0.135211         391.743         394.615 
       0.141259         373.947         374.811 
       0.147318         353.916         353.181 
       0.153489         329.305         329.916 
       0.159709         307.135         306.666 
       0.165845         289.108         285.496 
       0.171974         268.725         267.245 
       0.178125          254.35         252.254 
       0.184229         243.459         240.376 
        0.19034         230.921         230.663 
       0.196428         224.388         222.121 
       0.202534         217.727         213.736 
       0.208729         207.641         204.768 
       0.214876         196.765         195.219 
       0.220989          189.64         185.304 
       0.227147         177.547         175.382 
        0.23329         168.849         166.088 
       0.239377         161.783         157.873 
       0.245482         153.297         150.796 
       0.251667         149.163         144.744 
       0.257832         143.845         139.567 
       0.263955          139.07         134.915 
       0.270079          134.71         130.419 
        0.27624          131.35         125.814 
       0.282372         126.356         121.059 
        0.28843         121.055         116.245 
       0.294538         116.337         111.416 
       0.300721         112.932         106.738 
        0.30691         107.819         102.413 
       0.313033         104.267         98.5709 
       0.319153         99.5481         95.1562 
       0.325316         98.0066          92.079 
        0.33145         94.7382         89.2578 
       0.337538         92.4312         86.5839 
       0.343633         89.5107         83.9385 
       0.349808         87.0256         81.2488 
       0.355968         84.4652         78.5506 
       0.362074          81.792         75.9041 
       0.368217         79.4293         73.3237 
       0.374374         76.8159          70.871 
       0.380519         74.8385         68.5954 
       0.386598         72.8344         66.5156 
       0.392688         71.2768         64.5912 
        0.39888         69.2837         62.7616 
       0.405048         67.7553         61.0241 
       0.411186         66.2839         59.3471 
       0.417313         64.0872         57.6994 
       0.423458          62.609          56.066 
       0.429607         60.8825         54.4602 
       0.435692         59.0845          52.912 
       0.441815         58.0524         51.4112 
       0.447964         57.0812         49.9781 
       0.454126         54.9633         48.6203 
       0.460267         53.9054         47.3412 
       0.466387         52.4071         46.1335 
        0.47254         51.6664         44.9727 
       0.478662         50.7188         43.8563 
       0.484765         49.3832         42.7726 
       0.490885         48.2457         41.7113 
       0.497035         47.6188         40.6681 
       0.503198         46.4324         39.6484 
       0.509342         45.2858         38.6632 
       0.515458         44.3558         37.7187 
       0.521598         43.6255         36.8086 
       0.527764         42.7084         35.9318 
       0.533884         41.9663         35.0974 
           0.54         41.1701         34.2961 
       0.546137         40.4754         33.5194 
       0.552299         39.8352         32.7622 
       0.558452         38.6205         32.0257 
       0.564573         38.1416         31.3119 
       0.570708         37.5378         30.6157 
       0.576825         36.5834         29.9408 
       0.582926         36.0003         29.2875 
       0.589034         35.0263         28.6536 
       0.595184         34.5791         28.0365 
       0.601379         33.9902         27.4364 
       0.607522          33.426         26.8613 
       0.613639         33.1107         26.3062 
       0.619772         32.2641         25.7656 
       0.625918         32.0847         25.2382 
       0.632068         31.5517         24.7243 
       0.638161         30.8965         24.2287 
         0.6443         30.2927         23.7427 
       0.650464         29.7676         23.2681 
       0.656582         29.5731         22.8099 
       0.662703         29.0454         22.3642 
       0.668861         28.5379         21.9282 
       0.675024         28.0399         21.5042 
       0.681124         27.5785         21.0963 
       0.687237         27.1603         20.6987 
       0.693381         26.8969         20.3099 
       0.699536         26.2078         19.9304 
       0.705665          26.048         19.5622 
       0.711789         25.5823         19.2033 
       0.717957         25.2353         18.8507 
        0.72409         24.8494         18.5087 
       0.730186         24.5423         18.1773 
       0.736317         24.2907         17.8523 
       0.742472         23.9004         17.5343 
       0.748622         23.6058         17.2247 
        0.75476         23.1485         16.9234 
       0.760888         22.9171         16.6301 
       0.767043         22.6452         16.3426 
       0.773185         22.2183         16.0627 
       0.779291         22.0824         15.7909 
       0.785407         21.7731         15.5249 
       0.791564         21.4038         15.2633 
       0.797719         21.0608         15.0079 
       0.803834         20.9541           14.76 
       0.809972         20.7794         14.5168 
       0.816124         20.3069         14.2786 
       0.822261         20.1415         14.0465 
       0.828378         19.8978         13.8203 
       0.834502          19.703          13.599 
       0.840667         19.4353         13.3812 
       0.846816         19.1172         13.1689 
       0.852925         18.9517         12.9625 
       0.859047         18.7382         12.7602 
       0.865192         18.5858         12.5616 
       0.871341         18.4169         12.3671 
       0.877463         18.1234         12.1777 
       0.883569         17.8618         11.9927 
       0.889708         17.6016         11.8106 
       0.895864         17.5181         11.6319 
       0.902008         17.3497         11.4573 
       0.908149         17.1605         11.2864 
       0.914301         16.9797         11.1187 
       0.920448         16.6912         10.9547 
       0.926574         16.5444         10.7945 
       0.932687         16.4087         10.6379 
       0.938823         16.1896         10.4839 
       0.944975         15.9929         10.3326 
       0.951105         15.8792         10.1849 
       0.957225         15.7616         10.0403 
       0.963368         15.5749         9.89808 
       0.969511         15.4428         9.75862 
       0.975621         15.2765         9.62262 
       0.981748          15.115         9.48888 
       0.987916         14.9946         9.35685 
        0.99406         14.7848         9.22786 
        1.00019         14.5667         9.10156 
        1.00632         14.5724         8.97777 
        1.01246         14.4058          8.8561 
        1.01859         14.2035         8.73691 
        1.02471         14.1127         8.62007 
        1.03085         13.9924         8.50499 
        1.03698         13.7921         8.39226 
        1.04314         13.7096         8.28111 
        1.04929         13.5292         8.17225 
        1.05541         13.4031          8.0658 
        1.06154         13.2938         7.96099 
        1.06769         13.2428          7.8579 
        1.07382         13.0438         7.75699 
        1.07993         12.9533         7.65809 
        1.08607         12.8486         7.56052 
        1.09222         12.7362         7.46456 
        1.09836         12.6062          7.3704 
        1.10449         12.5028         7.27798 
        1.11063         12.4081         7.18705 
        1.11677         12.3178         7.09772 
         1.1229         12.2225         7.01008 
        1.12903         12.1066         6.92384 
        1.13518         11.9687           6.839 
        1.14131         11.8621         6.75564 
        1.14745          11.754         6.67372 
        1.15359         11.6877         6.59315 
        1.15973            11.6         6.51389 
        1.16584          11.444          6.4363 
        1.17197         11.3736         6.35987 
        1.17811         11.3127         6.28445 
        1.18424         11.2313         6.21048 
        1.19038         11.1638          6.1375 
        1.19652         11.0554         6.06572 
        1.20267          10.924          5.9951 
        1.20881         10.9035         5.92562 
        1.21495         10.8098         5.85736 
        1.22108          10.689         5.79019 
         1.2272         10.6434         5.72424 
        1.23334         10.5098         5.65917 
        1.23949         10.4425         5.59496 
        1.24562          10.401         5.53193 
        1.25174         10.2946         5.46998 
        1.25789         10.2302         5.40878 
        1.26402         10.1683         5.34864 
        1.27014         10.0821         5.28957 
        1.27628         9.99432         5.23121 
        1.28244         9.89415         5.17363 
        1.28858          9.8778           5.117 
        1.29471         9.78035         5.06134 
        1.30084         9.69023         5.00657 
        1.30697          9.6959         4.95253 
        1.31312         9.52226         4.89921 
        1.31925         9.49429         4.84685 
        1.32537         9.42538         4.79531 
        1.33151         9.38787         4.74434 
        1.33765         9.28194         4.69414 
        1.34378         9.21307         4.64477 
        1.34992         9.16918         4.59609 
        1.35606         9.09818           4.548 
         1.3622         9.05233         4.50068 
        1.36833         8.99019         4.45416 
        1.37445          8.9351         4.40832 
        1.38059          8.8967         4.36299 
        1.38675         8.81901         4.31819 
        1.39288         8.75719          4.2742 
        1.39901         8.67361         4.23085 
        1.40515         8.64297           4.188 
         1.4113         8.59172         4.14577 
        1.41742         8.53318         4.10428 
        1.42355         8.46237         4.06329 
         1.4297         8.39485         4.02273 
        1.43585         8.37393         3.98275 
        1.44198          8.3473         3.94347 
        1.44809          8.2527         3.90479 
        1.45423         8.19783         3.86649 
        1.46036         8.15276         3.82877 
        1.46649         8.08658         3.79155 
        1.47263         8.03342          3.7548 
        1.47877         7.98499         3.71855 
        1.48491         7.93922         3.68272 
        1.49104         7.90273         3.64744 
        1.49718         7.85267          3.6126 
        1.50333          7.8054         3.57816 
        1.50947         7.75543         3.54424 
         1.5156         7.71184         3.51082 
        1.52172         7.67206         3.47782 
        1.52787         7.62537         3.44519 
          1.534         7.56984         3.41301 
        1.54013         7.54277         3.38128 
        1.54627         7.47229          3.3499 
        1.55241         7.43722         3.31891 
        1.55855         7.40769         3.28836 
        1.56467         7.35312         3.25828 
         1.5708         7.31808         3.22849 
        1.57695         7.25739         3.19904 
        1.58308         7.21655         3.17001 
        1.58922         7.19768         3.14133 
        1.59535         7.15795         3.11302 
         1.6015         7.10792         3.08502 
        1.60764          7.0657         3.05738 
        1.61376         7.02711         3.03015 
        1.61989         6.99678         3.00323 
        1.62604         6.94485         2.97659 
        1.63218         6.92754         2.95028 
        1.63831          6.8884         2.92435 
        1.64444         6.85042         2.89873 
        1.65059         6.78265         2.87335 
        1.65673         6.76708         2.84831 
        1.66285         6.71052         2.82363 
        1.66898         6.69368         2.79924 
        1.67512         6.65105          2.7751 
        1.68127         6.61856         2.75121 
         1.6874          6.5895         2.72766 
        1.69353         6.54176         2.70441 
        1.69967         6.51438         2.68137 
        1.70581         6.47773         2.65861 
        1.71193         6.45278          2.6362 
        1.71806          6.4217           2.614 
        1.72421         6.37728         2.59201 
        1.73035         6.35788          2.5703 
        1.73649          6.3197         2.54885 
        1.74262         6.27122         2.52766 
        1.74876         6.26793         2.50669 
        1.75489         6.23798         2.48601 
        1.76101         6.18455         2.46557 
        1.76715         6.16201         2.44533 
        1.77329         6.13588         2.42529 
        1.77943          6.0829         2.40547 
        1.78557         6.07728          2.3859 
        1.79171         6.03023         2.36654 
        1.79785         6.00633          2.3474 
        1.80399         5.97513         2.32847 
        1.81012         5.95602         2.30978 
        1.81625          5.9134          2.2913 
        1.82239          5.8903           2.273 
        1.82853         5.86519         2.25491 
        1.83466         5.84689         2.23703 
        1.84078         5.81306         2.21937 
        1.84692         5.79412         2.20186 
        1.85306         5.74881         2.18453 
         1.8592         5.71916         2.16741 
        1.86533         5.69979         2.15048 
        1.87147         5.67752         2.13372 
        1.87761         5.64717         2.11713 
        1.88375         5.61751         2.10073 
        1.88988         5.58556         2.08452 
        1.89601         5.57497         2.06848 
        1.90215         5.54757          2.0526 
        1.90829         5.51485         2.03689 
        1.91442         5.49546         2.02134 
        1.92056         5.45719         2.00597 
         1.9267         5.44558         1.99074 
        1.93284         5.41945         1.97567 
        1.93897         5.39163         1.96078 
        1.94509         5.35251         1.94607 
        1.95123         5.33535         1.93148 
        1.95737         5.30772         1.91703 
        1.96349          5.2914         1.90276 
        1.96964         5.27997          1.8886 
        1.97578          5.2438         1.87457 
        1.98192           5.228         1.86072 
        1.98805         5.20597         1.84701 
        1.99419         5.18265         1.83343 
        2.00033         5.16563         1.81999 
        2.00647         5.13762         1.80668 
         2.0126         5.11928         1.79353 
        2.01874          5.0816         1.78049 
        2.02488         5.07005         1.76756 
        2.03101         5.03861         1.75479 
        2.03714         5.02015         1.74216 
        2.04328         4.99996         1.72964 
        2.04941         4.96527         1.71725 
        2.05554          4.9575           1.705 
        2.06167         4.93992         1.69284 
        2.06781         4.91983         1.68081 
        2.07396         4.90495         1.66887 
        2.08009         4.87823         1.65707 
        2.08622         4.84867          1.6454 
        2.09237         4.84732         1.63382 
        2.09851         4.81542         1.62234 
        2.10464         4.79709           1.611 
        2.11077          4.7745         1.59978 
        2.11691         4.76175         1.58864 
        2.12305         4.74205         1.57761 
        2.12918         4.73291         1.56671 
        2.13531         4.70433         1.55591 
        2.14145           4.688         1.54519 
         2.1476          4.6611         1.53456 
        2.15372         4.64863         1.52408 
        2.15985         4.62857         1.51368 
        2.16599         4.60918         1.50336 
        2.17213         4.59022         1.49314 
        2.17827         4.57404         1.48302 
         2.1844         4.55442         1.47301 
        2.19054         4.54463         1.46308 
        2.19666         4.51915         1.45326 
         2.2028         4.50011         1.44352 
        2.20893         4.48779         1.43386 
        2.21508         4.46095         1.42429 
        2.22122         4.44803         1.41479 
        2.22736         4.42891         1.40541 
        2.23349         4.42244         1.39611 
        2.23962         4.39605         1.38689 
        2.24577         4.37908         1.37774 
         2.2519         4.36973         1.36869 
        2.25802         4.34913         1.35974 
        2.26417         4.33169         1.35084 
        2.27031         4.31303         1.34202 
        2.27644         4.30239          1.3333 
        2.28257         4.28063         1.32465 
        2.28872         4.26971         1.31607 
        2.29486         4.25187         1.30756 
        2.30099         4.23692         1.29915 
        2.30712         4.21569         1.29081 
        2.31326         4.20218         1.28253 
         2.3194         4.18826         1.27432 
        2.32553         4.16551          1.2662 
        2.33166         4.15924         1.25816 
         2.3378          4.1422         1.25017 
        2.34394         4.12948         1.24225 
        2.35007         4.10985         1.23441 
        2.35619          4.1041         1.22665 
        2.36233         4.09015         1.21894 
        2.36848         4.06568         1.21127 
        2.37462         4.05597         1.20369 
        2.38075          4.0432         1.19619 
        2.38689         4.02319         1.18873 
        2.39303         4.01519         1.18135 
        2.39916         3.99675         1.17403 
        2.40529         3.98224         1.16678 
        2.41143         3.97092         1.15958 
        2.41757         3.95498         1.15245 
         2.4237          3.9412         1.14538 
        2.42983         3.91136         1.13837 
        2.43598         3.92018         1.13141 
        2.44211         3.89481         1.12451 
        2.44823         3.88879         1.11769 
        2.45437         3.86858         1.11091 
        2.46052         3.85635         1.10417 
        2.46665         3.84832         1.09751 
        2.47279           3.834          1.0909 
        2.47892         3.82105         1.08434 
        2.48507         3.81118         1.07783 
         2.4912         3.78778         1.07138 
