# k  (h/Mpc)    Pcb(k)  (Mpc/h)^3    Pcb_linear(k)  (Mpc/h)^3
     0.00783031         3332.28         3351.64 
       0.013688         4267.24         4331.74 
       0.019231         4500.98         4534.71 
      0.0249154         4316.51         4313.53 
      0.0312784         3819.17         3833.47 
      0.0375637         3304.31         3328.33 
      0.0433917         2933.17         2933.77 
      0.0492413          2624.4         2638.06 
      0.0555754          2417.6         2416.51 
      0.0619321         2219.15         2257.73 
       0.067871         2110.83         2127.75 
      0.0738098         1977.32         1988.23 
      0.0800417         1815.87         1820.37 
      0.0862327         1629.07         1638.41 
      0.0921407         1460.26         1466.77 
      0.0982031         1314.93         1309.81 
       0.104506         1173.48         1179.15 
       0.110769         1082.74          1084.8 
       0.116806         1032.28         1021.89 
       0.122832         976.254         976.501 
       0.129052         938.675         936.118 
       0.135211         902.408         892.869 
       0.141259         844.957         842.387 
       0.147318         780.472         784.284 
       0.153489         725.519         721.868 
       0.159709         675.446         661.898 
       0.165845         614.819         610.789 
       0.171974         589.829          570.33 
       0.178125           560.9         540.143 
       0.184229         529.682          518.08 
        0.19034         517.647         500.285 
       0.196428         500.604         483.243 
       0.202534         471.982         464.223 
       0.208729         458.345           441.9 
       0.214876         438.038         417.345 
       0.220989         405.998         392.252 
       0.227147         392.305          368.32 
        0.23329         374.157         347.374 
       0.239377         361.252         330.243 
       0.245482         343.719         316.537 
       0.251667         330.039         305.327 
       0.257832         325.936         295.589 
       0.263955         309.825         286.162 
       0.270079          299.33          276.14 
        0.27624         286.336         265.168 
       0.282372          277.18         253.589 
        0.28843         272.864         242.031 
       0.294538         259.443         230.915 
       0.300721         248.088         220.724 
        0.30691         243.336         211.862 
       0.313033         233.351         204.357 
       0.319153         229.405         197.845 
       0.325316         221.421         191.873 
        0.33145         215.247         186.132 
       0.337538         208.689          180.34 
       0.343633         202.437         174.358 
       0.349808          196.22         168.146 
       0.355968         190.819         161.978 
       0.362074         186.699         156.091 
       0.368217         182.247         150.572 
       0.374374         178.019          145.54 
       0.380519         170.517         141.005 
       0.386598         166.849         136.928 
       0.392688         162.413         133.115 
        0.39888         159.412         129.388 
       0.405048         155.997         125.731 
       0.411186         153.062         122.086 
       0.417313         149.162         118.457 
       0.423458         145.347          114.87 
       0.429607         142.632         111.389 
       0.435692         140.107         108.116 
       0.441815         135.836         105.026 
       0.447964         131.942         102.124 
       0.454126         129.562         99.4036 
       0.460267         128.552         96.8401 
       0.466387         125.507         94.3825 
        0.47254         124.051         91.9727 
       0.478662         119.887         89.6218 
       0.484765         118.056         87.3174 
       0.490885         115.312         85.0505 
       0.497035         114.377         82.8373 
       0.503198         111.659         80.7054 
       0.509342         108.879          78.675 
       0.515458         107.665         76.7458 
       0.521598         105.071         74.8992 
       0.527764          103.92         73.1259 
       0.533884         102.861         71.4311 
           0.54         100.265         69.7863 
       0.546137         97.7634         68.1748 
       0.552299         96.3878         66.5959 
       0.558452         94.5963         65.0607 
       0.564573         94.1902         63.5753 
       0.570708         91.4127         62.1311 
       0.576825         90.5099          60.739 
       0.582926         89.4292         59.4007 
       0.589034         87.8782         58.1112 
       0.595184         86.7691         56.8591 
       0.601379         84.5577         55.6385 
       0.607522         83.4128         54.4629 
       0.613639         82.5904         53.3229 
       0.619772          81.164         52.2097 
       0.625918         80.0798         51.1241 
       0.632068         79.0971         50.0676 
       0.638161          77.636           49.05 
         0.6443         77.0083         48.0537 
       0.650464         75.3913         47.0824 
       0.656582         75.0466         46.1465 
       0.662703         74.1195         45.2378 
       0.668861         72.4328         44.3506 
       0.675024         72.1563          43.488 
       0.681124         71.1905         42.6578 
       0.687237         69.7692         41.8474 
       0.693381         69.1558         41.0535 
       0.699536          68.531         40.2777 
       0.705665         67.3904         39.5246 
       0.711789          66.441         38.7913 
       0.717957          65.514         38.0717 
        0.72409         64.9487          37.375 
       0.730186         64.5529          36.701 
       0.736317         63.3804         36.0408 
       0.742472         62.7105         35.3952 
       0.748622         61.7795         34.7664 
        0.75476         60.8568         34.1546 
       0.760888         60.7421         33.5584 
       0.767043         59.6256          32.974 
       0.773185         59.0757         32.4046 
       0.779291         58.3626         31.8518 
       0.785407          57.517         31.3111 
       0.791564         57.5265         30.7796 
       0.797719         56.6167         30.2609 
       0.803834         56.1113         29.7577 
       0.809972         55.4379         29.2643 
       0.816124          54.887         28.7814 
       0.822261         54.2229         28.3109 
       0.828378          53.931         27.8525 
       0.834502         53.2821         27.4041 
       0.840667         52.8689         26.9628 
       0.846816         52.0234         26.5326 
       0.852925         51.7978         26.1146 
       0.859047         51.4817         25.7048 
       0.865192         50.6549         25.3025 
       0.871341         50.1168         24.9086 
       0.877463         49.7544         24.5251 
       0.883569         49.5496         24.1506 
       0.889708         48.9806         23.7821 
       0.895864         48.4589         23.4205 
       0.902008         47.9469         23.0672 
       0.908149          47.585         22.7215 
       0.914301         47.2617         22.3825 
       0.920448         46.8281         22.0507 
       0.926574         46.1178          21.727 
       0.932687         45.8367         21.4104 
       0.938823         45.3571         21.0992 
       0.944975         44.9638         20.7935 
       0.951105          44.606          20.495 
       0.957225         44.3887         20.2029 
       0.963368         43.8737         19.9157 
       0.969511         43.5288          19.634 
       0.975621         43.1801         19.3594 
       0.981748         42.7244         19.0894 
       0.987916         42.4602         18.8229 
        0.99406         42.0194         18.5625 
        1.00019         41.7509         18.3077 
        1.00632          41.429         18.0579 
        1.01246         41.1065         17.8124 
        1.01859         40.7308          17.572 
        1.02471         40.3553         17.3363 
        1.03085         40.2284         17.1042 
        1.03698         39.9076         16.8769 
        1.04314         39.5793         16.6528 
        1.04929          39.146         16.4333 
        1.05541         39.0093         16.2187 
        1.06154          38.792         16.0074 
        1.06769         38.2423         15.7996 
        1.07382          38.077         15.5963 
        1.07993         37.7413          15.397 
        1.08607         37.5068         15.2004 
        1.09222         37.2616         15.0071 
        1.09836         36.9227         14.8174 
        1.10449          36.762         14.6312 
        1.11063         36.4441         14.4481 
        1.11677         36.3972         14.2682 
         1.1229           36.01         14.0917 
        1.12903         35.7777          13.918 
        1.13518          35.624         13.7472 
        1.14131         35.3028         13.5794 
        1.14745         34.9201         13.4144 
        1.15359         34.6509         13.2523 
        1.15973         34.4693         13.0927 
        1.16584         34.2495         12.9366 
        1.17197         33.8679         12.7828 
        1.17811          33.748          12.631 
        1.18424          33.401         12.4822 
        1.19038         33.2979         12.3353 
        1.19652         33.0564         12.1909 
        1.20267         32.8943         12.0488 
        1.20881         32.6509         11.9091 
        1.21495         32.4573         11.7718 
        1.22108          32.382         11.6367 
         1.2272         32.1455         11.5041 
        1.23334         31.9213         11.3732 
        1.23949         31.6793         11.2441 
        1.24562         31.3816         11.1174 
        1.25174         31.2677         10.9928 
        1.25789         31.1599         10.8698 
        1.26402          30.967         10.7489 
        1.27014         30.7621         10.6302 
        1.27628         30.4714         10.5129 
        1.28244          30.459         10.3971 
        1.28858         30.1467         10.2833 
        1.29471         29.9644         10.1714 
        1.30084         29.7631         10.0613 
        1.30697         29.6445         9.95274 
        1.31312         29.3953          9.8456 
        1.31925         29.2264         9.74039 
        1.32537         29.0476         9.63683 
        1.33151         28.8704         9.53442 
        1.33765         28.8124         9.43357 
        1.34378         28.6298         9.33439 
        1.34992          28.463         9.23658 
        1.35606         28.2632         9.13998 
         1.3622          28.048         9.04494 
        1.36833         27.9619         8.95149 
        1.37445         27.8029         8.85942 
        1.38059         27.6382         8.76837 
        1.38675         27.4232          8.6784 
        1.39288         27.2996         8.59005 
        1.39901          27.145         8.50299 
        1.40515         27.0307         8.41695 
         1.4113         26.9249         8.33214 
        1.41742         26.7825         8.24884 
        1.42355         26.5605         8.16652 
         1.4297         26.4087         8.08509 
        1.43585         26.2721         8.00482 
        1.44198         26.1844         7.92595 
        1.44809         26.0365         7.84829 
        1.45423         25.8954          7.7714 
        1.46036          25.759         7.69569 
        1.46649          25.608         7.62096 
        1.47263         25.4779         7.54718 
        1.47877         25.3939         7.47441 
        1.48491         25.2443         7.40249 
        1.49104         25.0743         7.33168 
        1.49718         24.9844         7.26174 
        1.50333          24.893         7.19262 
        1.50947         24.7509         7.12454 
         1.5156         24.5989         7.05745 
        1.52172         24.4408         6.99123 
        1.52787         24.3398         6.92574 
          1.534         24.2624         6.86117 
        1.54013         24.1592         6.79749 
        1.54627         23.9685         6.73452 
        1.55241         23.8473         6.67234 
        1.55855         23.7515         6.61103 
        1.56467         23.7048         6.55068 
         1.5708         23.5667         6.49091 
        1.57695         23.4362          6.4318 
        1.58308         23.2433         6.37357 
        1.58922         23.1576         6.31602 
        1.59535         23.0538         6.25921 
         1.6015         22.9192         6.20303 
        1.60764         22.8459         6.14756 
        1.61376         22.7767         6.09293 
        1.61989         22.5992         6.03893 
        1.62604         22.5294         5.98547 
        1.63218         22.4188         5.93269 
        1.63831         22.2866         5.88067 
        1.64444         22.1958         5.82926 
        1.65059         22.0874         5.77835 
        1.65673         22.0253         5.72811 
        1.66285         21.8632         5.67861 
        1.66898         21.8201         5.62968 
        1.67512         21.7514         5.58124 
        1.68127         21.6073         5.53332 
         1.6874         21.5362         5.48608 
        1.69353         21.3618         5.43942 
        1.69967         21.2925          5.3932 
        1.70581         21.2236         5.34754 
        1.71193         21.0539         5.30258 
        1.71806         21.0227         5.25805 
        1.72421         20.9413         5.21395 
        1.73035         20.8071          5.1704 
        1.73649         20.7344         5.12736 
        1.74262         20.6077         5.08486 
        1.74876         20.5351          5.0428 
        1.75489         20.4748         5.00132 
        1.76101         20.3536         4.96031 
        1.76715         20.2775         4.91972 
        1.77329         20.1768         4.87953 
        1.77943         20.0788         4.83977 
        1.78557         20.0236         4.80052 
        1.79171          19.894          4.7617 
        1.79785         19.8383         4.72331 
        1.80399         19.7316         4.68535 
        1.81012         19.6859         4.64786 
        1.81625         19.5505          4.6108 
        1.82239         19.4741         4.57409 
        1.82853         19.4025          4.5378 
        1.83466         19.2862         4.50194 
        1.84078         19.2545         4.46651 
        1.84692         19.2111          4.4314 
        1.85306         19.0984         4.39663 
         1.8592         19.0231          4.3623 
        1.86533         18.8666         4.32835 
        1.87147         18.8182         4.29472 
        1.87761         18.7444         4.26144 
        1.88375          18.709         4.22855 
        1.88988         18.5551         4.19605 
        1.89601         18.5208         4.16388 
        1.90215         18.4079         4.13201 
        1.90829         18.3348          4.1005 
        1.91442         18.2132         4.06932 
        1.92056         18.2358         4.03849 
         1.9267         18.1399         4.00795 
        1.93284         18.1127         3.97771 
        1.93897         17.9963         3.94785 
        1.94509           17.92         3.91835 
        1.95123         17.8216         3.88908 
        1.95737         17.7912         3.86009 
        1.96349         17.6747         3.83148 
        1.96964         17.6485         3.80307 
        1.97578         17.5762         3.77494 
        1.98192          17.487         3.74715 
        1.98805         17.3892         3.71964 
        1.99419          17.347         3.69241 
        2.00033         17.2912         3.66544 
        2.00647         17.2013         3.63874 
         2.0126         17.1471         3.61236 
        2.01874         17.0457          3.5862 
        2.02488         16.9705         3.56028 
        2.03101         16.9223         3.53467 
        2.03714         16.8502         3.50933 
        2.04328         16.7732         3.48422 
        2.04941         16.6886         3.45937 
        2.05554         16.6856         3.43478 
        2.06167         16.6124          3.4104 
        2.06781         16.5257         3.38626 
        2.07396         16.5237         3.36231 
        2.08009         16.3841         3.33864 
        2.08622         16.3468         3.31523 
        2.09237         16.2985         3.29199 
        2.09851         16.1873         3.26898 
        2.10464         16.1641         3.24623 
        2.11077         16.0819         3.22372 
        2.11691         16.0458         3.20137 
        2.12305         15.9653         3.17924 
        2.12918         15.8599         3.15737 
        2.13531         15.8479          3.1357 
        2.14145         15.7631         3.11419 
         2.1476          15.682         3.09286 
        2.15372          15.667         3.07184 
        2.15985         15.6044         3.05099 
        2.16599         15.5414         3.03028 
        2.17213          15.516         3.00978 
        2.17827         15.4091         2.98948 
         2.1844         15.3553         2.96938 
        2.19054         15.3363         2.94946 
        2.19666         15.2606         2.92976 
         2.2028         15.2092         2.91022 
        2.20893         15.1173         2.89085 
        2.21508         15.0873         2.87163 
        2.22122              15         2.85258 
        2.22736         14.9826         2.83375 
        2.23349         14.9279         2.81509 
        2.23962         14.8856         2.79659 
        2.24577         14.8204         2.77824 
         2.2519         14.7563         2.76009 
        2.25802         14.6505         2.74212 
        2.26417         14.6774         2.72427 
        2.27031         14.6076         2.70656 
        2.27644         14.5726         2.68905 
        2.28257         14.4611         2.67171 
        2.28872         14.4611         2.65449 
        2.29486         14.3964         2.63742 
        2.30099         14.3423         2.62053 
        2.30712         14.2439         2.60379 
        2.31326         14.1988         2.58717 
         2.3194          14.174          2.5707 
        2.32553         14.1027         2.55441 
        2.33166         14.0557         2.53826 
         2.3378         14.0125         2.52224 
        2.34394         13.9636         2.50634 
        2.35007         13.9129         2.49061 
        2.35619         13.8542         2.47503 
        2.36233         13.7804         2.45955 
        2.36848         13.7482         2.44417 
        2.37462         13.7011         2.42895 
        2.38075          13.662         2.41388 
        2.38689         13.6234         2.39893 
        2.39303         13.5401          2.3841 
        2.39916          13.532         2.36942 
        2.40529         13.4847         2.35486 
        2.41143          13.415         2.34041 
        2.41757         13.3502         2.32608 
         2.4237         13.3298          2.3119 
        2.42983         13.2739         2.29783 
        2.43598         13.2335         2.28385 
        2.44211         13.1716         2.27001 
        2.44823         13.1409         2.25631 
        2.45437         13.0965         2.24269 
        2.46052         13.0689         2.22917 
        2.46665         13.0155         2.21579 
        2.47279         12.9516         2.20252 
        2.47892         12.8972         2.18935 
        2.48507          12.871         2.17628 
         2.4912         12.8347         2.16334 
