# k  (h/Mpc)    Pcb(k)  (Mpc/h)^3    Pcb_linear(k)  (Mpc/h)^3
     0.00783031         6145.41         6219.39 
       0.013688         7638.04         7606.83 
       0.019231         7666.44         7655.33 
      0.0249154         6977.84          7064.3 
      0.0312784         6104.45         6134.04 
      0.0375637         5266.78         5256.93 
      0.0433917         4567.02         4607.88 
      0.0492413         4120.76         4130.22 
      0.0555754         3699.59         3762.41 
      0.0619321         3492.92          3476.2 
       0.067871         3180.63         3225.22 
      0.0738098         2917.73         2958.93 
      0.0800417         2606.24         2660.35 
      0.0862327          2339.2         2364.24 
      0.0921407         2106.43         2107.21 
      0.0982031          1878.9         1888.23 
       0.104506         1743.73         1715.22 
       0.110769         1615.06         1591.56 
       0.116806         1513.11         1503.05 
       0.122832          1445.3         1427.96 
       0.129052         1347.05         1349.95 
       0.135211         1266.69         1264.52 
       0.141259         1192.97         1172.96 
       0.147318         1109.92         1079.39 
       0.153489         1013.84         990.018 
       0.159709         947.963         912.444 
       0.165845           901.1         850.936 
       0.171974         845.495         803.331 
       0.178125         807.655         765.648 
       0.184229         776.406         733.405 
        0.19034         727.576         701.945 
       0.196428         709.278         668.787 
       0.202534         682.369         633.177 
       0.208729         643.269           595.9 
       0.214876         605.332         559.928 
       0.220989         582.664         527.199 
       0.227147         549.667         498.556 
        0.23329         526.613         474.485 
       0.239377         512.987         454.339 
       0.245482         480.572          436.59 
       0.251667         474.269         419.783 
       0.257832         457.568         403.175 
       0.263955         440.551         386.371 
       0.270079          423.59         369.341 
        0.27624         415.535         352.436 
       0.282372         398.214         336.421 
        0.28843         384.549         321.833 
       0.294538         367.394         308.581 
       0.300721         363.092          296.59 
        0.30691          346.35          285.74 
       0.313033         338.323         275.775 
       0.319153         325.249         266.241 
       0.325316         317.148         256.842 
        0.33145          306.64         247.609 
       0.337538         301.951         238.615 
       0.343633         291.654         229.904 
       0.349808         282.355         221.508 
       0.355968         277.703         213.663 
       0.362074          270.41         206.426 
       0.368217          263.11         199.655 
       0.374374         254.377         193.286 
       0.380519         250.066         187.247 
       0.386598         243.684         181.502 
       0.392688         240.399         175.916 
        0.39888         234.017         170.397 
       0.405048         228.638         165.073 
       0.411186         223.644          159.97 
       0.417313         218.907           155.1 
       0.423458         214.495         150.455 
       0.429607         209.478          146.04 
       0.435692         203.145         141.889 
       0.441815         201.708         137.901 
       0.447964         198.166         134.057 
       0.454126         189.831         130.344 
       0.460267         187.768         126.769 
       0.466387         185.193          123.32 
        0.47254          181.33         119.969 
       0.478662         179.748         116.755 
       0.484765         174.546         113.674 
       0.490885         171.872         110.704 
       0.497035          169.65         107.839 
       0.503198         165.112         105.082 
       0.509342         162.635         102.436 
       0.515458         160.365         99.8938 
       0.521598         158.097         97.4269 
       0.527764          155.71          95.031 
       0.533884         153.294         92.7298 
           0.54         150.726         90.5043 
       0.546137         149.581         88.3438 
       0.552299         147.047         86.2473 
       0.558452         144.254          84.226 
       0.564573         141.763         82.2829 
       0.570708         139.688         80.3994 
       0.576825         137.879         78.5821 
       0.582926         135.452         76.8267 
       0.589034         133.371         75.1234 
       0.595184         131.895         73.4606 
       0.601379         130.448         71.8368 
       0.607522         127.402         70.2746 
       0.613639          127.08         68.7656 
       0.619772          124.26         67.2979 
       0.625918         123.018         65.8712 
       0.632068         121.664         64.4864 
       0.638161         120.414         63.1548 
         0.6443         118.779          61.852 
       0.650464         117.446         60.5818 
       0.656582          115.92         59.3565 
       0.662703         113.968         58.1649 
       0.668861         112.661         56.9995 
       0.675024          111.42         55.8654 
       0.681124         110.326         54.7741 
       0.687237          108.36         53.7101 
       0.693381         107.137         52.6699 
       0.699536         106.051         51.6559 
       0.705665         106.412         50.6733 
       0.711789         103.581         49.7175 
       0.717957           103.1         48.7801 
        0.72409         101.638         47.8724 
       0.730186         99.9708         46.9936 
       0.736317         99.7405         46.1323 
       0.742472         98.7145         45.2897 
       0.748622         97.8043         44.4693 
        0.75476         96.7938         43.6712 
       0.760888         95.4613         42.8941 
       0.767043         94.6382         42.1331 
       0.773185         93.5824         41.3925 
       0.779291          92.754          40.674 
       0.785407         92.0183         39.9718 
       0.791564         90.9954          39.282 
       0.797719         89.6899          38.609 
       0.803834         89.3488         37.9562 
       0.809972         87.9101         37.3163 
       0.816124          87.449           36.69 
       0.822261          86.727         36.0799 
       0.828378         85.9788         35.4857 
       0.834502         85.1979         34.9045 
       0.840667         84.3891         34.3327 
       0.846816         83.3983         33.7754 
       0.852925         82.7052         33.2342 
       0.859047         81.6788         32.7038 
       0.865192         81.3514         32.1834 
       0.871341           80.78         31.6741 
       0.877463         79.5326         31.1782 
       0.883569         79.0515         30.6943 
       0.889708         78.6285         30.2182 
       0.895864         77.9466         29.7512 
       0.902008         77.2672         29.2951 
       0.908149         76.7725         28.8489 
       0.914301         76.0214         28.4113 
       0.920448         75.4613         27.9833 
       0.926574         74.8158         27.5658 
       0.932687         74.4784         27.1577 
       0.938823         73.3175         26.7565 
       0.944975         73.0335         26.3626 
       0.951105         72.3839          25.978 
       0.957225         71.5012         25.6019 
       0.963368         71.3765         25.2321 
       0.969511         70.9217         24.8696 
       0.975621         70.4561         24.5162 
       0.981748         69.7123         24.1689 
       0.987916         69.2556         23.8262 
        0.99406         68.8439         23.4915 
        1.00019         68.0557          23.164 
        1.00632         67.7887         22.8431 
        1.01246         67.1844         22.5278 
        1.01859         66.3249         22.2191 
        1.02471         66.5704         21.9166 
        1.03085         65.8085         21.6187 
        1.03698         65.2758         21.3271 
        1.04314         64.6548         21.0396 
        1.04929         64.3633         20.7582 
        1.05541         63.7303         20.4831 
        1.06154         63.6585         20.2124 
        1.06769         63.0872         19.9462 
        1.07382         62.7979         19.6857 
        1.07993         62.4822         19.4305 
        1.08607         61.8679         19.1787 
        1.09222         61.5864         18.9313 
        1.09836         61.1505         18.6885 
        1.10449         60.7223         18.4503 
        1.11063         60.1706          18.216 
        1.11677         59.8345         17.9859 
         1.1229         59.5162         17.7602 
        1.12903         58.7187         17.5382 
        1.13518         58.9182         17.3198 
        1.14131         58.5676         17.1053 
        1.14745         57.8027         16.8946 
        1.15359         57.7291         16.6875 
        1.15973          57.146         16.4837 
        1.16584         56.8149         16.2843 
        1.17197         56.5391         16.0879 
        1.17811         56.2514         15.8942 
        1.18424         55.6799         15.7042 
        1.19038         55.5109         15.5169 
        1.19652         55.2819         15.3327 
        1.20267         54.8511         15.1515 
        1.20881         54.5234         14.9733 
        1.21495         54.0943         14.7982 
        1.22108         53.8088          14.626 
         1.2272         53.3051          14.457 
        1.23334         53.1422         14.2903 
        1.23949         53.0302         14.1259 
        1.24562         52.6123         13.9645 
        1.25174         52.3905         13.8059 
        1.25789         52.0786         13.6493 
        1.26402          51.647         13.4954 
        1.27014         51.2299         13.3443 
        1.27628         51.1055         13.1951 
        1.28244         50.7071         13.0479 
        1.28858         50.5407         12.9031 
        1.29471         50.3405         12.7609 
        1.30084         50.0493          12.621 
        1.30697          49.656          12.483 
        1.31312         49.2944         12.3468 
        1.31925         49.2302         12.2132 
        1.32537         48.9545         12.0816 
        1.33151         48.5563         11.9516 
        1.33765         48.4884         11.8235 
        1.34378         48.1666         11.6976 
        1.34992         47.6929         11.5735 
        1.35606         47.4668         11.4508 
         1.3622          47.221         11.3302 
        1.36833         47.0189         11.2116 
        1.37445         46.9361         11.0948 
        1.38059         46.6283         10.9793 
        1.38675         46.2742         10.8652 
        1.39288         46.1226         10.7532 
        1.39901         45.7896         10.6428 
        1.40515         45.5954         10.5337 
         1.4113         45.4701         10.4262 
        1.41742          45.071         10.3207 
        1.42355         44.8896         10.2163 
         1.4297         44.6311         10.1132 
        1.43585         44.5256         10.0115 
        1.44198         44.2234          9.9116 
        1.44809         44.0257         9.81326 
        1.45423          43.863         9.71591 
        1.46036         43.6576         9.62006 
        1.46649         43.3524         9.52547 
        1.47263         43.1484          9.4321 
        1.47877         43.0369         9.34002 
        1.48491         42.8556         9.24904 
        1.49104         42.5514         9.15947 
        1.49718         42.1713         9.07103 
        1.50333         42.1304         8.98362 
        1.50947         41.9342         8.89755 
         1.5156         41.6722         8.81274 
        1.52172         41.4685         8.72905 
        1.52787         41.4425         8.64628 
          1.534         41.1156          8.5647 
        1.54013          40.867         8.48425 
        1.54627         40.7798          8.4047 
        1.55241         40.5233         8.32616 
        1.55855         40.3039         8.24875 
        1.56467         40.0065         8.17253 
         1.5708         40.0273         8.09707 
        1.57695          39.682         8.02245 
        1.58308         39.6553         7.94895 
        1.58922         39.5144         7.87633 
        1.59535         39.2347         7.80464 
         1.6015         38.9928         7.73375 
        1.60764         38.8689         7.66379 
        1.61376         38.6743         7.59488 
        1.61989         38.3644         7.52677 
        1.62604          38.342         7.45935 
        1.63218         38.1293         7.39281 
        1.63831         37.9637         7.32723 
        1.64444          37.816         7.26242 
        1.65059          37.513         7.19826 
        1.65673         37.3598         7.13494 
        1.66285          37.244         7.07256 
        1.66898          37.021         7.01091 
        1.67512         36.9096         6.94988 
        1.68127         36.6529         6.88953 
         1.6874         36.5744         6.83002 
        1.69353         36.3654         6.77127 
        1.69967         36.2083         6.71306 
        1.70581         36.1122         6.65557 
        1.71193         35.9177         6.59898 
        1.71806         35.7005         6.54292 
        1.72421         35.5111         6.48741 
        1.73035         35.3654         6.43261 
        1.73649         35.2354         6.37846 
        1.74262         35.0513         6.32498 
        1.74876         35.0491         6.27208 
        1.75489         34.7743          6.2199 
        1.76101         34.6088         6.16833 
        1.76715         34.4744         6.11727 
        1.77329         34.3399         6.06674 
        1.77943         34.1977         6.01675 
        1.78557          34.024         5.96741 
        1.79171         33.8741         5.91861 
        1.79785         33.7093         5.87036 
        1.80399         33.5825         5.82265 
        1.81012         33.4958         5.77554 
        1.81625         33.2762         5.72898 
        1.82239         33.2039         5.68286 
        1.82853         32.9348         5.63727 
        1.83466         32.8339         5.59223 
        1.84078         32.6092         5.54773 
        1.84692         32.5592         5.50365 
        1.85306         32.3999            5.46 
         1.8592         32.2499         5.41689 
        1.86533         32.0777         5.37427 
        1.87147         31.9805         5.33206 
        1.87761         31.9389         5.29029 
        1.88375          31.749         5.24902 
        1.88988         31.6567         5.20824 
        1.89601         31.4401         5.16787 
        1.90215         31.3746          5.1279 
        1.90829         31.2896         5.08837 
        1.91442         31.0538         5.04926 
        1.92056         31.0066         5.01059 
         1.9267         30.7943          4.9723 
        1.93284         30.6351         4.93438 
        1.93897         30.5787         4.89693 
        1.94509         30.4286         4.85995 
        1.95123         30.2806         4.82326 
        1.95737         30.1577         4.78692 
        1.96349         30.0344         4.75106 
        1.96964         29.8616         4.71546 
        1.97578         29.8327         4.68021 
        1.98192         29.6247         4.64539 
        1.98805         29.5653         4.61093 
        1.99419         29.3856         4.57681 
        2.00033         29.2259         4.54303 
        2.00647         29.1449          4.5096 
         2.0126         29.0028         4.47656 
        2.01874         28.9406         4.44381 
        2.02488         28.9005         4.41135 
        2.03101         28.6665         4.37928 
        2.03714         28.5493         4.34756 
        2.04328         28.4154         4.31612 
        2.04941         28.3524         4.28502 
        2.05554         28.2257         4.25425 
        2.06167         28.0973         4.22374 
        2.06781         27.9876         4.19353 
        2.07396         27.8766         4.16357 
        2.08009         27.8129         4.13395 
        2.08622         27.6533         4.10466 
        2.09237         27.5497          4.0756 
        2.09851         27.4266         4.04681 
        2.10464         27.3777         4.01835 
        2.11077         27.1494          3.9902 
        2.11691         27.1191         3.96226 
        2.12305         27.0011         3.93459 
        2.12918         26.9643         3.90725 
        2.13531         26.8132         3.88016 
        2.14145         26.7372         3.85327 
         2.1476         26.5601         3.82661 
        2.15372          26.464         3.80034 
        2.15985         26.3475         3.77428 
        2.16599         26.2738          3.7484 
        2.17213         26.2051         3.72279 
        2.17827         25.9898         3.69742 
         2.1844         25.9007         3.67232 
        2.19054          25.811         3.64744 
        2.19666         25.7343         3.62282 
         2.2028         25.6594         3.59842 
        2.20893         25.5455         3.57422 
        2.21508         25.4385         3.55023 
        2.22122         25.2663         3.52644 
        2.22736         25.2583         3.50293 
        2.23349         25.1279         3.47963 
        2.23962         25.0202         3.45654 
        2.24577         24.8862         3.43364 
         2.2519         24.8358         3.41097 
        2.25802         24.7245         3.38855 
        2.26417         24.6444         3.36627 
        2.27031         24.5646         3.34417 
        2.27644         24.4663         3.32233 
        2.28257          24.351         3.30069 
        2.28872         24.2202          3.2792 
        2.29486         24.1645         3.25791 
        2.30099          24.059         3.23685 
        2.30712         24.0245         3.21597 
        2.31326          23.919         3.19524 
         2.3194         23.7862          3.1747 
        2.32553         23.6911         3.15439 
        2.33166         23.5725         3.13425 
         2.3378         23.4737         3.11427 
        2.34394         23.4206         3.09446 
        2.35007          23.316         3.07484 
        2.35619          23.196         3.05542 
        2.36233         23.1633         3.03613 
        2.36848         23.0098         3.01696 
        2.37462         22.9427           2.998 
        2.38075         22.8651         2.97922 
        2.38689         22.8127         2.96058 
        2.39303         22.6648         2.94211 
        2.39916         22.5936         2.92381 
        2.40529         22.4946         2.90568 
        2.41143         22.4485         2.88768 
        2.41757          22.343         2.86983 
         2.4237         22.2423         2.85216 
        2.42983         22.1649         2.83465 
        2.43598         22.0941         2.81723 
        2.44211          21.989             2.8 
        2.44823         21.8804         2.78294 
        2.45437         21.8206         2.76598 
        2.46052         21.7525         2.74915 
        2.46665         21.6883         2.73249 
        2.47279         21.5714         2.71597 
        2.47892         21.5136         2.69958 
        2.48507          21.423         2.68331 
         2.4912         21.3603          2.6672 
