# k  (h/Mpc)    P(k)  (Mpc/h)^3    P_linear(k)  (Mpc/h)^3
     0.00783031         149.876          151.23 
       0.013688         191.103         191.833 
       0.019231         197.218         197.338 
      0.0249154         183.932         184.439 
      0.0312784         161.155          161.08 
      0.0375637         138.505         138.155 
      0.0433917         121.285         121.121 
      0.0492413         109.103          108.87 
      0.0555754         99.9217         99.9223 
      0.0619321         93.6043         93.3639 
       0.067871         87.5585           87.61 
      0.0738098         81.0527         81.1418 
      0.0800417         73.2395         73.3777 
      0.0862327         65.2418          65.252 
      0.0921407          58.016         57.9593 
      0.0982031         51.6754         51.6598 
       0.104506          46.886         46.7332 
       0.110769         43.4858         43.3751 
       0.116806         41.1613         41.1785 
       0.122832         39.5113         39.4716 
       0.129052         37.6507         37.7029 
       0.135211         35.5446          35.616 
       0.141259         33.1815         33.1832 
       0.147318         30.5924         30.5288 
       0.153489         27.9164         27.8822 
       0.159709         25.5836         25.5416 
       0.165845         23.8303         23.7057 
       0.171974          22.383         22.3537 
       0.178125         21.4155         21.3777 
       0.184229         20.6761         20.6207 
        0.19034         19.8773         19.9025 
       0.196428         19.1161         19.1006 
       0.202534         18.2409           18.16 
       0.208729         17.1362         17.0955 
       0.214876         16.0197         16.0113 
       0.220989          15.085         14.9991 
       0.227147          14.136          14.117 
        0.23329         13.4256         13.4039 
       0.239377         12.8786         12.8487 
       0.245482         12.4051         12.3989 
       0.251667         12.0392         11.9941 
       0.257832         11.6125         11.5893 
       0.263955         11.1858         11.1536 
       0.270079         10.7168         10.6784 
        0.27624         10.2488         10.1779 
       0.282372         9.75607         9.68545 
        0.28843         9.27921          9.2333 
       0.294538         8.87964         8.83006 
       0.300721         8.55674         8.48176 
        0.30691         8.23071         8.18489 
       0.313033         7.97432         7.92584 
       0.319153         7.68759         7.68242 
       0.325316         7.50187         7.43772 
        0.33145         7.24054         7.18596 
       0.337538         6.98046         6.92839 
       0.343633         6.71035         6.66859 
       0.349808         6.46773         6.41329 
       0.355968         6.23302         6.17446 
       0.362074         6.01101         5.95921 
       0.368217         5.81824         5.76438 
       0.374374         5.62375         5.58792 
       0.380519         5.47689         5.42503 
       0.386598         5.32734         5.27053 
       0.392688         5.18382         5.11829 
        0.39888         5.02063         4.96348 
       0.405048         4.86969         4.80934 
       0.411186         4.72271          4.6585 
       0.417313         4.56657         4.51288 
       0.423458          4.4374         4.37428 
       0.429607         4.29743         4.24486 
       0.435692         4.17779         4.12548 
       0.441815         4.06703         4.01292 
       0.447964         3.97335         3.90596 
       0.454126         3.85419         3.80277 
       0.460267         3.75276          3.7022 
       0.466387         3.64899         3.60382 
        0.47254         3.55694         3.50682 
       0.478662         3.46725         3.41252 
       0.484765         3.36982         3.32156 
       0.490885         3.28467         3.23423 
       0.497035         3.21608         3.15074 
       0.503198         3.12795         3.07108 
       0.509342         3.05643         2.99529 
       0.515458         2.97728         2.92299 
       0.521598         2.90881         2.85291 
       0.527764         2.83326         2.78446 
       0.533884         2.77762         2.71808 
           0.54         2.70989         2.65342 
       0.546137         2.64979         2.59039 
       0.552299          2.5869         2.52912 
       0.558452         2.52074         2.47002 
       0.564573         2.46944         2.41333 
       0.570708          2.4146         2.35863 
       0.576825         2.35788         2.30615 
       0.582926         2.31317         2.25562 
       0.589034         2.25122         2.20658 
       0.595184         2.20666         2.15854 
       0.601379         2.15946         2.11142 
       0.607522         2.11953         2.06595 
       0.613639         2.08122         2.02195 
       0.619772          2.0285         1.97915 
       0.625918         1.99022         1.93756 
       0.632068         1.95398         1.89721 
       0.638161         1.91029         1.85844 
         0.6443         1.87154         1.82052 
       0.650464         1.83016         1.78359 
       0.656582         1.79923         1.74798 
       0.662703         1.76481         1.71335 
       0.668861          1.7354         1.67948 
       0.675024         1.69772         1.64648 
       0.681124         1.66152         1.61467 
       0.687237         1.63576         1.58363 
       0.693381          1.6059         1.55324 
       0.699536          1.5673         1.52361 
       0.705665         1.54064         1.49489 
       0.711789         1.51585         1.46697 
       0.717957           1.485          1.4396 
        0.72409         1.45976         1.41311 
       0.730186         1.43262         1.38747 
       0.736317         1.41367         1.36234 
       0.742472          1.3871         1.33774 
       0.748622          1.3609         1.31378 
        0.75476         1.33406         1.29045 
       0.760888         1.31091         1.26772 
       0.767043          1.2957         1.24544 
       0.773185         1.26889         1.22376 
       0.779291         1.24827         1.20271 
       0.785407         1.22794         1.18214 
       0.791564         1.20823         1.16193 
       0.797719         1.19001         1.14221 
       0.803834         1.17091         1.12308 
       0.809972          1.1509         1.10433 
       0.816124         1.13082         1.08597 
       0.822261         1.11086         1.06809 
       0.828378         1.09591         1.05067 
       0.834502         1.08071         1.03362 
       0.840667          1.0594         1.01685 
       0.846816         1.04347         1.00051 
       0.852925         1.03113        0.984624 
       0.859047         1.01484        0.969058 
       0.865192        0.997387        0.953782 
       0.871341        0.982213        0.938828 
       0.877463        0.970775        0.924267 
       0.883569         0.95358        0.910055 
       0.889708        0.939284        0.896072 
       0.895864        0.925351        0.882351 
       0.902008        0.910627        0.868949 
       0.908149        0.897483        0.855837 
       0.914301        0.880953        0.842977 
       0.920448        0.870017        0.830397 
       0.926574        0.857108         0.81812 
       0.932687        0.844742         0.80612 
       0.938823        0.836236        0.794321 
       0.944975        0.823305        0.782733 
       0.951105        0.812459         0.77142 
       0.957225        0.802934        0.760353 
       0.963368        0.790773        0.749467 
       0.969511        0.778247        0.738797 
       0.975621         0.76664        0.728394 
       0.981748        0.759469        0.718167 
       0.987916        0.748025        0.708073 
        0.99406        0.737127        0.698214 
        1.00019        0.729379        0.688564 
        1.00632        0.716762        0.679106 
        1.01246        0.707523        0.669814 
        1.01859        0.699563        0.660712 
        1.02471        0.689712        0.651793 
        1.03085        0.683029        0.643008 
        1.03698        0.672307        0.634406 
        1.04314        0.664304        0.625927 
        1.04929        0.654761        0.617623 
        1.05541        0.647895        0.609505 
        1.06154         0.63856        0.601515 
        1.06769        0.629817        0.593657 
        1.07382        0.622877        0.585967 
        1.07993        0.613718        0.578432 
        1.08607        0.608928        0.570999 
        1.09222        0.599578        0.563691 
        1.09836        0.594686         0.55652 
        1.10449        0.586903        0.549484 
        1.11063         0.57804        0.542563 
        1.11677        0.570165        0.535765 
         1.1229         0.56467        0.529096 
        1.12903        0.557055        0.522536 
        1.13518        0.551776        0.516083 
        1.14131         0.54433        0.509744 
        1.14745        0.535545        0.503515 
        1.15359         0.53144        0.497391 
        1.15973        0.523511        0.491367 
        1.16584        0.520123         0.48547 
        1.17197        0.513301        0.479663 
        1.17811        0.508096        0.473934 
        1.18424        0.503451        0.468316 
        1.19038        0.496161        0.462773 
        1.19652        0.489312        0.457323 
        1.20267        0.485831        0.451962 
        1.20881        0.479438        0.446689 
        1.21495         0.47536        0.441508 
        1.22108        0.469707        0.436412 
         1.2272        0.465051        0.431408 
        1.23334        0.459185        0.426472 
        1.23949        0.454344        0.421602 
        1.24562        0.449502        0.416823 
        1.25174        0.445034        0.412125 
        1.25789        0.440696        0.407485 
        1.26402        0.434351        0.402926 
        1.27014        0.430294        0.398448 
        1.27628         0.42675        0.394026 
        1.28244        0.420325        0.389662 
        1.28858        0.416819        0.385371 
        1.29471        0.413652        0.381155 
        1.30084         0.40823        0.377006 
        1.30697        0.404074        0.372913 
        1.31312        0.398485        0.368876 
        1.31925        0.395169        0.364911 
        1.32537        0.391884         0.36101 
        1.33151        0.388416        0.357152 
        1.33765         0.38423        0.353353 
        1.34378        0.379307        0.349617 
        1.34992        0.376229        0.345933 
        1.35606        0.372247        0.342294 
         1.3622        0.368642        0.338715 
        1.36833         0.36479        0.335196 
        1.37445        0.360196        0.331729 
        1.38059        0.357034        0.328301 
        1.38675        0.355446        0.324914 
        1.39288        0.350984        0.321588 
        1.39901        0.347756        0.318311 
        1.40515        0.344703        0.315072 
         1.4113        0.340482         0.31188 
        1.41742        0.337351        0.308745 
        1.42355        0.335138        0.305647 
         1.4297         0.33092        0.302583 
        1.43585        0.328299        0.299562 
        1.44198        0.325961        0.296595 
        1.44809        0.322026        0.293673 
        1.45423        0.319269         0.29078 
        1.46036        0.316139        0.287932 
        1.46649        0.313879        0.285121 
        1.47263        0.310504        0.282345 
        1.47877        0.307021        0.279608 
        1.48491        0.304813        0.276903 
        1.49104        0.301304         0.27424 
        1.49718        0.298857        0.271611 
        1.50333        0.296849        0.269011 
        1.50947        0.293813        0.266452 
         1.5156        0.290915        0.263929 
        1.52172        0.288549         0.26144 
        1.52787        0.285911        0.258978 
          1.534        0.283188         0.25655 
        1.54013        0.280461        0.254157 
        1.54627        0.278681         0.25179 
        1.55241        0.275734        0.249453 
        1.55855        0.272919        0.247149 
        1.56467        0.271875        0.244881 
         1.5708        0.268769        0.242635 
        1.57695         0.26655        0.240414 
        1.58308        0.264104        0.238226 
        1.58922        0.262104        0.236064 
        1.59535        0.259697         0.23393 
         1.6015          0.2573        0.231819 
        1.60764        0.255476        0.229736 
        1.61376        0.252634        0.227684 
        1.61989        0.250882        0.225656 
        1.62604        0.249054        0.223648 
        1.63218        0.247087        0.221665 
        1.63831        0.245065        0.219712 
        1.64444        0.242983        0.217782 
        1.65059        0.240923         0.21587 
        1.65673        0.239061        0.213984 
        1.66285        0.237408        0.212125 
        1.66898        0.235381        0.210288 
        1.67512        0.232995        0.208469 
        1.68127        0.230988        0.206671 
         1.6874        0.229762        0.204897 
        1.69353        0.227278        0.203146 
        1.69967        0.226222        0.201411 
        1.70581        0.223691        0.199697 
        1.71193        0.222143         0.19801 
        1.71806        0.220099        0.196339 
        1.72421        0.219034        0.194684 
        1.73035        0.216858         0.19305 
        1.73649        0.215571        0.191435 
        1.74262        0.213694         0.18984 
        1.74876        0.211944        0.188263 
        1.75489        0.210547        0.186706 
        1.76101        0.208488        0.185168 
        1.76715        0.207002        0.183645 
        1.77329        0.205155        0.182138 
        1.77943        0.203759        0.180646 
        1.78557        0.202562        0.179174 
        1.79171        0.200992        0.177718 
        1.79785        0.199365        0.176278 
        1.80399        0.197824        0.174855 
        1.81012        0.196468        0.173449 
        1.81625        0.194891        0.172059 
        1.82239        0.193572        0.170683 
        1.82853        0.191772        0.169322 
        1.83466        0.190618        0.167977 
        1.84078        0.189152        0.166649 
        1.84692        0.187699        0.165333 
        1.85306        0.186631         0.16403 
         1.8592        0.184922        0.162743 
        1.86533        0.183913         0.16147 
        1.87147        0.182492         0.16021 
        1.87761        0.181381        0.158962 
        1.88375          0.1797         0.15773 
        1.88988        0.178528        0.156512 
        1.89601        0.177077        0.155306 
        1.90215        0.176068        0.154112 
        1.90829        0.174495        0.152931 
        1.91442        0.173766        0.151763 
        1.92056        0.172201        0.150607 
         1.9267        0.170851        0.149463 
        1.93284        0.169701         0.14833 
        1.93897         0.16848        0.147211 
        1.94509        0.167659        0.146106 
        1.95123        0.166301         0.14501 
        1.95737         0.16537        0.143924 
        1.96349        0.164006        0.142852 
        1.96964        0.162765        0.141788 
        1.97578        0.161694        0.140734 
        1.98192        0.160824        0.139693 
        1.98805        0.159865        0.138663 
        1.99419        0.158353        0.137643 
        2.00033        0.157309        0.136633 
        2.00647        0.156657        0.135634 
         2.0126        0.155231        0.134646 
        2.01874        0.154473        0.133666 
        2.02488        0.153351        0.132696 
        2.03101        0.152377        0.131737 
        2.03714        0.151163        0.130788 
        2.04328        0.150438        0.129848 
        2.04941        0.149182        0.128918 
        2.05554         0.14842        0.127997 
        2.06167        0.147654        0.127085 
        2.06781         0.14632        0.126181 
        2.07396        0.145397        0.125285 
        2.08009        0.144476        0.124399 
        2.08622        0.143701        0.123522 
        2.09237        0.142829        0.122653 
        2.09851        0.141922        0.121791 
        2.10464        0.141044         0.12094 
        2.11077         0.13993        0.120098 
        2.11691        0.139155        0.119261 
        2.12305        0.138216        0.118433 
        2.12918        0.137531        0.117615 
        2.13531        0.136453        0.116804 
        2.14145        0.135451        0.115999 
         2.1476        0.134783        0.115201 
        2.15372        0.134213        0.114415 
        2.15985        0.133141        0.113635 
        2.16599        0.132259         0.11286 
        2.17213        0.131553        0.112093 
        2.17827         0.13057        0.111334 
         2.1844        0.130006        0.110582 
        2.19054        0.129116        0.109837 
        2.19666        0.128078          0.1091 
         2.2028        0.127521        0.108369 
        2.20893        0.126963        0.107645 
        2.21508        0.125818        0.106926 
        2.22122        0.125051        0.106214 
        2.22736        0.124622        0.105509 
        2.23349        0.123712        0.104812 
        2.23962        0.123124         0.10412 
        2.24577        0.122194        0.103434 
         2.2519        0.121631        0.102755 
        2.25802        0.120783        0.102083 
        2.26417        0.120179        0.101416 
        2.27031        0.119353        0.100753 
        2.27644        0.118686        0.100099 
        2.28257        0.117977       0.0994507 
        2.28872         0.11737       0.0988068 
        2.29486         0.11686       0.0981687 
        2.30099        0.115919       0.0975377 
        2.30712        0.115352       0.0969119 
        2.31326        0.114451       0.0962906 
         2.3194        0.114306       0.0956751 
        2.32553        0.113492       0.0950661 
        2.33166        0.112991       0.0944626 
         2.3378        0.112207       0.0938636 
        2.34394        0.111516       0.0932696 
        2.35007        0.110878       0.0926816 
        2.35619        0.110102       0.0920995 
        2.36233          0.1096       0.0915209 
        2.36848        0.109151       0.0909462 
        2.37462        0.108295       0.0903776 
        2.38075        0.107918       0.0898145 
        2.38689        0.107322       0.0892557 
        2.39303        0.106852       0.0887018 
        2.39916        0.105992       0.0881532 
        2.40529        0.105551       0.0876093 
        2.41143        0.104871       0.0870695 
        2.41757        0.104315       0.0865342 
         2.4237        0.103911       0.0860043 
        2.42983        0.103243       0.0854789 
        2.43598        0.102895       0.0849566 
        2.44211        0.102121       0.0844395 
        2.44823        0.101794       0.0839279 
        2.45437        0.100973       0.0834191 
        2.46052        0.100622       0.0829142 
        2.46665       0.0999484       0.0824143 
        2.47279       0.0993904       0.0819188 
        2.47892       0.0987341        0.081427 
        2.48507       0.0982601       0.0809388 
         2.4912       0.0978556       0.0804556 
