# k  (h/Mpc)    Pcb(k)  (Mpc/h)^3    Pcb_linear(k)  (Mpc/h)^3
     0.00783031         9149.39         9194.55 
       0.013688         11494.8         11747.8 
       0.019231         12009.3         12158.5 
      0.0249154         11416.1         11405.2 
      0.0312784         9878.36         9959.06 
      0.0375637         8378.92         8499.77 
      0.0433917         7364.88         7395.14 
      0.0492413         6519.97         6593.83 
      0.0555754          5992.6         6017.55 
      0.0619321         5448.37         5621.49 
       0.067871         5202.51         5300.21 
      0.0738098         4881.53         4946.52 
      0.0800417         4463.98         4509.28 
      0.0862327         3975.84         4028.93 
      0.0921407         3550.07         3575.97 
      0.0982031         3192.34         3166.39 
       0.104506         2828.75         2833.02 
       0.110769         2613.58            2601 
       0.116806         2506.29         2454.14 
       0.122832         2371.39         2353.43 
       0.129052         2275.45         2263.78 
       0.135211         2205.93         2161.86 
       0.141259         2052.59         2036.02 
       0.147318         1889.56          1886.9 
       0.153489         1758.92         1725.46 
       0.159709         1654.96         1571.58 
       0.165845         1500.04          1443.2 
       0.171974         1453.21         1345.07 
       0.178125            1395         1275.46 
       0.184229         1301.94         1227.42 
        0.19034         1282.69         1189.68 
       0.196428         1246.99         1152.01 
       0.202534         1169.67         1106.89 
       0.208729         1145.08         1051.14 
       0.214876          1092.4         988.362 
       0.220989         1019.84         924.082 
       0.227147         989.593         863.633 
        0.23329         947.436         812.196 
       0.239377         931.264          771.79 
       0.245482         884.835         740.981 
       0.251667         852.747         716.833 
       0.257832         844.194         695.953 
       0.263955         801.853         674.848 
       0.270079          776.32         651.109 
        0.27624         743.581         623.946 
       0.282372         727.934         594.689 
        0.28843         719.792         565.476 
       0.294538         682.219         537.773 
       0.300721          662.15         513.075 
        0.30691         650.397         492.344 
       0.313033         622.222         475.476 
       0.319153         613.108         461.192 
       0.325316         602.518         448.104 
        0.33145          589.33         435.124 
       0.337538         568.496         421.521 
       0.343633         552.313         406.975 
       0.349808         538.737         391.599 
       0.355968         528.368         376.296 
       0.362074         511.383          361.84 
       0.368217          507.97         348.597 
       0.374374         498.098         336.826 
       0.380519         478.461          326.52 
       0.386598         473.234           317.4 
       0.392688         462.468         308.867 
        0.39888         450.511         300.408 
       0.405048         442.544         291.879 
       0.411186         440.516         283.177 
       0.417313         434.414         274.398 
       0.423458          421.87          265.67 
       0.429607         410.953         257.258 
       0.435692         404.484         249.472 
       0.441815         397.684         242.237 
       0.447964             389         235.564 
       0.454126         384.166          229.39 
       0.460267         378.224         223.578 
       0.466387         371.561         217.951 
        0.47254         366.487         212.371 
       0.478662         357.786         206.852 
       0.484765         353.849         201.371 
       0.490885          349.88         195.955 
       0.497035          343.57          190.69 
       0.503198         342.291         185.661 
       0.509342         333.613         180.909 
       0.515458         328.833          176.44 
       0.521598         322.959         172.206 
       0.527764         318.662         168.153 
       0.533884          317.46         164.262 
           0.54         312.099         160.455 
       0.546137         305.318           156.7 
       0.552299         304.316         153.005 
       0.558452         299.243         149.399 
       0.564573         296.762         145.905 
       0.570708         291.794         142.516 
       0.576825         286.985         139.266 
       0.582926         284.546         136.168 
       0.589034         280.522         133.198 
       0.595184         278.684         130.319 
       0.601379         273.924         127.509 
       0.607522         268.713         124.791 
       0.613639         267.308         122.148 
       0.619772         265.714         119.563 
       0.625918         262.159         117.039 
       0.632068         257.841         114.582 
       0.638161         255.934         112.217 
         0.6443         253.784         109.902 
       0.650464         249.578          107.65 
       0.656582         247.548         105.485 
       0.662703         245.842         103.388 
       0.668861         241.351         101.344 
       0.675024         240.683         99.3578 
       0.681124         237.684         97.4451 
       0.687237         235.374         95.5755 
       0.693381         232.655         93.7402 
       0.699536          230.55         91.9444 
       0.705665         228.215         90.2003 
       0.711789          226.04         88.5023 
       0.717957         223.542         86.8378 
        0.72409         221.193          85.229 
       0.730186         222.113         83.6747 
       0.736317         218.245         82.1544 
       0.742472         215.557         80.6686 
       0.748622         212.646         79.2222 
        0.75476         213.315         77.8145 
       0.760888         210.559         76.4423 
       0.767043         207.644         75.0962 
       0.773185         206.233         73.7841 
       0.779291          203.45         72.5101 
       0.785407         202.621         71.2639 
       0.791564         200.715         70.0392 
       0.797719         197.711         68.8443 
       0.803834         198.666         67.6856 
       0.809972         196.602         66.5504 
       0.816124         193.645         65.4397 
       0.822261         192.138         64.3581 
       0.828378         192.017         63.3048 
       0.834502         189.096         62.2747 
       0.840667         188.871         61.2612 
       0.846816         186.141         60.2733 
       0.852925         185.043         59.3136 
       0.859047         183.242         58.3728 
       0.865192         182.858         57.4494 
       0.871341         180.521         56.5455 
       0.877463         179.006         55.6652 
       0.883569         178.883          54.806 
       0.889708         177.179         53.9608 
       0.895864         175.599         53.1313 
       0.902008         173.916         52.3212 
       0.908149         172.211         51.5286 
       0.914301         171.748         50.7514 
       0.920448         171.134          49.991 
       0.926574         168.727         49.2491 
       0.932687         168.336          48.524 
       0.938823         167.085         47.8109 
       0.944975         165.757         47.1108 
       0.951105         164.257         46.4273 
       0.957225         163.596         45.7586 
       0.963368         162.253         45.1009 
       0.969511         160.528         44.4563 
       0.975621         159.309         43.8278 
       0.981748          158.34           43.21 
       0.987916         157.602         42.6003 
        0.99406         156.583         42.0047 
        1.00019          155.47         41.4218 
        1.00632         154.551         40.8506 
        1.01246         153.465         40.2894 
        1.01859         152.362         39.7397 
        1.02471         151.261         39.2011 
        1.03085         150.204         38.6706 
        1.03698         149.078         38.1512 
        1.04314         148.645         37.6392 
        1.04929         147.947         37.1379 
        1.05541         146.864         36.6477 
        1.06154         145.679         36.1654 
        1.06769         144.715          35.691 
        1.07382         144.019         35.2268 
        1.07993         142.949         34.7719 
        1.08607         141.992         34.3233 
        1.09222          141.18         33.8823 
        1.09836         140.215         33.4495 
        1.10449         139.153         33.0249 
        1.11063         138.404         32.6073 
        1.11677         137.661          32.197 
         1.1229         136.555         31.7947 
        1.12903         135.933         31.3988 
        1.13518         135.006         31.0095 
        1.14131         134.283          30.627 
        1.14745         133.476         30.2513 
        1.15359           132.1         29.8818 
        1.15973         131.776         29.5184 
        1.16584          130.99         29.1627 
        1.17197         130.288         28.8124 
        1.17811         129.134         28.4669 
        1.18424         128.613          28.128 
        1.19038         127.977         27.7937 
        1.19652         127.072          27.465 
        1.20267         126.282         27.1417 
        1.20881         125.439         26.8236 
        1.21495         124.984         26.5112 
        1.22108          124.18         26.2039 
         1.2272         123.232         25.9022 
        1.23334         122.961         25.6045 
        1.23949         122.311         25.3109 
        1.24562          121.35         25.0227 
        1.25174         120.588         24.7395 
        1.25789         119.931         24.4598 
        1.26402         119.519          24.185 
        1.27014         118.755         23.9151 
        1.27628          117.54         23.6485 
        1.28244         117.451         23.3855 
        1.28858         116.428         23.1269 
        1.29471          115.79         22.8728 
        1.30084         115.074         22.6227 
        1.30697         114.678         22.3761 
        1.31312         113.874         22.1328 
        1.31925         113.088         21.8939 
        1.32537         112.707         21.6588 
        1.33151          112.37         21.4263 
        1.33765         111.271         21.1974 
        1.34378         111.059         20.9723 
        1.34992         110.616         20.7504 
        1.35606         109.768         20.5312 
         1.3622         109.562         20.3156 
        1.36833          108.32         20.1036 
        1.37445         108.079         19.8948 
        1.38059         107.559         19.6883 
        1.38675         106.711         19.4843 
        1.39288         106.185          19.284 
        1.39901         105.444         19.0866 
        1.40515         105.116         18.8915 
         1.4113         104.563         18.6993 
        1.41742         103.845         18.5105 
        1.42355          103.58          18.324 
         1.4297         102.766         18.1394 
        1.43585         102.208         17.9576 
        1.44198         101.564         17.7789 
        1.44809         100.888          17.603 
        1.45423         100.742         17.4288 
        1.46036         99.8881         17.2573 
        1.46649         99.3111         17.0881 
        1.47263         99.0008          16.921 
        1.47877         98.3626         16.7563 
        1.48491         97.8894         16.5935 
        1.49104         96.9347         16.4332 
        1.49718         96.8462         16.2749 
        1.50333         96.3644         16.1184 
        1.50947         95.9597         15.9644 
         1.5156         95.5307         15.8126 
        1.52172         94.7527         15.6627 
        1.52787         94.3182         15.5146 
          1.534         93.8387         15.3685 
        1.54013          93.477         15.2245 
        1.54627         92.6908          15.082 
        1.55241         92.4366         14.9414 
        1.55855         91.8126         14.8028 
        1.56467         91.0573         14.6663 
         1.5708          90.741         14.5312 
        1.57695         90.4346         14.3976 
        1.58308         89.9182          14.266 
        1.58922         89.7506         14.1359 
        1.59535         89.3417         14.0076 
         1.6015         88.6926         13.8806 
        1.60764         88.1519         13.7553 
        1.61376         87.7013         13.6319 
        1.61989         87.1606         13.5099 
        1.62604          86.819         13.3891 
        1.63218         86.5334         13.2699 
        1.63831         85.9504         13.1525 
        1.64444         85.5529         13.0364 
        1.65059           85.04         12.9214 
        1.65673         84.6265          12.808 
        1.66285         84.0498         12.6963 
        1.66898         83.6071         12.5858 
        1.67512         83.2516         12.4765 
        1.68127         82.9503         12.3683 
         1.6874         82.4156         12.2617 
        1.69353         81.9328         12.1564 
        1.69967         81.6684         12.0522 
        1.70581         81.2748         11.9491 
        1.71193          80.794         11.8477 
        1.71806         80.3254         11.7473 
        1.72421         79.9977         11.6478 
        1.73035         79.7355         11.5496 
        1.73649         79.1529         11.4525 
        1.74262          78.638         11.3567 
        1.74876         78.3507         11.2618 
        1.75489           77.89         11.1683 
        1.76101         77.4372         11.0758 
        1.76715         77.1748         10.9843 
        1.77329         76.7177         10.8937 
        1.77943         76.4723         10.8041 
        1.78557         76.1244         10.7157 
        1.79171         75.6422         10.6282 
        1.79785         75.1973         10.5417 
        1.80399         74.9458         10.4561 
        1.81012         74.4892         10.3717 
        1.81625         74.1684         10.2882 
        1.82239         73.8633         10.2055 
        1.82853         73.2679         10.1238 
        1.83466         72.9976          10.043 
        1.84078         72.7135         9.96321 
        1.84692         72.5257         9.88416 
        1.85306         72.0651         9.80588 
         1.8592         71.7131         9.72857 
        1.86533         71.3071         9.65214 
        1.87147         70.9154         9.57645 
        1.87761         70.4777         9.50153 
        1.88375         70.1735         9.42752 
        1.88988          69.728         9.35437 
        1.89601         69.5107         9.28196 
        1.90215         69.0398         9.21027 
        1.90829         68.7949         9.13937 
        1.91442         68.4419         9.06921 
        1.92056          68.235         8.99986 
         1.9267         67.7872         8.93116 
        1.93284         67.5432         8.86314 
        1.93897         67.1986         8.79597 
        1.94509          66.808         8.72963 
        1.95123         66.5342         8.66382 
        1.95737         66.1796         8.59863 
        1.96349         65.9125         8.53429 
        1.96964         65.5316         8.47042 
        1.97578         65.1403         8.40718 
        1.98192         64.8268         8.34472 
        1.98805         64.3988         8.28288 
        1.99419          64.206         8.22167 
        2.00033         63.8203         8.16105 
        2.00647         63.5902         8.10106 
         2.0126         63.2536         8.04178 
        2.01874         63.1496         7.98301 
        2.02488         62.7576         7.92477 
        2.03101         62.3972         7.86722 
        2.03714         62.1967          7.8103 
        2.04328         61.7915         7.75388 
        2.04941         61.3161         7.69806 
        2.05554         61.2665         7.64284 
        2.06167         61.0245         7.58809 
        2.06781         60.5805         7.53387 
        2.07396         60.2892          7.4801 
        2.08009         60.0334         7.42695 
        2.08622         59.7378         7.37438 
        2.09237         59.4348         7.32222 
        2.09851         59.0391         7.27055 
        2.10464         58.8618         7.21947 
        2.11077         58.6347         7.16894 
        2.11691         58.3014         7.11879 
        2.12305         57.9533         7.06912 
        2.12918         57.6731         7.02004 
        2.13531         57.4556         6.97142 
        2.14145         57.1174         6.92315 
         2.1476         56.9724         6.87529 
        2.15372         56.6788         6.82812 
        2.15985          56.309         6.78135 
        2.16599         56.0129         6.73488 
        2.17213         55.7823          6.6889 
        2.17827         55.5319         6.64336 
         2.1844         55.2263         6.59829 
        2.19054         55.0639         6.55362 
        2.19666          54.753         6.50944 
         2.2028          54.439         6.46561 
        2.20893          54.154         6.42218 
        2.21508         53.8316         6.37909 
        2.22122         53.6399         6.33639 
        2.22736         53.3538         6.29417 
        2.23349         53.1746         6.25234 
        2.23962          52.941         6.21088 
        2.24577         52.6085         6.16975 
         2.2519         52.4026         6.12906 
        2.25802         52.1347          6.0888 
        2.26417         51.8869         6.04879 
        2.27031         51.6584          6.0091 
        2.27644         51.4909         5.96989 
        2.28257         51.0836         5.93102 
        2.28872         51.0268         5.89244 
        2.29486         50.7331          5.8542 
        2.30099         50.3488         5.81638 
        2.30712         50.2387         5.77888 
        2.31326         50.0025         5.74165 
         2.3194         49.6869         5.70477 
        2.32553         49.5848         5.66828 
        2.33166         49.2267         5.63212 
         2.3378         49.0062         5.59623 
        2.34394         48.7501         5.56065 
        2.35007         48.5246         5.52542 
        2.35619         48.3434         5.49054 
        2.36233         48.0354         5.45588 
        2.36848          47.889         5.42145 
        2.37462          47.542          5.3874 
        2.38075         47.4602         5.35366 
        2.38689         47.2368         5.32019 
        2.39303         46.9955         5.28701 
        2.39916         46.7757         5.25415 
        2.40529          46.569         5.22158 
        2.41143         46.3266         5.18925 
        2.41757         46.1669         5.15719 
         2.4237         45.9781         5.12546 
        2.42983         45.6655         5.09399 
        2.43598         45.4602         5.06271 
        2.44211          45.232         5.03175 
        2.44823         45.0325         5.00111 
        2.45437          44.843         4.97064 
        2.46052         44.5542         4.94041 
        2.46665         44.3726         4.91048 
        2.47279         44.1546          4.8808 
        2.47892         43.9754         4.85136 
        2.48507         43.8736         4.82213 
         2.4912         43.4831         4.79319 
