# k  (h/Mpc)    P(k)  (Mpc/h)^3    P_linear(k)  (Mpc/h)^3
     0.00783031         14112.6         14213.7 
       0.013688         17636.5         18137.4 
       0.019231         18441.7         18760.3 
      0.0249154         17579.1         17591.8 
      0.0312784           15158         15357.4 
      0.0375637         12834.3           13105 
      0.0433917         11298.4         11400.7 
      0.0492413          9989.8         10164.6 
      0.0555754         9179.52         9275.62 
      0.0619321         8302.16         8664.71 
       0.067871         7935.14         8169.21 
      0.0738098         7463.96         7623.85 
      0.0800417         6819.47         6949.77 
      0.0862327         6078.34         6209.33 
      0.0921407         5447.03         5511.15 
      0.0982031         4919.97         4879.84 
       0.104506         4362.93         4366.02 
       0.110769         4040.18          4008.4 
       0.116806         3877.52         3782.05 
       0.122832         3671.59         3626.82 
       0.129052         3503.86         3488.64 
       0.135211         3412.32         3331.55 
       0.141259         3166.98          3137.6 
       0.147318          2926.2         2907.79 
       0.153489         2736.58         2658.99 
       0.159709         2601.63         2421.85 
       0.165845         2366.17            2224 
       0.171974         2297.16         2072.78 
       0.178125          2220.3          1965.5 
       0.184229         2057.24         1891.47 
        0.19034         2034.81         1833.31 
       0.196428          1981.5         1775.25 
       0.202534         1864.45         1705.71 
       0.208729         1826.97          1619.8 
       0.214876         1743.04         1523.06 
       0.220989         1648.37            1424 
       0.227147         1600.04         1330.85 
        0.23329         1534.54         1251.58 
       0.239377         1523.25         1189.32 
       0.245482         1451.48         1141.84 
       0.251667         1400.13         1104.63 
       0.257832         1380.47         1072.45 
       0.263955         1318.51         1039.93 
       0.270079         1283.68         1003.35 
        0.27624          1230.5         961.484 
       0.282372         1214.19           916.4 
        0.28843         1194.04         871.382 
       0.294538         1138.09         828.693 
       0.300721         1115.15         790.632 
        0.30691         1089.41         758.683 
       0.313033         1046.97         732.696 
       0.319153         1035.86         710.682 
       0.325316         1022.46         690.512 
        0.33145         1000.63         670.515 
       0.337538         967.553         649.552 
       0.343633         944.992         627.132 
       0.349808         926.685         603.441 
       0.355968         909.015         579.859 
       0.362074         880.289         557.579 
       0.368217         878.003         537.177 
       0.374374         864.662         519.035 
       0.380519         833.615         503.154 
       0.386598         828.708         489.101 
       0.392688         808.508         475.951 
        0.39888         790.809         462.917 
       0.405048         775.868         449.773 
       0.411186         774.141         436.363 
       0.417313         769.476         422.838 
       0.423458         746.008         409.386 
       0.429607         725.978         396.423 
       0.435692         719.425         384.426 
       0.441815         705.863         373.278 
       0.447964         696.702         362.992 
       0.454126          688.05         353.482 
       0.460267         678.691         344.524 
       0.466387         667.358         335.854 
        0.47254         656.807         327.254 
       0.478662         647.027         318.752 
       0.484765         640.339         310.302 
       0.490885         633.598         301.959 
       0.497035         621.513         293.844 
       0.503198         620.928         286.095 
       0.509342         609.053         278.772 
       0.515458         597.154         271.886 
       0.521598         594.381         265.361 
       0.527764         581.372         259.115 
       0.533884         576.578         253.121 
           0.54         571.506         247.254 
       0.546137         562.531         241.468 
       0.552299         560.231         235.774 
       0.558452         552.601         230.217 
       0.564573         548.428         224.833 
       0.570708          542.61          219.61 
       0.576825         531.907         214.602 
       0.582926         530.386         209.828 
       0.589034          522.49         205.252 
       0.595184         517.881         200.816 
       0.601379         510.088         196.485 
       0.607522         501.696         192.297 
       0.613639         500.954         188.224 
       0.619772         498.208         184.241 
       0.625918         489.297         180.352 
       0.632068         486.816         176.566 
       0.638161         481.666          172.92 
         0.6443         475.992         169.354 
       0.650464          471.82         165.883 
       0.656582          468.15         162.546 
       0.662703         463.674         159.316 
       0.668861          457.42         156.166 
       0.675024         455.085         153.105 
       0.681124         447.314         150.158 
       0.687237         446.651         147.277 
       0.693381         439.913         144.449 
       0.699536         439.409         141.682 
       0.705665         433.523         138.994 
       0.711789         432.314         136.378 
       0.717957         426.369         133.813 
        0.72409         422.307         131.333 
       0.730186         423.202         128.939 
       0.736317         416.168         126.596 
       0.742472         412.365         124.306 
       0.748622         410.113         122.077 
        0.75476         406.486         119.908 
       0.760888         403.701         117.794 
       0.767043         400.666         115.719 
       0.773185         397.794         113.698 
       0.779291         393.314         111.734 
       0.785407          390.84         109.814 
       0.791564         388.329         107.927 
       0.797719         382.298         106.086 
       0.803834         384.292           104.3 
       0.809972          378.11         102.551 
       0.816124         374.915         100.839 
       0.822261         372.418         99.1725 
       0.828378         370.832         97.5494 
       0.834502         364.989         95.9621 
       0.840667         365.101         94.4003 
       0.846816         359.671          92.878 
       0.852925          360.27         91.3991 
       0.859047         356.798         89.9494 
       0.865192         354.948         88.5265 
       0.871341         350.402         87.1336 
       0.877463         348.842         85.7772 
       0.883569         345.997         84.4533 
       0.889708         342.784         83.1507 
       0.895864         339.382         81.8726 
       0.902008         338.297         80.6242 
       0.908149          335.25         79.4029 
       0.914301         333.835         78.2052 
       0.920448         330.903         77.0336 
       0.926574         328.882         75.8903 
       0.932687         327.842         74.7729 
       0.938823         324.007         73.6742 
       0.944975         323.283         72.5952 
       0.951105         320.283          71.542 
       0.957225         316.459         70.5116 
       0.963368         317.113         69.4982 
       0.969511         311.509         68.5048 
       0.975621          310.47         67.5364 
       0.981748         309.346         66.5843 
       0.987916         307.398         65.6448 
        0.99406         304.556          64.727 
        1.00019         301.803         63.8288 
        1.00632         301.532         62.9486 
        1.01246         298.844         62.0838 
        1.01859         295.749         61.2368 
        1.02471         294.095         60.4068 
        1.03085         293.099         59.5894 
        1.03698         291.455          58.789 
        1.04314         290.122              58 
        1.04929         288.342         57.2275 
        1.05541         285.327         56.4722 
        1.06154         283.637         55.7289 
        1.06769         281.229         54.9979 
        1.07382         279.779         54.2826 
        1.07993         278.085         53.5817 
        1.08607         276.575         52.8904 
        1.09222         274.286         52.2108 
        1.09836         273.423         51.5439 
        1.10449         271.468         50.8896 
        1.11063         269.542         50.2461 
        1.11677         266.966         49.6139 
         1.1229         266.596         48.9939 
        1.12903         264.183          48.384 
        1.13518         262.397          47.784 
        1.14131         261.579         47.1946 
        1.14745         258.737         46.6156 
        1.15359         256.928         46.0463 
        1.15973         255.912         45.4863 
        1.16584         254.364         44.9382 
        1.17197          252.97         44.3984 
        1.17811         250.681         43.8659 
        1.18424         249.403         43.3438 
        1.19038         248.367         42.8286 
        1.19652         245.466         42.3221 
        1.20267         245.056         41.8239 
        1.20881           243.2         41.3338 
        1.21495         242.523         40.8524 
        1.22108         240.615         40.3788 
         1.2272         238.037         39.9138 
        1.23334          237.37         39.4552 
        1.23949         236.037         39.0027 
        1.24562         234.576         38.5587 
        1.25174         233.264         38.1222 
        1.25789          231.11         37.6912 
        1.26402         230.861         37.2677 
        1.27014         229.743         36.8518 
        1.27628         227.657          36.441 
        1.28244         226.088         36.0358 
        1.28858         225.015         35.6373 
        1.29471         223.708         35.2457 
        1.30084         222.853         34.8604 
        1.30697         220.591         34.4803 
        1.31312         219.449         34.1054 
        1.31925         218.173         33.7373 
        1.32537         217.454          33.375 
        1.33151         215.815         33.0168 
        1.33765         214.245         32.6641 
        1.34378         213.412         32.3172 
        1.34992         211.555         31.9752 
        1.35606         210.732         31.6375 
         1.3622         209.172         31.3052 
        1.36833         208.164         30.9786 
        1.37445         207.719         30.6568 
        1.38059         205.339         30.3386 
        1.38675         204.134         30.0242 
        1.39288         203.197         29.7155 
        1.39901         201.518         29.4114 
        1.40515         200.965         29.1108 
         1.4113          199.45         28.8146 
        1.41742         197.958         28.5237 
        1.42355          197.81         28.2362 
         1.4297         196.241         27.9519 
        1.43585         195.322         27.6716 
        1.44198         193.585         27.3963 
        1.44809         192.959         27.1252 
        1.45423         191.814         26.8569 
        1.46036         190.607         26.5926 
        1.46649          189.46         26.3319 
        1.47263         188.735         26.0744 
        1.47877         187.326         25.8205 
        1.48491         185.913         25.5696 
        1.49104          184.34         25.3226 
        1.49718         183.991         25.0787 
        1.50333         182.308         24.8376 
        1.50947          181.68         24.6002 
         1.5156         180.597         24.3663 
        1.52172         179.686         24.1354 
        1.52787         178.603         23.9071 
          1.534         177.889          23.682 
        1.54013         176.516         23.4601 
        1.54627         175.725         23.2406 
        1.55241         174.848         23.0239 
        1.55855         173.917         22.8103 
        1.56467         172.844            22.6 
         1.5708         171.388         22.3918 
        1.57695         170.789         22.1859 
        1.58308         169.574         21.9831 
        1.58922         168.659         21.7827 
        1.59535         167.412         21.5849 
         1.6015         166.833         21.3893 
        1.60764          165.61         21.1962 
        1.61376          164.49          21.006 
        1.61989         163.808          20.818 
        1.62604         162.748         20.6319 
        1.63218         161.934         20.4482 
        1.63831         161.168         20.2672 
        1.64444         159.871         20.0884 
        1.65059         159.179         19.9112 
        1.65673         158.171         19.7364 
        1.66285         157.521         19.5642 
        1.66898         156.528          19.394 
        1.67512         155.485         19.2256 
        1.68127         154.818         19.0589 
         1.6874         153.786         18.8947 
        1.69353         153.258         18.7324 
        1.69967         151.991         18.5717 
        1.70581         151.618          18.413 
        1.71193         150.455         18.2567 
        1.71806           149.2         18.1019 
        1.72421         148.642         17.9486 
        1.73035         147.786         17.7972 
        1.73649          146.75         17.6477 
        1.74262         146.311            17.5 
        1.74876         145.473         17.3539 
        1.75489         144.928         17.2097 
        1.76101         143.551         17.0673 
        1.76715         142.782         16.9263 
        1.77329         141.849         16.7867 
        1.77943         141.043         16.6486 
        1.78557         140.398         16.5123 
        1.79171         139.681         16.3775 
        1.79785         138.668         16.2441 
        1.80399         138.093         16.1124 
        1.81012         137.315         15.9822 
        1.81625         136.445         15.8535 
        1.82239         135.845         15.7261 
        1.82853         134.881         15.6002 
        1.83466         133.847         15.4757 
        1.84078         133.573         15.3528 
        1.84692          132.97          15.231 
        1.85306         131.955         15.1103 
         1.8592         131.457         14.9912 
        1.86533         130.362         14.8734 
        1.87147         129.772         14.7568 
        1.87761         128.977         14.6413 
        1.88375         128.042         14.5273 
        1.88988         127.578         14.4146 
        1.89601         127.142          14.303 
        1.90215         126.582         14.1925 
        1.90829         125.245         14.0833 
        1.91442         124.569         13.9752 
        1.92056         124.048         13.8683 
         1.9267         123.356         13.7624 
        1.93284         122.464         13.6576 
        1.93897         122.008         13.5541 
        1.94509         121.274         13.4519 
        1.95123         120.695         13.3505 
        1.95737         120.037           13.25 
        1.96349         119.256         13.1509 
        1.96964         118.551         13.0525 
        1.97578         117.947          12.955 
        1.98192         117.562         12.8587 
        1.98805         116.885         12.7635 
        1.99419         115.816         12.6691 
        2.00033         115.464         12.5757 
        2.00647         114.961         12.4833 
         2.0126         114.155         12.3919 
        2.01874         113.645         12.3014 
        2.02488         112.856         12.2116 
        2.03101         112.457         12.1229 
        2.03714          111.68         12.0352 
        2.04328         111.309         11.9483 
        2.04941         110.749         11.8623 
        2.05554         110.135         11.7772 
        2.06167         109.243         11.6928 
        2.06781         108.776         11.6093 
        2.07396         108.185         11.5264 
        2.08009         107.428         11.4445 
        2.08622         107.003         11.3635 
        2.09237         106.181         11.2831 
        2.09851         105.885         11.2035 
        2.10464         105.353         11.1248 
        2.11077         104.644         11.0469 
        2.11691         104.216         10.9697 
        2.12305         103.633         10.8931 
        2.12918         103.011         10.8175 
        2.13531         102.365         10.7426 
        2.14145         101.988         10.6682 
         2.1476         101.366         10.5944 
        2.15372         100.734         10.5218 
        2.15985         100.253         10.4497 
        2.16599         99.5974         10.3781 
        2.17213         99.0803         10.3072 
        2.17827         98.5142         10.2371 
         2.1844         98.2036         10.1676 
        2.19054         97.5364         10.0988 
        2.19666         96.8043         10.0307 
         2.2028         96.5724         9.96315 
        2.20893         96.1602         9.89622 
        2.21508         95.4703         9.82983 
        2.22122         94.9768         9.76403 
        2.22736         94.6938         9.69897 
        2.23349         93.9813         9.63452 
        2.23962         93.4677         9.57062 
        2.24577         93.0254         9.50725 
         2.2519         92.4433         9.44454 
        2.25802         92.0764          9.3825 
        2.26417         91.4089         9.32085 
        2.27031         90.8387         9.25969 
        2.27644         90.5539         9.19926 
        2.28257         90.0735         9.13938 
        2.28872         89.6078         9.07992 
        2.29486         89.3884           9.021 
        2.30099          88.595         8.96272 
        2.30712         88.2985         8.90494 
        2.31326         87.7879         8.84757 
         2.3194         87.3105         8.79074 
        2.32553          86.839         8.73451 
        2.33166         86.3429         8.67879 
         2.3378         85.8949         8.62348 
        2.34394         85.5072         8.56865 
        2.35007         84.8604         8.51436 
        2.35619         84.5739         8.46062 
        2.36233         84.0502         8.40721 
        2.36848         83.5859         8.35416 
        2.37462          83.395         8.30168 
        2.38075          82.758          8.2497 
        2.38689         82.3951         8.19812 
        2.39303         82.0238         8.14699 
        2.39916         81.5519         8.09636 
        2.40529          81.216         8.04616 
        2.41143         80.7625         7.99635 
        2.41757         80.1855         7.94694 
         2.4237         79.7883         7.89804 
        2.42983         79.3535         7.84956 
        2.43598         79.0852         7.80136 
        2.44211         78.7861         7.75364 
        2.44823         78.2795         7.70643 
        2.45437         77.8905         7.65948 
        2.46052         77.4175         7.61289 
        2.46665         76.8211         7.56677 
        2.47279         76.6794         7.52104 
        2.47892         76.3225         7.47567 
        2.48507          75.902         7.43063 
         2.4912         75.3906         7.38604 
