# k  (h/Mpc)    Pcb(k)  (Mpc/h)^3    Pcb_linear(k)  (Mpc/h)^3
     0.00783031         4950.55         5009.16 
       0.013688         5880.85         5864.97 
       0.019231         5649.38         5639.04 
      0.0249154         4883.93         4930.48 
      0.0312784         4002.43         4008.71 
      0.0375637          3247.7         3231.04 
      0.0433917         2704.72         2712.48 
      0.0492413         2381.05         2375.33 
      0.0555754         2134.34         2155.61 
      0.0619321         2025.14         2008.91 
       0.067871         1863.46          1878.5 
      0.0738098         1708.25         1721.91 
      0.0800417         1507.66         1525.97 
      0.0862327         1316.37         1319.87 
      0.0921407          1147.3            1139 
      0.0982031         993.274         989.421 
       0.104506         901.005          880.24 
       0.110769         830.872         813.298 
       0.116806         785.041         775.201 
       0.122832         759.884         747.857 
       0.129052         718.425         716.775 
       0.135211         677.519         674.776 
       0.141259         632.579         622.002 
       0.147318         578.755         563.052 
       0.153489         518.626         504.795 
       0.159709         473.769         454.943 
       0.165845         442.501         417.968 
       0.171974         412.992         392.902 
       0.178125         396.756         376.648 
       0.184229         384.128         364.973 
        0.19034         363.981         353.427 
       0.196428         354.861         339.085 
       0.202534         340.739         320.882 
       0.208729          318.06         299.513 
       0.214876         295.613         277.635 
       0.220989         279.739         257.535 
       0.227147         261.444         240.594 
        0.23329         248.619         227.547 
       0.239377          241.03         217.955 
       0.245482         227.268         210.556 
       0.251667         224.181         203.958 
       0.257832          216.94         197.081 
       0.263955         208.586         189.306 
       0.270079         199.567         180.542 
        0.27624         193.743         171.175 
       0.282372         185.082         162.002 
        0.28843         176.357         153.693 
       0.294538         168.234         146.469 
       0.300721         164.766         140.399 
        0.30691         157.226         135.364 
       0.313033         153.058          131.03 
       0.319153         146.447         126.939 
       0.325316         143.707         122.746 
        0.33145         138.174         118.358 
       0.337538         135.142         113.808 
       0.343633          129.97         109.216 
       0.349808         125.624         104.715 
       0.355968         122.425          100.56 
       0.362074         118.483         96.8529 
       0.368217         114.904         93.5496 
       0.374374         111.406         90.5827 
       0.380519          108.96         87.8473 
       0.386598         106.005         85.2542 
       0.392688         103.974         82.6742 
        0.39888         101.049         80.0399 
       0.405048         98.3982         77.4161 
       0.411186         96.0249         74.8429 
       0.417313         93.2829         72.3741 
       0.423458         90.9659         70.0416 
       0.429607         88.6439         67.8678 
       0.435692         85.6015         65.8774 
       0.441815         84.6845         64.0091 
       0.447964         83.1612         62.2287 
       0.454126         79.4608         60.5099 
       0.460267         78.4653         58.8395 
       0.466387          76.753         57.2011 
        0.47254         75.2771         55.5833 
       0.478662          74.241         54.0188 
       0.484765         71.9221          52.516 
       0.490885         70.4922          51.074 
       0.497035         69.5992         49.6963 
       0.503198         67.5901          48.389 
       0.509342         66.0122         47.1478 
       0.515458         64.8802         45.9614 
       0.521598          63.853         44.8095 
       0.527764           62.73         43.6869 
       0.533884         61.7314         42.6029 
           0.54         60.3168         41.5477 
       0.546137         59.6246          40.518 
       0.552299         58.6704         39.5181 
       0.558452         57.0443         38.5574 
       0.564573          56.026         37.6394 
       0.570708         55.2436         36.7542 
       0.576825         54.2785         35.9033 
       0.582926         53.0806         35.0833 
       0.589034         51.9768         34.2883 
       0.595184         51.2956         33.5123 
       0.601379         50.4811         32.7533 
       0.607522         49.3054         32.0215 
       0.613639         49.0682         31.3132 
       0.619772         47.8921         30.6238 
       0.625918         47.4526         29.9543 
       0.632068         46.7945         29.3062 
       0.638161         46.0358          28.685 
         0.6443          45.279         28.0789 
       0.650464         44.5852         27.4887 
       0.656582         44.1191         26.9197 
       0.662703         43.2276         26.3662 
       0.668861         42.6049         25.8244 
       0.675024         42.0137         25.2971 
       0.681124         41.2979         24.7898 
       0.687237          40.569         24.2955 
       0.693381         40.2472         23.8127 
       0.699536         39.4194         23.3426 
       0.705665         39.5271         22.8875 
       0.711789         38.4696         22.4452 
       0.717957         38.0319         22.0117 
        0.72409         37.5347         21.5922 
       0.730186         36.9342         21.1861 
       0.736317         36.7012         20.7883 
       0.742472         36.0922         20.3993 
       0.748622         35.7351         20.0206 
        0.75476          35.257         19.6525 
       0.760888         34.6855         19.2943 
       0.767043         34.2773         18.9437 
       0.773185         33.8019         18.6028 
       0.779291         33.6448         18.2722 
       0.785407          33.301         17.9493 
       0.791564         32.7563         17.6323 
       0.797719         32.0824         17.3231 
       0.803834         32.0216         17.0234 
       0.809972         31.5586         16.7297 
       0.816124         31.0589         16.4423 
       0.822261         30.7821         16.1625 
       0.828378           30.59         15.8901 
       0.834502         30.2107         15.6238 
       0.840667         29.8741         15.3619 
       0.846816         29.3811         15.1067 
       0.852925         29.1378         14.8591 
       0.859047         28.7792         14.6165 
       0.865192         28.5019         14.3786 
       0.871341         28.3905         14.1459 
       0.877463         27.8104         13.9194 
       0.883569         27.5594         13.6985 
       0.889708         27.3037         13.4813 
       0.895864          27.027         13.2683 
       0.902008         26.7939         13.0603 
       0.908149         26.5252          12.857 
       0.914301         26.4321         12.6577 
       0.920448         26.0043         12.4628 
       0.926574         25.7545         12.2728 
       0.932687         25.4996         12.0871 
       0.938823         25.1407         11.9047 
       0.944975         25.0078         11.7256 
       0.951105         24.7523         11.5509 
       0.957225         24.4495           11.38 
       0.963368         24.4127         11.2121 
       0.969511         24.1392         11.0475 
       0.975621         23.9454         10.8872 
       0.981748         23.5893         10.7297 
       0.987916         23.4679         10.5743 
        0.99406         23.2396         10.4226 
        1.00019         22.9653         10.2742 
        1.00632         22.8175         10.1289 
        1.01246         22.7122         9.98613 
        1.01859         22.3278         9.84639 
        1.02471         22.2985         9.70952 
        1.03085         22.0891         9.57479 
        1.03698         21.7413         9.44292 
        1.04314         21.6168         9.31299 
        1.04929         21.4158         9.18583 
        1.05541         21.1957         9.06156 
        1.06154         21.1072          8.9393 
        1.06769         20.9632         8.81912 
        1.07382         20.7445         8.70156 
        1.07993          20.636         8.58643 
        1.08607         20.3677         8.47291 
        1.09222         20.2869         8.36134 
        1.09836         20.0623         8.25193 
        1.10449          19.924          8.1446 
        1.11063          19.673         8.03908 
        1.11677         19.6169         7.93547 
         1.1229         19.5032         7.83388 
        1.12903         19.2537         7.73398 
        1.13518         19.1148         7.63575 
        1.14131         19.0533         7.53929 
        1.14745          18.856         7.44455 
        1.15359         18.7911         7.35144 
        1.15973         18.5679         7.25989 
        1.16584         18.3639         7.17032 
        1.17197          18.373         7.08214 
        1.17811         18.1277         6.99517 
        1.18424         17.9894         6.90993 
        1.19038         17.9419         6.82588 
        1.19652         17.8171         6.74326 
        1.20267         17.6786         6.66201 
        1.20881         17.5245         6.58213 
        1.21495         17.4285         6.50369 
        1.22108          17.285         6.42655 
         1.2272         17.1219         6.35085 
        1.23334         17.0595          6.2762 
        1.23949         16.9051         6.20258 
        1.24562         16.8173         6.13035 
        1.25174         16.7194         6.05939 
        1.25789         16.5722         5.98934 
        1.26402         16.5097         5.92053 
        1.27014         16.3204         5.85297 
        1.27628         16.2137         5.78627 
        1.28244         16.1513         5.72048 
        1.28858         16.0766         5.65581 
        1.29471         15.9419         5.59229 
        1.30084         15.8209          5.5298 
        1.30697         15.7259         5.46818 
        1.31312         15.5678         5.40741 
        1.31925         15.4815         5.34777 
        1.32537         15.4357         5.28908 
        1.33151         15.3056         5.23107 
        1.33765         15.2411         5.17397 
        1.34378         15.1406         5.11783 
        1.34992         14.9688         5.06249 
        1.35606          14.947         5.00786 
         1.3622         14.8522         4.95413 
        1.36833         14.7201         4.90132 
        1.37445         14.7041         4.84931 
        1.38059         14.5693          4.7979 
        1.38675         14.4034         4.74711 
        1.39288         14.3966         4.69726 
        1.39901         14.2816         4.64815 
        1.40515         14.2283         4.59964 
         1.4113         14.1189         4.55184 
        1.41742         14.0004          4.5049 
        1.42355         13.9672         4.45854 
         1.4297         13.9038          4.4127 
        1.43585         13.8322         4.36752 
        1.44198         13.7199         4.32314 
        1.44809          13.634         4.27948 
        1.45423         13.5669         4.23625 
        1.46036          13.501          4.1937 
        1.46649         13.4311         4.15173 
        1.47263         13.3174          4.1103 
        1.47877         13.2539         4.06945 
        1.48491         13.2167          4.0291 
        1.49104         13.1534         3.98938 
        1.49718          13.035         3.95017 
        1.50333         12.9929         3.91142 
        1.50947          12.917         3.87328 
         1.5156         12.8178         3.83571 
        1.52172         12.7592         3.79863 
        1.52787          12.716         3.76197 
          1.534          12.612         3.72584 
        1.54013         12.5167         3.69023 
        1.54627         12.4657         3.65502 
        1.55241         12.4042         3.62026 
        1.55855         12.3259         3.58601 
        1.56467         12.2678         3.55229 
         1.5708         12.2536         3.51892 
        1.57695         12.1391         3.48592 
        1.58308          12.113         3.45343 
        1.58922         12.0436         3.42132 
        1.59535         11.9639         3.38964 
         1.6015         11.8927         3.35832 
        1.60764          11.852          3.3274 
        1.61376         11.7791         3.29696 
        1.61989         11.6964         3.26688 
        1.62604         11.6897         3.23711 
        1.63218         11.6091         3.20773 
        1.63831         11.5734         3.17878 
        1.64444         11.4631         3.15018 
        1.65059         11.4126         3.12186 
        1.65673         11.3909         3.09392 
        1.66285         11.2917         3.06641 
        1.66898         11.2838         3.03922 
        1.67512         11.2219         3.01231 
        1.68127         11.1672          2.9857 
         1.6874         11.0904         2.95947 
        1.69353         11.0221         2.93358 
        1.69967         10.9886         2.90793 
        1.70581         10.9505          2.8826 
        1.71193         10.8779         2.85767 
        1.71806         10.8283         2.83299 
        1.72421         10.7729         2.80854 
        1.73035         10.7147         2.78442 
        1.73649         10.6837         2.76058 
        1.74262         10.6625         2.73704 
        1.74876         10.5982         2.71377 
        1.75489         10.5445         2.69081 
        1.76101         10.4672         2.66812 
        1.76715         10.4581         2.64567 
        1.77329         10.3725         2.62345 
        1.77943         10.3293         2.60147 
        1.78557          10.309         2.57978 
        1.79171         10.2671         2.55834 
        1.79785         10.1783         2.53713 
        1.80399         10.1523         2.51617 
        1.81012         10.1334         2.49547 
        1.81625         10.0626         2.47502 
        1.82239         10.0249         2.45477 
        1.82853         9.95417         2.43475 
        1.83466          9.9049         2.41498 
        1.84078         9.85604         2.39544 
        1.84692         9.84464         2.37609 
        1.85306         9.78467         2.35693 
         1.8592         9.74546         2.33802 
        1.86533         9.72288         2.31932 
        1.87147         9.66748          2.3008 
        1.87761         9.64039         2.28248 
        1.88375         9.55355         2.26438 
        1.88988         9.54264          2.2465 
        1.89601         9.50383          2.2288 
        1.90215         9.45291         2.21128 
        1.90829         9.41502         2.19395 
        1.91442         9.37831         2.17681 
        1.92056         9.33698         2.15987 
         1.9267         9.29845         2.14309 
        1.93284         9.24488         2.12648 
        1.93897          9.2075         2.11008 
        1.94509         9.16274         2.09389 
        1.95123         9.14305         2.07782 
        1.95737         9.11166         2.06192 
        1.96349         9.06739         2.04622 
        1.96964         9.01201         2.03064 
        1.97578         8.98059         2.01521 
        1.98192         8.94207         1.99998 
        1.98805         8.92037          1.9849 
        1.99419         8.86334         1.96998 
        2.00033         8.83338          1.9552 
        2.00647         8.79963         1.94058 
         2.0126         8.76589         1.92614 
        2.01874         8.71618         1.91182 
        2.02488          8.6709         1.89763 
        2.03101         8.66754         1.88362 
        2.03714         8.62753         1.86976 
        2.04328         8.58647         1.85602 
        2.04941         8.52976         1.84243 
        2.05554         8.52858         1.82899 
        2.06167         8.47583         1.81567 
        2.06781         8.46282         1.80247 
        2.07396         8.43723         1.78939 
        2.08009          8.3994         1.77646 
        2.08622          8.3236         1.76368 
        2.09237         8.33153         1.75099 
        2.09851         8.29055         1.73843 
        2.10464         8.25059         1.72601 
        2.11077         8.20503         1.71373 
        2.11691         8.18217         1.70154 
        2.12305         8.16443         1.68947 
        2.12918         8.11762         1.67755 
        2.13531         8.09809         1.66574 
        2.14145          8.0579         1.65401 
         2.1476          8.0493         1.64239 
        2.15372         8.00697         1.63094 
        2.15985         7.96407         1.61958 
        2.16599         7.95198          1.6083 
        2.17213         7.91333         1.59714 
        2.17827         7.89095         1.58609 
         2.1844         7.85345         1.57515 
        2.19054         7.81606         1.56431 
        2.19666         7.80286         1.55359 
         2.2028         7.76873         1.54296 
        2.20893         7.74886         1.53243 
        2.21508         7.69974         1.52198 
        2.22122          7.6709         1.51162 
        2.22736         7.65324         1.50139 
        2.23349         7.60686         1.49125 
        2.23962         7.59467          1.4812 
        2.24577         7.56012         1.47123 
         2.2519         7.54651         1.46137 
        2.25802         7.50814         1.45162 
        2.26417          7.4899         1.44193 
        2.27031         7.43826         1.43231 
        2.27644         7.42391         1.42282 
        2.28257         7.39858         1.41341 
        2.28872         7.37492         1.40406 
        2.29486         7.34753         1.39481 
        2.30099         7.34243         1.38565 
        2.30712         7.29494         1.37658 
        2.31326         7.27137         1.36757 
         2.3194         7.24158         1.35865 
        2.32553         7.21628         1.34982 
        2.33166         7.17987         1.34107 
         2.3378         7.16493         1.33239 
        2.34394          7.1448         1.32378 
        2.35007          7.1089         1.31526 
        2.35619         7.07716         1.30683 
        2.36233         7.05448         1.29845 
        2.36848         7.04817         1.29013 
        2.37462         7.02121          1.2819 
        2.38075         6.97913         1.27375 
        2.38689         6.95733         1.26566 
        2.39303         6.93441         1.25764 
        2.39916         6.92443          1.2497 
        2.40529         6.89386         1.24184 
        2.41143         6.87452         1.23403 
        2.41757         6.85144         1.22629 
         2.4237         6.82912         1.21862 
        2.42983         6.79308         1.21103 
        2.43598          6.7933         1.20348 
        2.44211         6.75449           1.196 
        2.44823         6.72687         1.18861 
        2.45437         6.71984         1.18126 
        2.46052          6.6782         1.17396 
        2.46665         6.65817         1.16674 
        2.47279         6.63252         1.15958 
        2.47892         6.61773         1.15248 
        2.48507          6.5892         1.14543 
         2.4912         6.57402         1.13845 
