# k  (h/Mpc)    Pcb(k)  (Mpc/h)^3    Pcb_linear(k)  (Mpc/h)^3
     0.00783031         12597.7         12649.8 
       0.013688         15927.1         16332.6 
       0.019231         16985.8         17250.7 
      0.0249154         16626.5           16648 
      0.0312784         14849.6         15062.6 
      0.0375637         12967.1         13265.7 
      0.0433917         11629.5         11769.5 
      0.0492413         10351.8         10574.4 
      0.0555754         9484.16         9624.59 
      0.0619321         8526.54         8933.33 
       0.067871         8135.61         8406.42 
      0.0738098         7693.41         7896.03 
      0.0800417         7130.36         7316.13 
      0.0862327         6481.34         6685.11 
      0.0921407         5909.71         6063.06 
      0.0982031            5401         5454.72 
       0.104506         4810.13         4903.38 
       0.110769         4422.52          4465.5 
       0.116806         4200.23         4148.43 
       0.122832         3933.07         3915.77 
       0.129052          3738.3         3731.58 
       0.135211         3643.36         3570.46 
       0.141259         3413.49         3405.75 
       0.147318         3189.69          3220.1 
       0.153489          3024.3          3009.8 
       0.159709         2900.35         2788.13 
       0.165845         2642.83         2576.89 
       0.171974         2560.99          2388.6 
       0.178125         2461.89         2231.59 
       0.184229         2266.66         2108.88 
        0.19034         2232.18         2013.98 
       0.196428         2171.39         1937.95 
       0.202534         2050.34          1869.7 
       0.208729         2016.46          1799.4 
       0.214876         1937.42          1723.1 
       0.220989         1841.83         1639.82 
       0.227147         1794.43         1551.47 
        0.23329         1724.37         1463.99 
       0.239377         1708.78         1383.15 
       0.245482         1626.82         1311.65 
       0.251667         1566.56         1250.54 
       0.257832         1543.59          1200.1 
       0.263955         1475.82         1157.87 
       0.270079         1440.02         1120.12 
        0.27624         1381.96         1083.43 
       0.282372         1366.59         1045.96 
        0.28843         1346.74         1007.03 
       0.294538         1285.55         966.242 
       0.300721          1260.4         924.707 
        0.30691         1232.52         884.556 
       0.313033         1185.71         847.734 
       0.319153         1172.57         814.664 
       0.325316         1158.53         785.295 
        0.33145         1135.38         759.434 
       0.337538         1098.82         736.189 
       0.343633         1073.91         714.264 
       0.349808         1054.27         692.518 
       0.355968         1034.45         670.731 
       0.362074         1004.28         648.869 
       0.368217          1001.7         626.872 
       0.374374         986.714         605.223 
       0.380519         952.707          584.54 
       0.386598         947.917         565.352 
       0.392688         925.836         547.574 
        0.39888         905.702         530.975 
       0.405048         890.184         515.666 
       0.411186         887.304         501.347 
       0.417313         884.507         487.642 
       0.423458         857.097         474.197 
       0.429607         834.153         460.932 
       0.435692         827.654         447.966 
       0.441815         812.471         435.132 
       0.447964         803.182         422.619 
       0.454126         792.758         410.591 
       0.460267         782.775         399.188 
       0.466387         771.231         388.451 
        0.47254         757.838         378.267 
       0.478662         748.208         368.642 
       0.484765         741.382         359.452 
       0.490885         732.838         350.557 
       0.497035         720.208          341.86 
       0.503198         719.606         333.333 
       0.509342         706.246          325.02 
       0.515458         692.802         316.965 
       0.521598         689.909         309.123 
       0.527764         675.004          301.52 
       0.533884         669.855         294.266 
           0.54         664.006         287.326 
       0.546137         654.773         280.647 
       0.552299          651.79         274.192 
       0.558452         644.083         267.968 
       0.564573         638.308         261.967 
       0.570708         632.877         256.123 
       0.576825         620.372         250.448 
       0.582926         618.664         244.931 
       0.589034         610.488         239.552 
       0.595184         604.643         234.294 
       0.601379         595.782         229.167 
       0.607522         587.186         224.251 
       0.613639         586.406         219.516 
       0.619772         582.885         214.918 
       0.625918         573.234         210.455 
       0.632068         569.921         206.123 
       0.638161         563.585         201.954 
         0.6443         558.028         197.869 
       0.650464         553.462         193.875 
       0.656582          549.35         190.011 
       0.662703         543.406         186.246 
       0.668861         537.296         182.559 
       0.675024         534.159         178.972 
       0.681124         525.991         175.523 
       0.687237         525.158         172.165 
       0.693381         517.354         168.884 
       0.699536         516.215         165.685 
       0.705665         510.491         162.585 
       0.711789         509.282         159.566 
       0.717957         501.852         156.603 
        0.72409         497.661          153.73 
       0.730186         498.307         150.947 
       0.736317         490.568         148.218 
       0.742472         485.575         145.547 
       0.748622         483.113         142.946 
        0.75476         478.871         140.415 
       0.760888         475.985         137.949 
       0.767043          473.28         135.534 
       0.773185         470.117         133.183 
       0.779291         464.307         130.902 
       0.785407         461.754         128.671 
       0.791564         458.555         126.479 
       0.797719         452.086          124.34 
       0.803834         454.188         122.264 
       0.809972         447.379         120.229 
       0.816124         443.622         118.236 
       0.822261         440.682         116.295 
       0.828378         438.897         114.403 
       0.834502         432.113         112.552 
       0.840667         432.344         110.731 
       0.846816         426.466         108.955 
       0.852925         426.763          107.23 
       0.859047         422.887         105.539 
       0.865192         420.767         103.879 
       0.871341         415.313         102.254 
       0.877463         413.492         100.672 
       0.883569         410.003         99.1271 
       0.889708         406.251         97.6072 
       0.895864         403.056         96.1155 
       0.902008         401.668         94.6584 
       0.908149         398.417         93.2326 
       0.914301         396.689         91.8342 
       0.920448         393.055          90.466 
       0.926574         391.087         89.1307 
       0.932687         389.361         87.8255 
       0.938823         384.905         86.5419 
       0.944975         383.709         85.2813 
       0.951105         380.676         84.0506 
       0.957225         375.687         82.8465 
       0.963368         376.715         81.6621 
       0.969511          370.25          80.501 
       0.975621         370.154          79.369 
       0.981748         367.946          78.256 
       0.987916         365.706         77.1575 
        0.99406         362.453         76.0845 
        1.00019         358.966         75.0342 
        1.00632         358.994         74.0048 
        1.01246         355.975         72.9934 
        1.01859         352.098         72.0027 
        1.02471          350.22         71.0318 
        1.03085         349.374         70.0756 
        1.03698         347.079         69.1392 
        1.04314         345.745          68.216 
        1.04929         343.497         67.3121 
        1.05541         339.198         66.4282 
        1.06154         338.183         65.5582 
        1.06769         335.031         64.7026 
        1.07382         333.699         63.8652 
        1.07993         331.603         63.0447 
        1.08607         329.698         62.2353 
        1.09222          327.24         61.4394 
        1.09836         326.054         60.6584 
        1.10449         323.748          59.892 
        1.11063         321.267         59.1381 
        1.11677         318.233         58.3976 
         1.1229          317.77         57.6711 
        1.12903         315.335         56.9563 
        1.13518         313.089         56.2532 
        1.14131         312.296         55.5624 
        1.14745         308.447         54.8837 
        1.15359         306.486         54.2163 
        1.15973         305.474         53.5598 
        1.16584         303.759         52.9171 
        1.17197         301.736         52.2842 
        1.17811         298.957         51.6597 
        1.18424         297.697         51.0473 
        1.19038         296.222         50.4432 
        1.19652         293.093         49.8491 
        1.20267         292.715         49.2647 
        1.20881         290.646         48.6898 
        1.21495         289.326          48.125 
        1.22108         287.397         47.5694 
         1.2272         283.851         47.0239 
        1.23334         283.233         46.4857 
        1.23949         281.913         45.9548 
        1.24562         280.424         45.4337 
        1.25174         278.356         44.9215 
        1.25789         276.074         44.4157 
        1.26402         275.785         43.9187 
        1.27014         274.487         43.4305 
        1.27628         271.674         42.9483 
        1.28244         270.374         42.4726 
        1.28858         268.828         42.0048 
        1.29471          267.51         41.5451 
        1.30084         266.355         41.0927 
        1.30697         263.484         40.6465 
        1.31312         261.995         40.2062 
        1.31925          260.85          39.774 
        1.32537         259.768         39.3485 
        1.33151         257.729         38.9278 
        1.33765         255.991         38.5135 
        1.34378         254.603         38.1061 
        1.34992         252.626         37.7044 
        1.35606          251.73         37.3076 
         1.3622         250.097         36.9173 
        1.36833         248.679         36.5335 
        1.37445         247.995         36.1553 
        1.38059         245.421         35.7814 
        1.38675         243.957         35.4119 
        1.39288         243.084         35.0492 
        1.39901         240.981         34.6916 
        1.40515         240.163         34.3383 
         1.4113         238.302         33.9901 
        1.41742          236.34         33.6481 
        1.42355         236.737         33.3101 
         1.4297         234.571         32.9758 
        1.43585          232.97         32.6463 
        1.44198          231.37         32.3225 
        1.44809         230.563         32.0037 
        1.45423         229.223         31.6881 
        1.46036         227.826         31.3774 
        1.46649         226.701         31.0707 
        1.47263          225.37         30.7679 
        1.47877         223.855         30.4693 
        1.48491         222.125         30.1742 
        1.49104         220.506         29.8837 
        1.49718         219.806         29.5968 
        1.50333         217.968         29.3132 
        1.50947         217.255          29.034 
         1.5156         215.984         28.7588 
        1.52172         214.741         28.4872 
        1.52787         213.342         28.2186 
          1.534         212.798         27.9538 
        1.54013         211.178         27.6926 
        1.54627         210.109         27.4344 
        1.55241         208.963         27.1794 
        1.55855         208.025         26.9281 
        1.56467         206.545         26.6806 
         1.5708         205.021         26.4356 
        1.57695         204.241         26.1933 
        1.58308         202.856         25.9546 
        1.58922         201.736         25.7187 
        1.59535         200.129         25.4858 
         1.6015         199.495         25.2555 
        1.60764         198.201         25.0282 
        1.61376         196.601         24.8043 
        1.61989          195.58          24.583 
        1.62604         194.531         24.3639 
        1.63218         193.619         24.1476 
        1.63831         192.882         23.9344 
        1.64444         191.209         23.7238 
        1.65059         190.487         23.5152 
        1.65673         189.119         23.3093 
        1.66285         188.249         23.1065 
        1.66898         187.223         22.9061 
        1.67512         186.036         22.7076 
        1.68127         185.124         22.5113 
         1.6874         183.988         22.3178 
        1.69353         183.194         22.1267 
        1.69967         181.711         21.9374 
        1.70581         181.274         21.7504 
        1.71193         179.804         21.5663 
        1.71806         178.703          21.384 
        1.72421         177.859         21.2034 
        1.73035         176.681         21.0251 
        1.73649         175.548         20.8489 
        1.74262         174.951         20.6748 
        1.74876         174.077         20.5027 
        1.75489         173.234         20.3329 
        1.76101           171.8          20.165 
        1.76715         170.841         19.9988 
        1.77329         169.743         19.8343 
        1.77943         168.726         19.6716 
        1.78557         168.142          19.511 
        1.79171         167.301         19.3521 
        1.79785         166.125          19.195 
        1.80399         165.218         19.0397 
        1.81012         164.287         18.8863 
        1.81625         163.337         18.7346 
        1.82239         162.342         18.5844 
        1.82853         161.677          18.436 
        1.83466         160.286         18.2893 
        1.84078         159.945         18.1443 
        1.84692         158.981         18.0007 
        1.85306         157.817         17.8585 
         1.8592         157.351          17.718 
        1.86533         155.822         17.5792 
        1.87147         155.265         17.4417 
        1.87761         154.392         17.3055 
        1.88375         153.157          17.171 
        1.88988         152.799         17.0381 
        1.89601         152.317         16.9066 
        1.90215         151.495         16.7763 
        1.90829         149.946         16.6474 
        1.91442         149.294         16.5199 
        1.92056         148.455         16.3939 
         1.9267          147.73          16.269 
        1.93284          146.72         16.1454 
        1.93897         145.966         16.0233 
        1.94509         145.144         15.9028 
        1.95123         144.452         15.7831 
        1.95737         143.784         15.6647 
        1.96349         142.814         15.5477 
        1.96964         142.135         15.4316 
        1.97578          141.21         15.3167 
        1.98192         140.598         15.2031 
        1.98805         139.838         15.0907 
        1.99419         138.597         14.9794 
        2.00033         138.284         14.8692 
        2.00647         137.655         14.7602 
         2.0126         136.683         14.6524 
        2.01874         135.985         14.5455 
        2.02488         135.173         14.4397 
        2.03101         134.727          14.335 
        2.03714         133.694         14.2315 
        2.04328         133.135          14.129 
        2.04941           132.7         14.0275 
        2.05554         131.922         13.9271 
        2.06167          130.91         13.8275 
        2.06781         130.186         13.7289 
        2.07396         129.647         13.6311 
        2.08009         128.855         13.5345 
        2.08622         128.116         13.4389 
        2.09237         127.185          13.344 
        2.09851         126.916         13.2501 
        2.10464         126.063         13.1572 
        2.11077          125.42         13.0653 
        2.11691         124.856         12.9741 
        2.12305         124.206         12.8837 
        2.12918         123.393         12.7944 
        2.13531           122.7          12.706 
        2.14145         122.155         12.6182 
         2.1476         121.366         12.5312 
        2.15372         120.687         12.4454 
        2.15985         119.946         12.3603 
        2.16599          119.32         12.2757 
        2.17213         118.771         12.1921 
        2.17827         118.044         12.1093 
         2.1844         117.705         12.0273 
        2.19054          116.74          11.946 
        2.19666         116.072         11.8656 
         2.2028         115.636         11.7859 
        2.20893         115.199         11.7068 
        2.21508         114.237         11.6285 
        2.22122         113.772         11.5508 
        2.22736         113.362         11.4739 
        2.23349         112.688         11.3978 
        2.23962         111.992         11.3224 
        2.24577         111.456         11.2475 
         2.2519         110.655         11.1735 
        2.25802         110.265         11.1002 
        2.26417         109.486         11.0274 
        2.27031         108.884         10.9552 
        2.27644         108.546         10.8838 
        2.28257         107.956         10.8131 
        2.28872         107.394         10.7429 
        2.29486         107.042         10.6733 
        2.30099         106.096         10.6045 
        2.30712         105.824         10.5362 
        2.31326         105.197         10.4685 
         2.3194         104.596         10.4013 
        2.32553         103.954         10.3349 
        2.33166         103.595         10.2691 
         2.3378         103.033         10.2038 
        2.34394         102.281          10.139 
        2.35007         101.649         10.0749 
        2.35619         101.251         10.0114 
        2.36233         100.783         9.94832 
        2.36848          100.06         9.88565 
        2.37462         99.8363         9.82365 
        2.38075         99.2005         9.76224 
        2.38689         98.7408         9.70131 
        2.39303         98.2329         9.64091 
        2.39916          97.778         9.58109 
        2.40529         97.2912         9.52178 
        2.41143         96.7631         9.46294 
        2.41757         96.0566         9.40456 
         2.4237         95.6193         9.34679 
        2.42983         95.0592         9.28951 
        2.43598          94.827         9.23256 
        2.44211         94.3406         9.17618 
        2.44823           93.68          9.1204 
        2.45437          93.331         9.06493 
        2.46052         92.7253         9.00987 
        2.46665          92.216         8.95537 
        2.47279         91.9075         8.90135 
        2.47892         91.4526         8.84773 
        2.48507         91.0766          8.7945 
         2.4912         90.3122         8.74182 
