# k  (h/Mpc)    Pcb(k)  (Mpc/h)^3    Pcb_linear(k)  (Mpc/h)^3
     0.00783031         7762.51         7818.67 
       0.013688         8638.06         8805.29 
       0.019231            8078         8153.72 
      0.0249154         6916.12         6876.48 
      0.0312784            5443         5442.38 
      0.0375637         4356.07         4376.86 
      0.0433917         3758.27         3745.45 
      0.0492413         3360.75          3367.5 
      0.0555754         3114.89         3103.55 
      0.0619321         2808.51         2856.84 
       0.067871            2566         2577.42 
      0.0738098         2258.51         2252.68 
      0.0800417         1931.59         1910.16 
      0.0862327         1638.11         1621.35 
      0.0921407         1442.42         1420.73 
      0.0982031          1322.1         1290.03 
       0.104506         1220.38         1211.96 
       0.110769         1169.22         1159.52 
       0.116806         1124.82         1104.24 
       0.122832          1040.5         1029.37 
       0.129052         950.818         932.601 
       0.135211         865.604         830.676 
       0.141259         770.548         740.332 
       0.147318          695.12         669.765 
       0.153489         649.019          620.68 
       0.159709         623.736         589.617 
       0.165845         585.637         568.296 
       0.171974         576.944         547.306 
       0.178125         549.421          520.61 
       0.184229         507.947         487.352 
        0.19034          480.93         450.227 
       0.196428         450.342         414.159 
       0.202534         411.078         383.009 
       0.208729         397.329         358.562 
       0.214876         379.746         340.991 
       0.220989         357.292         327.937 
       0.227147         350.399         316.403 
        0.23329         337.208         304.148 
       0.239377         327.793         290.165 
       0.245482         308.703         274.533 
       0.251667         292.019         258.268 
       0.257832         284.423         243.098 
       0.263955         266.187         230.075 
       0.270079         254.262         219.406 
        0.27624         243.742         210.683 
       0.282372         236.936         203.201 
        0.28843         234.371         196.177 
       0.294538         222.865         188.851 
       0.300721         213.871         181.016 
        0.30691         209.038         172.907 
       0.313033         198.647         165.044 
       0.319153         194.115         157.719 
       0.325316         187.566          151.15 
        0.33145         181.444         145.418 
       0.337538         174.709          140.39 
       0.343633         169.222         135.744 
       0.349808         163.959           131.2 
       0.355968         159.881         126.673 
       0.362074         155.466         122.149 
       0.368217         152.028         117.647 
       0.374374         147.714         113.287 
       0.380519         141.382         109.199 
       0.386598         138.326         105.476 
       0.392688          133.89         102.043 
        0.39888         131.344          98.812 
       0.405048         128.019         95.7696 
       0.411186         125.789         92.8367 
       0.417313         122.615         89.9721 
       0.423458         119.315         87.1545 
       0.429607         116.239         84.4036 
       0.435692         114.377         81.7858 
       0.441815         111.019         79.2862 
       0.447964         107.395         76.9149 
       0.454126         105.406         74.6709 
       0.460267         104.324         72.5531 
       0.466387         101.496         70.5341 
        0.47254         100.211         68.5701 
       0.478662         96.7152         66.6698 
       0.484765         95.0985         64.8314 
       0.490885         92.8889         63.0478 
       0.497035         91.9604         61.3191 
       0.503198         90.0713         59.6555 
       0.509342         87.6348         58.0693 
       0.515458         86.1253         56.5605 
       0.521598         83.9432         55.1077 
       0.527764          83.039         53.7012 
       0.533884         82.2423         52.3495 
           0.54         79.9252         51.0408 
       0.546137         77.9533         49.7692 
       0.552299         76.5035         48.5343 
       0.558452         75.1556         47.3431 
       0.564573         74.6935         46.1984 
       0.570708         72.5187         45.0905 
       0.576825         71.7099         44.0246 
       0.582926         70.8334         42.9985 
       0.589034         69.4462         42.0056 
       0.595184         68.4491         41.0382 
       0.601379         66.9227         40.0942 
       0.607522         65.4807         39.1861 
       0.613639         64.9565         38.3086 
       0.619772         63.6258         37.4553 
       0.625918         63.0698         36.6265 
       0.632068         61.7992         35.8231 
       0.638161         60.8053          35.052 
         0.6443         60.3639          34.299 
       0.650464         58.8819         33.5661 
       0.656582         58.6537         32.8602 
       0.662703         57.7478         32.1744 
       0.668861          56.439          31.504 
       0.675024         56.2301          30.852 
       0.681124         55.3577         30.2249 
       0.687237         54.3584         29.6139 
       0.693381         53.7044         29.0171 
       0.699536         53.0871         28.4358 
       0.705665          52.321         27.8731 
       0.711789         51.4863         27.3265 
       0.717957         50.7539          26.791 
        0.72409          50.188         26.2729 
       0.730186         49.8699         25.7718 
       0.736317         49.0035         25.2811 
       0.742472         48.2533         24.8015 
       0.748622         47.5386         24.3348 
        0.75476         47.1279         23.8811 
       0.760888         46.8564         23.4396 
       0.767043         45.8452         23.0077 
       0.773185         45.2053         22.5875 
       0.779291         44.6967         22.1803 
       0.785407         44.2289         21.7826 
       0.791564         44.0739         21.3922 
       0.797719         43.1824         21.0117 
       0.803834         42.9498         20.6428 
       0.809972         42.4407         20.2816 
       0.816124         41.8849         19.9282 
       0.822261         41.2578         19.5843 
       0.828378         41.1445         19.2496 
       0.834502         40.5884         18.9225 
       0.840667          40.222         18.6009 
       0.846816          39.722         18.2878 
       0.852925         39.2652         17.9839 
       0.859047         39.1111         17.6863 
       0.865192         38.4809         17.3945 
       0.871341         38.0562         17.1091 
       0.877463         37.6202         16.8315 
       0.883569         37.5479         16.5607 
       0.889708         37.0639         16.2946 
       0.895864         36.7349         16.0336 
       0.902008         36.3408          15.779 
       0.908149         35.8656           15.53 
       0.914301         35.5773         15.2861 
       0.920448         35.4574         15.0476 
       0.926574         34.8259         14.8151 
       0.932687         34.5445          14.588 
       0.938823         34.1632         14.3648 
       0.944975         33.7922         14.1459 
       0.951105         33.5451         13.9323 
       0.957225         33.2991         13.7234 
       0.963368         32.9851         13.5182 
       0.969511         32.6812         13.3172 
       0.975621         32.4063         13.1213 
       0.981748         32.0972         12.9289 
       0.987916         31.7873         12.7391 
        0.99406         31.5415         12.5539 
        1.00019         31.2175         12.3728 
        1.00632         30.9998         12.1954 
        1.01246         30.7254         12.0212 
        1.01859         30.4837         11.8507 
        1.02471         30.1784         11.6838 
        1.03085         29.9626         11.5195 
        1.03698         29.7869         11.3587 
        1.04314         29.5045         11.2003 
        1.04929         29.1322         11.0453 
        1.05541          29.085         10.8939 
        1.06154          28.799          10.745 
        1.06769          28.446         10.5986 
        1.07382         28.2672         10.4555 
        1.07993         28.1053         10.3153 
        1.08607         27.8233         10.1772 
        1.09222          27.659         10.0414 
        1.09836         27.4177         9.90831 
        1.10449         27.2699         9.77777 
        1.11063         26.9948         9.64945 
        1.11677         26.9277         9.52349 
         1.1229         26.6289             9.4 
        1.12903         26.4306          9.2786 
        1.13518         26.3522         9.15924 
        1.14131         26.0902         9.04206 
        1.14745         25.8542           8.927 
        1.15359          25.563         8.81393 
        1.15973         25.5301         8.70277 
        1.16584         25.2999         8.59404 
        1.17197         25.0317           8.487 
        1.17811         24.8928         8.38147 
        1.18424         24.5765         8.27804 
        1.19038         24.4808         8.17605 
        1.19652         24.3162         8.07583 
        1.20267         24.1806         7.97728 
        1.20881          24.001          7.8804 
        1.21495         23.9252         7.78528 
        1.22108          23.802         7.69176 
         1.2272         23.5287         7.59999 
        1.23334         23.4221         7.50951 
        1.23949         23.2492         7.42029 
        1.24562         23.0749         7.33277 
        1.25174         22.9312          7.2468 
        1.25789         22.7941         7.16195 
        1.26402         22.6645         7.07861 
        1.27014         22.5379         6.99681 
        1.27628         22.3135         6.91605 
        1.28244         22.3369         6.83642 
        1.28858         22.0632         6.75815 
        1.29471         21.8812         6.68129 
        1.30084          21.746         6.60569 
        1.30697         21.6808         6.53116 
        1.31312         21.5122         6.45767 
        1.31925         21.3344         6.38554 
        1.32537         21.1797         6.31459 
        1.33151         21.0308         6.24447 
        1.33765         21.0138         6.17545 
        1.34378         20.8965         6.10762 
        1.34992         20.6938         6.04076 
        1.35606         20.5167         5.97476 
         1.3622         20.4637         5.90986 
        1.36833         20.3867         5.84608 
        1.37445         20.1924         5.78328 
        1.38059          20.069          5.7212 
        1.38675         19.9874         5.65989 
        1.39288          19.834         5.59972 
        1.39901         19.7023         5.54045 
        1.40515         19.6072         5.48191 
         1.4113         19.5439         5.42424 
        1.41742         19.4195         5.36762 
        1.42355         19.2352          5.3117 
         1.4297         19.1808         5.25641 
        1.43585         19.0606         5.20193 
        1.44198         18.9685         5.14843 
        1.44809         18.8226         5.09578 
        1.45423         18.7488         5.04368 
        1.46036         18.6807          4.9924 
        1.46649           18.53         4.94182 
        1.47263         18.4222          4.8919 
        1.47877          18.304         4.84269 
        1.48491         18.2217         4.79408 
        1.49104         18.1058         4.74624 
        1.49718         18.0982         4.69901 
        1.50333         17.9742         4.65236 
        1.50947         17.8042         4.60643 
         1.5156         17.7825          4.5612 
        1.52172         17.6599         4.51657 
        1.52787         17.6125         4.47245 
          1.534         17.4713         4.42897 
        1.54013         17.4491         4.38612 
        1.54627         17.2896         4.34376 
        1.55241         17.2032         4.30195 
        1.55855         17.1084         4.26075 
        1.56467         17.0101          4.2202 
         1.5708          16.962         4.18007 
        1.57695         16.8807          4.1404 
        1.58308         16.7357         4.10133 
        1.58922         16.6694         4.06274 
        1.59535         16.5879         4.02466 
         1.6015         16.5374         3.98702 
        1.60764         16.4218         3.94988 
        1.61376         16.3465         3.91331 
        1.61989         16.2104         3.87717 
        1.62604          16.154         3.84141 
        1.63218         16.0665         3.80613 
        1.63831          15.997         3.77137 
        1.64444         15.9367         3.73703 
        1.65059         15.8389         3.70303 
        1.65673         15.7727          3.6695 
        1.66285         15.7064         3.63647 
        1.66898         15.6195         3.60384 
        1.67512         15.5858         3.57155 
        1.68127         15.4759         3.53963 
         1.6874          15.424         3.50816 
        1.69353         15.3221          3.4771 
        1.69967         15.2303         3.44634 
        1.70581         15.1895         3.41597 
        1.71193         15.1071         3.38607 
        1.71806         15.0424         3.35647 
        1.72421         14.9779         3.32717 
        1.73035         14.8999         3.29825 
        1.73649         14.7942         3.26967 
        1.74262         14.7608         3.24146 
        1.74876         14.7038         3.21357 
        1.75489         14.6049         3.18606 
        1.76101         14.5388         3.15888 
        1.76715         14.4716         3.13198 
        1.77329          14.395         3.10536 
        1.77943         14.3513         3.07904 
        1.78557         14.3143         3.05306 
        1.79171         14.2175         3.02738 
        1.79785         14.1379         3.00199 
        1.80399         14.0511         2.97689 
        1.81012         14.0325         2.95212 
        1.81625         13.9463         2.92763 
        1.82239          13.881         2.90339 
        1.82853         13.8288         2.87944 
        1.83466         13.7538         2.85577 
        1.84078         13.6865          2.8324 
        1.84692         13.6548         2.80925 
        1.85306         13.5975         2.78633 
         1.8592         13.5577         2.76371 
        1.86533         13.4778         2.74134 
        1.87147         13.3989          2.7192 
        1.87761         13.3492          2.6973 
        1.88375          13.292         2.67566 
        1.88988         13.2313         2.65428 
        1.89601         13.1807         2.63312 
        1.90215         13.1033         2.61218 
        1.90829         13.0638         2.59147 
        1.91442         12.9763         2.57099 
        1.92056         12.9417         2.55074 
         1.9267         12.8984          2.5307 
        1.93284         12.8773         2.51086 
        1.93897         12.7853         2.49126 
        1.94509         12.7433         2.47192 
        1.95123          12.664         2.45274 
        1.95737         12.5946         2.43374 
        1.96349         12.5715           2.415 
        1.96964         12.5415         2.39639 
        1.97578         12.4835         2.37798 
        1.98192         12.4175         2.35979 
        1.98805           12.34          2.3418 
        1.99419         12.3219         2.32399 
        2.00033         12.2475         2.30635 
        2.00647          12.199         2.28891 
         2.0126         12.1329         2.27167 
        2.01874         12.1028         2.25459 
        2.02488         12.0381         2.23766 
        2.03101          11.993         2.22094 
        2.03714          11.941         2.20441 
        2.04328         11.9038         2.18803 
        2.04941         11.8367         2.17183 
        2.05554          11.814          2.1558 
        2.06167         11.7777         2.13991 
        2.06781         11.7326         2.12418 
        2.07396         11.6816         2.10859 
        2.08009          11.613         2.09318 
        2.08622         11.5782         2.07794 
        2.09237         11.5445         2.06282 
        2.09851         11.4814         2.04785 
        2.10464         11.4283         2.03305 
        2.11077         11.3875         2.01842 
        2.11691         11.3332          2.0039 
        2.12305          11.297         1.98952 
        2.12918         11.2494         1.97532 
        2.13531         11.2127         1.96125 
        2.14145         11.1534         1.94729 
         2.1476         11.0902         1.93344 
        2.15372         11.1041          1.9198 
        2.15985         11.0293         1.90628 
        2.16599         10.9864         1.89285 
        2.17213          10.946         1.87957 
        2.17827         10.9035         1.86641 
         2.1844         10.8585         1.85339 
        2.19054         10.8467          1.8405 
        2.19666         10.7809         1.82774 
         2.2028         10.7551         1.81509 
        2.20893         10.6827         1.80256 
        2.21508         10.6477         1.79013 
        2.22122          10.604         1.77781 
        2.22736         10.5827         1.76563 
        2.23349         10.5247         1.75357 
        2.23962         10.5029         1.74162 
        2.24577         10.4731         1.72977 
         2.2519         10.4092         1.71804 
        2.25802         10.3612         1.70645 
        2.26417         10.3608         1.69492 
        2.27031         10.3007          1.6835 
        2.27644         10.2761         1.67221 
        2.28257         10.2216         1.66102 
        2.28872          10.207         1.64992 
        2.29486          10.175         1.63892 
        2.30099         10.1097         1.62804 
        2.30712         10.0767         1.61725 
        2.31326         10.0299         1.60655 
         2.3194         9.99669         1.59595 
        2.32553          9.9589         1.58546 
        2.33166         9.90463         1.57507 
         2.3378         9.89461         1.56476 
        2.34394         9.84743         1.55453 
        2.35007         9.82958         1.54442 
        2.35619         9.78935          1.5344 
        2.36233         9.73948         1.52446 
        2.36848         9.69499         1.51457 
        2.37462         9.66199          1.5048 
        2.38075         9.61783         1.49512 
        2.38689         9.61397         1.48552 
        2.39303         9.55532         1.47601 
        2.39916         9.52821         1.46659 
        2.40529         9.50108         1.45725 
        2.41143         9.45113         1.44798 
        2.41757         9.41346         1.43879 
         2.4237         9.38298          1.4297 
        2.42983         9.36227         1.42069 
        2.43598         9.32726         1.41173 
        2.44211         9.28849         1.40287 
        2.44823          9.2462          1.3941 
        2.45437         9.24077         1.38538 
        2.46052         9.19015         1.37672 
        2.46665          9.1748         1.36816 
        2.47279         9.13549         1.35967 
        2.47892         9.09715         1.35125 
        2.48507         9.06243         1.34289 
         2.4912         9.01342         1.33462 
