# k  (h/Mpc)    P(k)  (Mpc/h)^3    P_linear(k)  (Mpc/h)^3
     0.00783031         13403.1         13602.9 
       0.013688         16581.9           16453 
       0.019231         16385.1         16353.7 
      0.0249154         14543.5           14824 
      0.0312784         12441.2         12554.8 
      0.0375637         10508.4         10489.9 
      0.0433917         8897.74          9021.9 
      0.0492413         7967.45         8000.16 
      0.0555754         7089.44         7275.83 
      0.0619321         6785.27         6757.96 
       0.067871         6163.24         6308.27 
      0.0738098         5671.99         5803.38 
      0.0800417         5038.52         5199.16 
      0.0862327         4498.04         4571.79 
      0.0921407         4033.72         4015.43 
      0.0982031         3550.17         3542.22 
       0.104506         3292.17         3179.52 
       0.110769         3038.12         2938.72 
       0.116806          2864.2         2785.86 
       0.122832         2743.81         2669.08 
       0.129052         2559.51         2546.47 
       0.135211          2421.6         2398.43 
       0.141259         2296.92         2223.63 
       0.147318            2138          2032.5 
       0.153489         1939.98         1842.95 
       0.159709         1814.56         1677.15 
       0.165845         1728.07         1549.18 
       0.171974         1628.53         1456.96 
       0.178125         1553.11         1392.06 
       0.184229         1492.04         1342.61 
        0.19034         1407.02         1295.38 
       0.196428         1379.05         1241.51 
       0.202534         1326.68         1177.26 
       0.208729         1256.25            1104 
       0.214876         1191.69         1029.44 
       0.220989         1145.07         960.248 
       0.227147         1089.54         900.583 
        0.23329         1043.84         853.017 
       0.239377            1023         816.573 
       0.245482         957.112         787.458 
       0.251667         951.111         761.336 
       0.257832          914.34         734.983 
       0.263955         883.898         706.303 
       0.270079         850.348         674.748 
        0.27624         839.203         641.434 
       0.282372         803.368          608.73 
        0.28843         788.793         578.855 
       0.294538         748.099         552.439 
       0.300721         743.848         529.812 
        0.30691         711.466          510.72 
       0.313033          697.52         494.128 
       0.319153         679.787          478.55 
       0.325316         658.975         462.798 
        0.33145         641.186         446.539 
       0.337538         630.941         429.828 
       0.343633          612.64         412.989 
       0.349808         590.921         396.466 
       0.355968         586.336         381.073 
       0.362074         577.547         367.279 
       0.368217         560.632         354.843 
       0.374374         536.875         343.645 
       0.380519         535.308         333.315 
       0.386598         520.887          323.52 
       0.392688         518.321         313.862 
        0.39888         502.942         304.007 
       0.405048         493.374         294.208 
       0.411186         485.445         284.617 
       0.417313         475.753          275.37 
       0.423458         466.598         266.603 
       0.429607         459.044         258.437 
       0.435692         447.964         250.917 
       0.441815          444.04         243.853 
       0.447964         434.565         237.145 
       0.454126         425.337         230.667 
       0.460267         417.411         224.359 
       0.466387         412.541         218.195 
        0.47254         405.282         212.111 
       0.478662         403.804         206.201 
       0.484765         389.968         200.513 
       0.490885         386.481         195.066 
       0.497035         379.229         189.859 
       0.503198         374.208         184.896 
       0.509342         371.315         180.188 
       0.515458         367.267         175.701 
       0.521598         358.328         171.351 
       0.527764         352.534         167.099 
       0.533884         350.143         162.983 
           0.54         345.207         158.981 
       0.546137         343.647         155.081 
       0.552299         336.625          151.29 
       0.558452         334.787         147.637 
       0.564573         329.855         144.138 
       0.570708         324.014          140.77 
       0.576825         317.603         137.541 
       0.582926         315.786         134.431 
       0.589034         312.887         131.413 
       0.595184         309.945         128.458 
       0.601379         305.571         125.564 
       0.607522         300.994         122.776 
       0.613639         299.531         120.081 
       0.619772         292.837          117.46 
       0.625918         291.809         114.913 
       0.632068          287.08         112.443 
       0.638161         285.918         110.071 
         0.6443         281.133         107.755 
       0.650464         278.471         105.502 
       0.656582         276.368         103.333 
       0.662703         275.322         101.224 
       0.668861         270.376          99.162 
       0.675024         267.335          97.153 
       0.681124         265.726         95.2173 
       0.687237         262.862         93.3289 
       0.693381         258.868         91.4823 
       0.699536         256.485          89.683 
       0.705665         254.445         87.9416 
       0.711789         252.511         86.2501 
       0.717957         250.913         84.5935 
        0.72409         248.274         82.9909 
       0.730186         245.387         81.4402 
       0.736317          242.74         79.9209 
       0.742472          241.39         78.4346 
       0.748622         239.249         76.9868 
        0.75476         236.995         75.5782 
       0.760888         234.172         74.2068 
       0.767043          234.23         72.8639 
       0.773185         231.361         71.5571 
       0.779291         227.298         70.2901 
       0.785407         226.867         69.0524 
       0.791564         224.347         67.8372 
       0.797719         221.816         66.6523 
       0.803834         220.383         65.5036 
       0.809972         219.365         64.3781 
       0.816124           218.8         63.2769 
       0.822261         216.081         62.2046 
       0.828378         214.082         61.1605 
       0.834502         213.239         60.1396 
       0.840667         210.545         59.1354 
       0.846816         209.034         58.1571 
       0.852925         208.137         57.2072 
       0.859047         206.242         56.2767 
       0.865192         203.888         55.3638 
       0.871341         202.328         54.4708 
       0.877463         201.035         53.6015 
       0.883569         200.402         52.7536 
       0.889708          198.12         51.9198 
       0.895864         195.956         51.1019 
       0.902008         195.076         50.3035 
       0.908149          194.35         49.5227 
       0.914301         191.743         48.7574 
       0.920448         190.592          48.009 
       0.926574         189.264          47.279 
       0.932687         189.209         46.5659 
       0.938823         186.801          45.865 
       0.944975          185.49         45.1769 
       0.951105         184.587         44.5056 
       0.957225         182.986          43.849 
       0.963368         180.632         43.2036 
       0.969511          180.03         42.5712 
       0.975621         178.452          41.955 
       0.981748         178.406         41.3494 
       0.987916         176.539          40.752 
        0.99406         174.832         40.1687 
        1.00019         174.818         39.5981 
        1.00632         173.116          39.039 
        1.01246         171.945           38.49 
        1.01859         171.599         37.9525 
        1.02471         169.344         37.4259 
        1.03085         167.847         36.9076 
        1.03698         167.162         36.4002 
        1.04314         165.621         35.9002 
        1.04929         164.727         35.4109 
        1.05541         164.518         34.9326 
        1.06154         162.817         34.4621 
        1.06769         162.638         33.9995 
        1.07382          161.13          33.547 
        1.07993         159.805         33.1038 
        1.08607         159.162         32.6668 
        1.09222         158.385         32.2372 
        1.09836         157.053         31.8159 
        1.10449         155.409         31.4027 
        1.11063         154.222         30.9964 
        1.11677         153.954         30.5974 
         1.1229         152.705         30.2062 
        1.12903         152.009         29.8215 
        1.13518         151.282         29.4432 
        1.14131          149.76         29.0717 
        1.14745         149.539         28.7068 
        1.15359         148.392         28.3482 
        1.15973         147.566         27.9956 
        1.16584         146.144         27.6506 
        1.17197         145.672         27.3109 
        1.17811         144.724         26.9759 
        1.18424         144.014         26.6475 
        1.19038         143.642         26.3236 
        1.19652         142.417         26.0053 
        1.20267         141.699         25.6923 
        1.20881         140.493         25.3845 
        1.21495         139.868         25.0822 
        1.22108         139.038         24.7849 
         1.2272         137.864         24.4932 
        1.23334         137.424         24.2054 
        1.23949         136.455         23.9217 
        1.24562         135.678         23.6432 
        1.25174         134.638         23.3697 
        1.25789         133.898         23.0996 
        1.26402         132.851         22.8343 
        1.27014          132.06         22.5738 
        1.27628         131.662         22.3166 
        1.28244         131.258          22.063 
        1.28858         130.343         21.8136 
        1.29471         129.002         21.5686 
        1.30084         128.838         21.3277 
        1.30697          127.66         21.0901 
        1.31312         127.169         20.8557 
        1.31925         126.263         20.6257 
        1.32537         125.735         20.3994 
        1.33151         124.561         20.1756 
        1.33765         124.128         19.9554 
        1.34378         123.506         19.7388 
        1.34992          123.12         19.5254 
        1.35606         122.563         19.3146 
         1.3622         121.348         19.1074 
        1.36833         120.597         18.9037 
        1.37445         120.026         18.7031 
        1.38059         119.342         18.5047 
        1.38675         118.685         18.3088 
        1.39288         118.311         18.1165 
        1.39901          117.84         17.9271 
        1.40515         116.737         17.7399 
         1.4113         116.063         17.5555 
        1.41742         115.498         17.3745 
        1.42355         114.767         17.1956 
         1.4297         114.281         17.0187 
        1.43585         113.345         16.8444 
        1.44198         112.989         16.6732 
        1.44809         112.366         16.5047 
        1.45423          111.76          16.338 
        1.46036         111.212         16.1738 
        1.46649         110.361         16.0118 
        1.47263         109.745          15.852 
        1.47877          109.41         15.6943 
        1.48491           108.3         15.5386 
        1.49104         108.235         15.3853 
        1.49718         107.324          15.234 
        1.50333          106.89         15.0845 
        1.50947          106.41         14.9373 
         1.5156         105.674         14.7923 
        1.52172         105.077         14.6492 
        1.52787         104.522         14.5077 
          1.534         103.947         14.3682 
        1.54013         103.391         14.2308 
        1.54627         102.973         14.0948 
        1.55241         102.139         13.9607 
        1.55855         101.621         13.8284 
        1.56467         101.427         13.6983 
         1.5708         100.529         13.5695 
        1.57695         100.365         13.4421 
        1.58308         99.5873         13.3166 
        1.58922         99.3534         13.1927 
        1.59535         98.6624         13.0704 
         1.6015         98.1476         12.9495 
        1.60764         97.6113         12.8301 
        1.61376         97.3434         12.7126 
        1.61989         96.6039         12.5965 
        1.62604         96.2482         12.4816 
        1.63218         95.8181         12.3681 
        1.63831          94.913         12.2564 
        1.64444         94.6624          12.146 
        1.65059          94.164         12.0367 
        1.65673         93.3434         11.9288 
        1.66285          93.134         11.8226 
        1.66898         92.7293         11.7176 
        1.67512         92.1213         11.6138 
        1.68127         91.6957          11.511 
         1.6874         91.0112         11.4098 
        1.69353         90.5907         11.3098 
        1.69967          90.269         11.2108 
        1.70581         89.7823          11.113 
        1.71193            89.4         11.0168 
        1.71806          88.904         10.9215 
        1.72421         88.2197         10.8271 
        1.73035         87.9786          10.734 
        1.73649         87.4656         10.6419 
        1.74262         86.8934         10.5511 
        1.74876         86.6306         10.4612 
        1.75489         85.9342         10.3725 
        1.76101         85.5795         10.2849 
        1.76715         84.9963         10.1982 
        1.77329         84.7977         10.1124 
        1.77943          84.085         10.0276 
        1.78557         83.9823         9.94383 
        1.79171          83.195         9.86101 
        1.79785         82.8649         9.77913 
        1.80399         82.4774         9.69818 
        1.81012         82.1728         9.61827 
        1.81625         81.6872         9.53928 
        1.82239         81.3681         9.46107 
        1.82853         80.9835         9.38377 
        1.83466         80.4158         9.30742 
        1.84078         80.1609         9.23199 
        1.84692         79.6476         9.15727 
        1.85306         79.1882          9.0833 
         1.8592         78.9172         9.01025 
        1.86533         78.3979         8.93805 
        1.87147         77.9275         8.86656 
        1.87761         77.6534         8.79582 
        1.88375         77.1869         8.72593 
        1.88988         76.8157         8.65688 
        1.89601         76.3843         8.58854 
        1.90215         76.0087         8.52088 
        1.90829         75.6037         8.45398 
        1.91442         75.2942          8.3878 
        1.92056         74.7498         8.32238 
         1.9267         74.5128         8.25759 
        1.93284         74.0683         8.19346 
        1.93897         73.7183         8.13012 
        1.94509         73.4518          8.0676 
        1.95123         73.0109         8.00557 
        1.95737         72.5801         7.94415 
        1.96349         72.1425         7.88353 
        1.96964         71.8414         7.82337 
        1.97578          71.478         7.76381 
        1.98192         71.3085           7.705 
        1.98805         70.6828         7.64678 
        1.99419         70.3981         7.58917 
        2.00033         70.2062         7.53212 
        2.00647          69.721         7.47567 
         2.0126         69.3406         7.41989 
        2.01874          68.848          7.3646 
        2.02488         68.6129         7.30983 
        2.03101           68.29         7.25571 
        2.03714         67.8164         7.20219 
        2.04328         67.6157         7.14915 
        2.04941         67.3093         7.09669 
        2.05554         67.0538         7.04479 
        2.06167         66.6374         6.99333 
        2.06781         66.1721         6.94239 
        2.07396         65.8775         6.89188 
        2.08009         65.6353         6.84196 
        2.08622         65.3075         6.79259 
        2.09237         64.9522         6.74361 
        2.09851         64.7745          6.6951 
        2.10464         64.3151         6.64715 
        2.11077         63.9859         6.59973 
        2.11691         63.7003         6.55267 
        2.12305         63.3408         6.50606 
        2.12918         63.0655         6.46002 
        2.13531         62.6915         6.41442 
        2.14145         62.3754         6.36916 
         2.1476         62.0438         6.32427 
        2.15372          61.826         6.28005 
        2.15985         61.4463         6.23621 
        2.16599         61.1684         6.19265 
        2.17213         60.9119         6.14957 
        2.17827         60.5572          6.1069 
         2.1844         60.2072         6.06467 
        2.19054         60.0391         6.02283 
        2.19666         59.6453         5.98144 
         2.2028         59.5846          5.9404 
        2.20893         59.1481         5.89973 
        2.21508         58.8584         5.85939 
        2.22122         58.5833         5.81941 
        2.22736         58.3101          5.7799 
        2.23349         57.9438         5.74075 
        2.23962         57.6012         5.70195 
        2.24577         57.3445         5.66347 
         2.2519         57.1369         5.62541 
        2.25802          56.896         5.58775 
        2.26417          56.458         5.55033 
        2.27031         56.2378         5.51322 
        2.27644         56.0552         5.47656 
        2.28257         55.7297         5.44023 
        2.28872         55.4169         5.40416 
        2.29486         55.0763         5.36843 
        2.30099         54.8264          5.3331 
        2.30712         54.6965         5.29806 
        2.31326         54.3782         5.26328 
         2.3194         54.0525         5.22884 
        2.32553         53.8208         5.19476 
        2.33166         53.4658         5.16099 
         2.3378         53.2135         5.12748 
        2.34394         52.9729         5.09426 
        2.35007         52.7348         5.06138 
        2.35619         52.4945         5.02883 
        2.36233         52.2717         4.99649 
        2.36848         51.9941         4.96436 
        2.37462         51.6713         4.93259 
        2.38075         51.5561         4.90112 
        2.38689         51.2472          4.8699 
        2.39303         50.9776         4.83896 
        2.39916         50.7732         4.80832 
        2.40529         50.5481         4.77794 
        2.41143         50.3129         4.74781 
        2.41757         49.9968         4.71792 
         2.4237         49.8519         4.68835 
        2.42983         49.4818         4.65903 
        2.43598         49.2589         4.62988 
        2.44211         49.0958         4.60104 
        2.44823         48.8468          4.5725 
        2.45437          48.555         4.54412 
        2.46052         48.3363         4.51597 
        2.46665         48.1688          4.4881 
        2.47279          47.845         4.46047 
        2.47892         47.6921         4.43306 
        2.48507         47.4192         4.40585 
         2.4912         47.2538         4.37893 
