# k  (h/Mpc)    P(k)  (Mpc/h)^3    P_linear(k)  (Mpc/h)^3
     0.00783031           16049         16287.1 
       0.013688           19882         19697.9 
       0.019231         19620.4           19578 
      0.0249154         17374.7         17746.1 
      0.0312784         14868.7         15029.3 
      0.0375637         12571.6         12557.1 
      0.0433917         10626.5         10799.8 
      0.0492413         9524.89         9576.59 
      0.0555754         8454.02         8709.48 
      0.0619321         8111.52         8089.51 
       0.067871         7348.44         7551.19 
      0.0738098         6764.79          6946.8 
      0.0800417         6004.69         6223.51 
      0.0862327          5369.1         5472.52 
      0.0921407         4829.07         4806.54 
      0.0982031         4254.07         4240.09 
       0.104506         3955.88         3805.92 
       0.110769         3651.38         3517.68 
       0.116806         3446.91          3334.7 
       0.122832         3296.67         3194.91 
       0.129052         3069.71         3048.14 
       0.135211         2905.28         2870.93 
       0.141259         2762.59          2661.7 
       0.147318         2577.65         2432.91 
       0.153489          2341.3         2206.02 
       0.159709         2195.56         2007.55 
       0.165845          2098.4         1854.37 
       0.171974         1981.62         1743.98 
       0.178125         1888.28          1666.3 
       0.184229         1810.13         1607.11 
        0.19034         1712.74         1550.57 
       0.196428         1677.12         1486.09 
       0.202534          1611.6         1409.18 
       0.208729         1530.21         1321.49 
       0.214876         1459.13         1232.24 
       0.220989         1403.07         1149.42 
       0.227147         1340.17            1078 
        0.23329         1284.95         1021.06 
       0.239377         1261.97         977.437 
       0.245482         1182.49         942.586 
       0.251667         1176.04         911.318 
       0.257832         1129.11         879.774 
       0.263955         1091.61         845.444 
       0.270079         1051.57         807.671 
        0.27624         1038.48         767.795 
       0.282372         994.642         728.649 
        0.28843         982.879         692.888 
       0.294538         932.411         661.268 
       0.300721         926.996         634.183 
        0.30691          889.11          611.33 
       0.313033         871.518         591.469 
       0.319153         853.114         572.822 
       0.325316         826.126         553.968 
        0.33145         805.854         534.505 
       0.337538         791.608         514.503 
       0.343633         771.818         494.346 
       0.349808         744.468         474.568 
       0.355968         739.171         456.143 
       0.362074         730.533         439.631 
       0.368217         708.006         424.746 
       0.374374         679.269         411.342 
       0.380519         679.289         398.977 
       0.386598         659.983         387.252 
       0.392688         657.506         375.691 
        0.39888         637.839         363.896 
       0.405048         627.949         352.165 
       0.411186         618.843         340.686 
       0.417313         606.034         329.617 
       0.423458         594.419         319.123 
       0.429607         586.494         309.348 
       0.435692         572.808         300.347 
       0.441815         567.588          291.89 
       0.447964          555.76         283.861 
       0.454126          548.13         276.108 
       0.460267         535.643         268.557 
       0.466387         529.459         261.179 
        0.47254         523.125         253.896 
       0.478662         519.533         246.821 
       0.484765         502.285         240.013 
       0.490885         498.602         233.493 
       0.497035         488.764          227.26 
       0.503198         484.436          221.32 
       0.509342         480.373         215.684 
       0.515458         476.178         210.314 
       0.521598         463.725         205.107 
       0.527764         456.259         200.017 
       0.533884         453.873          195.09 
           0.54         448.112         190.299 
       0.546137         445.476         185.632 
       0.552299         437.696         181.094 
       0.558452          435.12          176.72 
       0.564573          429.27         172.532 
       0.570708         423.022         168.501 
       0.576825         412.711         164.636 
       0.582926         412.495         160.914 
       0.589034         408.688         157.301 
       0.595184         405.207         153.764 
       0.601379         398.722           150.3 
       0.607522         393.332         146.963 
       0.613639         392.175         143.736 
       0.619772         383.864         140.599 
       0.625918         382.283         137.551 
       0.632068         376.202         134.594 
       0.638161         374.706         131.755 
         0.6443         368.524         128.983 
       0.650464          365.77         126.286 
       0.656582         362.704         123.689 
       0.662703         361.803         121.165 
       0.668861         355.637         118.696 
       0.675024         352.352         116.292 
       0.681124         349.502         113.975 
       0.687237         346.337         111.714 
       0.693381         341.327         109.504 
       0.699536         337.289          107.35 
       0.705665         335.335         105.266 
       0.711789         333.757         103.241 
       0.717957         330.908         101.258 
        0.72409         328.371         99.3396 
       0.730186         324.044         97.4835 
       0.736317         321.212         95.6649 
       0.742472         319.351         93.8858 
       0.748622         316.207         92.1528 
        0.75476         312.474         90.4667 
       0.760888         309.251         88.8251 
       0.767043         309.568         87.2176 
       0.773185          305.95         85.6535 
       0.779291         301.466         84.1369 
       0.785407         300.698         82.6554 
       0.791564          296.96         81.2008 
       0.797719         294.615         79.7824 
       0.803834         291.778         78.4074 
       0.809972          291.16         77.0603 
       0.816124         290.233         75.7421 
       0.822261         286.664         74.4586 
       0.828378         284.382         73.2088 
       0.834502         281.939         71.9868 
       0.840667         279.607         70.7848 
       0.846816          278.12         69.6138 
       0.852925         276.401         68.4767 
       0.859047         274.243         67.3629 
       0.865192         270.884         66.2702 
       0.871341         268.885         65.2012 
       0.877463          268.11         64.1607 
       0.883569         266.469         63.1458 
       0.889708          263.59         62.1477 
       0.895864         261.822         61.1687 
       0.902008         259.903          60.213 
       0.908149          258.11         59.2784 
       0.914301         255.284         58.3623 
       0.920448          253.96         57.4665 
       0.926574         251.245         56.5927 
       0.932687         251.388         55.7391 
       0.938823         248.475         54.9001 
       0.944975         247.681         54.0765 
       0.951105         245.833         53.2729 
       0.957225          244.14         52.4871 
       0.963368         240.867         51.7145 
       0.969511         240.057         50.9575 
       0.975621          237.99         50.2199 
       0.981748         237.496          49.495 
       0.987916         235.795         48.7799 
        0.99406         232.766         48.0817 
        1.00019         232.294         47.3986 
        1.00632         230.846         46.7295 
        1.01246         228.928         46.0723 
        1.01859         229.256         45.4289 
        1.02471         225.434         44.7986 
        1.03085         224.155         44.1782 
        1.03698         223.171         43.5708 
        1.04314         221.012         42.9724 
        1.04929          219.72         42.3866 
        1.05541         220.009         41.8142 
        1.06154         216.655         41.2509 
        1.06769         216.313         40.6973 
        1.07382         214.595         40.1556 
        1.07993         213.109          39.625 
        1.08607         212.632         39.1019 
        1.09222         210.816         38.5878 
        1.09836          209.26         38.0835 
        1.10449         207.215         37.5888 
        1.11063         205.607         37.1025 
        1.11677         205.182         36.6249 
         1.1229         203.498         36.1566 
        1.12903          202.62         35.6961 
        1.13518         201.222         35.2433 
        1.14131         199.531         34.7986 
        1.14745         199.517         34.3619 
        1.15359         197.678         33.9326 
        1.15973         196.088         33.5105 
        1.16584         194.875         33.0975 
        1.17197         194.787         32.6909 
        1.17811         192.413           32.29 
        1.18424         191.504         31.8969 
        1.19038         191.013         31.5092 
        1.19652         189.313         31.1282 
        1.20267          188.88         30.7535 
        1.20881          187.22         30.3851 
        1.21495         186.139         30.0232 
        1.22108         184.955         29.6674 
         1.2272         183.668         29.3182 
        1.23334         183.149         28.9738 
        1.23949         181.469         28.6341 
        1.24562         180.717         28.3008 
        1.25174         179.632         27.9734 
        1.25789         178.389         27.6501 
        1.26402         176.759         27.3325 
        1.27014         175.659         27.0207 
        1.27628         175.028         26.7129 
        1.28244         174.918         26.4092 
        1.28858          172.92         26.1107 
        1.29471         171.733         25.8175 
        1.30084         171.155         25.5291 
        1.30697         169.627         25.2447 
        1.31312         168.539         24.9642 
        1.31925         167.736         24.6888 
        1.32537         167.255         24.4179 
        1.33151         165.586         24.1501 
        1.33765         164.577         23.8864 
        1.34378         164.052         23.6273 
        1.34992         163.234         23.3718 
        1.35606         163.106         23.1195 
         1.3622         161.269         22.8714 
        1.36833          159.92         22.6276 
        1.37445         159.394         22.3874 
        1.38059         158.098         22.1501 
        1.38675         157.612         21.9155 
        1.39288         156.722         21.6854 
        1.39901         156.372         21.4586 
        1.40515         154.611         21.2346 
         1.4113         154.012         21.0139 
        1.41742         152.847         20.7971 
        1.42355         152.188          20.583 
         1.4297         151.138         20.3713 
        1.43585         150.407         20.1627 
        1.44198         149.627         19.9578 
        1.44809         148.957         19.7561 
        1.45423           148.2         19.5564 
        1.46036         147.007         19.3599 
        1.46649         146.061         19.1661 
        1.47263         145.234         18.9747 
        1.47877         144.375          18.786 
        1.48491         143.037         18.5996 
        1.49104         143.036         18.4162 
        1.49718         141.694          18.235 
        1.50333         141.049         18.0561 
        1.50947         140.335         17.8799 
         1.5156         139.532         17.7063 
        1.52172         138.782          17.535 
        1.52787         137.627         17.3656 
          1.534         137.237         17.1987 
        1.54013         136.431         17.0341 
        1.54627         135.635         16.8714 
        1.55241         134.705         16.7109 
        1.55855          133.97         16.5526 
        1.56467         133.112         16.3968 
         1.5708         132.265         16.2426 
        1.57695         131.903         16.0901 
        1.58308         131.185         15.9399 
        1.58922         130.609         15.7916 
        1.59535         129.588         15.6452 
         1.6015         129.146         15.5004 
        1.60764           128.4         15.3576 
        1.61376         127.532         15.2169 
        1.61989         126.808         15.0779 
        1.62604         125.879         14.9404 
        1.63218         125.685         14.8046 
        1.63831         124.695         14.6708 
        1.64444          124.08         14.5387 
        1.65059         123.462         14.4078 
        1.65673         122.477         14.2787 
        1.66285         122.111         14.1516 
        1.66898         121.301         14.0259 
        1.67512         120.926         13.9016 
        1.68127         119.993         13.7786 
         1.6874         119.118         13.6574 
        1.69353         118.846         13.5378 
        1.69967          118.13         13.4193 
        1.70581         117.367         13.3022 
        1.71193         116.772          13.187 
        1.71806          116.25         13.0729 
        1.72421         115.559           12.96 
        1.73035         115.334         12.8485 
        1.73649         114.463         12.7383 
        1.74262         113.666         12.6295 
        1.74876         113.286          12.522 
        1.75489         112.449         12.4159 
        1.76101         111.706          12.311 
        1.76715         111.301         12.2072 
        1.77329         110.922         12.1045 
        1.77943         110.031          12.003 
        1.78557         109.685         11.9027 
        1.79171         108.787         11.8036 
        1.79785         108.276         11.7056 
        1.80399         107.581         11.6087 
        1.81012         107.144          11.513 
        1.81625         106.632         11.4185 
        1.82239         106.201         11.3248 
        1.82853         105.418         11.2323 
        1.83466         104.793         11.1409 
        1.84078         104.386         11.0506 
        1.84692         103.571         10.9612 
        1.85306         103.321         10.8726 
         1.8592          102.64         10.7852 
        1.86533         101.882         10.6988 
        1.87147         101.464         10.6132 
        1.87761         100.805         10.5285 
        1.88375          100.21         10.4449 
        1.88988         99.8253         10.3622 
        1.89601          99.183         10.2804 
        1.90215         98.6597         10.1994 
        1.90829         98.2354         10.1194 
        1.91442         97.7322         10.0401 
        1.92056         97.0177         9.96184 
         1.9267         96.7813         9.88429 
        1.93284          96.204         9.80752 
        1.93897         95.5949         9.73171 
        1.94509         95.2239         9.65686 
        1.95123         94.6669         9.58262 
        1.95737         94.1479          9.5091 
        1.96349         93.6395         9.43654 
        1.96964         92.8522         9.36453 
        1.97578         92.4602         9.29324 
        1.98192         92.3025         9.22283 
        1.98805         91.5536         9.15315 
        1.99419         91.2867         9.08418 
        2.00033         90.6378          9.0159 
        2.00647         90.3256         8.94833 
         2.0126         89.7202         8.88157 
        2.01874         89.1013         8.81538 
        2.02488         88.8376         8.74982 
        2.03101         88.1452         8.68504 
        2.03714         87.6091         8.62098 
        2.04328         87.3379         8.55749 
        2.04941          86.897         8.49469 
        2.05554         86.3749         8.43256 
        2.06167         86.0217         8.37098 
        2.06781         85.3881         8.30999 
        2.07396         85.0835         8.24953 
        2.08009         84.7405         8.18978 
        2.08622         84.1289         8.13068 
        2.09237         83.7663         8.07205 
        2.09851         83.3694         8.01399 
        2.10464         82.9072          7.9566 
        2.11077         82.4928         7.89984 
        2.11691         82.1599          7.8435 
        2.12305          81.537         7.78771 
        2.12918         81.0933          7.7326 
        2.13531         80.8068         7.67802 
        2.14145         80.1327         7.62384 
         2.1476         79.7378         7.57012 
        2.15372         79.4906         7.51718 
        2.15985         79.0795          7.4647 
        2.16599         78.5356         7.41257 
        2.17213         78.2216         7.36099 
        2.17827         77.7822         7.30992 
         2.1844         77.3274         7.25937 
        2.19054         77.1167         7.20929 
        2.19666         76.6473         7.15974 
         2.2028         76.3036         7.11062 
        2.20893         75.8547         7.06194 
        2.21508         75.4466         7.01365 
        2.22122         75.0618          6.9658 
        2.22736         74.7071          6.9185 
        2.23349         74.3043         6.87164 
        2.23962         73.9849          6.8252 
        2.24577         73.6408         6.77914 
         2.2519          73.293         6.73358 
        2.25802         72.8514          6.6885 
        2.26417         72.4378         6.64371 
        2.27031         72.1304         6.59929 
        2.27644         71.6202         6.55541 
        2.28257         71.2753         6.51192 
        2.28872         71.0408         6.46875 
        2.29486         70.5053         6.42598 
        2.30099         70.0154         6.38368 
        2.30712         69.8988         6.34175 
        2.31326         69.5179         6.30012 
         2.3194          69.147         6.25888 
        2.32553         68.8284         6.21809 
        2.33166         68.5037         6.17768 
         2.3378         68.0024         6.13757 
        2.34394         67.6841          6.0978 
        2.35007         67.3982         6.05844 
        2.35619         67.0896         6.01948 
        2.36233         66.7051         5.98076 
        2.36848         66.3925         5.94231 
        2.37462          65.928         5.90428 
        2.38075          65.778         5.86661 
        2.38689         65.3571         5.82924 
        2.39303         64.9564          5.7922 
        2.39916         64.6718         5.75553 
        2.40529         64.5163         5.71917 
        2.41143          63.999          5.6831 
        2.41757         63.7758         5.64732 
         2.4237         63.4802         5.61192 
        2.42983         63.0991         5.57683 
        2.43598         62.7492         5.54194 
        2.44211         62.5267         5.50741 
        2.44823         62.1917         5.47325 
        2.45437         61.7595         5.43929 
        2.46052         61.5631         5.40558 
        2.46665         61.3032         5.37222 
        2.47279         60.8764         5.33916 
        2.47892         60.6643         5.30634 
        2.48507         60.2531         5.27378 
         2.4912         59.9828         5.24155 
