# k  (h/Mpc)    P(k)  (Mpc/h)^3    P_linear(k)  (Mpc/h)^3
     0.00783031         3536.36         3583.96 
       0.013688         4383.57         4379.48 
       0.019231         4393.09         4390.76 
      0.0249154         3983.82         4022.22 
      0.0312784         3445.16         3454.69 
      0.0375637          2937.5         2928.96 
      0.0433917         2536.88         2548.87 
      0.0492413         2278.02         2278.12 
      0.0555754         2057.44         2078.58 
      0.0619321         1939.44         1928.59 
       0.067871         1781.34         1795.78 
      0.0738098         1635.17         1649.47 
      0.0800417         1460.21         1479.57 
      0.0862327         1299.85         1307.53 
      0.0921407         1159.12         1157.33 
      0.0982031         1027.97         1030.36 
       0.104506         945.223         932.389 
       0.110769         875.707         865.394 
       0.116806         823.326         820.077 
       0.122832         789.937         782.818 
       0.129052         741.687         743.091 
       0.135211         696.819         697.178 
       0.141259          652.58         645.754 
       0.147318         603.201         591.819 
       0.153489         548.719          539.83 
       0.159709         507.961         495.022 
       0.165845         479.436         460.355 
       0.171974          449.08          434.66 
       0.178125         430.111          415.39 
       0.184229         414.615          399.46 
        0.19034         390.853         383.687 
       0.196428         379.321         366.248 
       0.202534         364.058         346.598 
       0.208729         341.345         325.338 
       0.214876         319.054         304.511 
       0.220989          305.08         285.601 
       0.227147         285.992         269.351 
        0.23329         273.314         256.144 
       0.239377         264.945         245.551 
       0.245482         250.202         236.525 
       0.251667           245.7         228.022 
       0.257832         237.061          219.42 
       0.263955         227.736         210.379 
       0.270079         218.461         200.899 
        0.27624         212.395         191.296 
       0.282372         203.218         182.132 
        0.28843         194.441          173.86 
       0.294538         186.172         166.489 
       0.300721         182.511          160.01 
        0.30691         174.372         154.301 
       0.313033         169.498         149.133 
       0.319153         162.037         144.167 
       0.325316         158.975         139.184 
        0.33145         153.013         134.169 
       0.337538         149.657         129.189 
       0.343633         144.214         124.304 
       0.349808          139.63         119.597 
       0.355968         136.143         115.229 
       0.362074         131.888         111.269 
       0.368217         128.093         107.621 
       0.374374         124.297         104.238 
       0.380519          121.42          101.05 
       0.386598         118.125         97.9983 
       0.392688         115.868         95.0041 
        0.39888         112.616         92.0059 
       0.405048         109.879           89.08 
       0.411186         107.298         86.2644 
       0.417313         104.195         83.5776 
       0.423458         101.694         81.0273 
       0.429607         99.0754         78.6298 
       0.435692         95.8431         76.3932 
       0.441815         94.8192          74.256 
       0.447964         93.1855         72.2023 
       0.454126         89.1353         70.2141 
       0.460267         87.9302         68.2854 
       0.466387          85.963         66.4154 
        0.47254         84.4633          64.591 
       0.478662         83.1901         62.8361 
       0.484765         80.8015         61.1532 
       0.490885         79.1876         59.5384 
       0.497035         78.1392          57.988 
       0.503198         75.9912         56.5003 
       0.509342         74.1937         55.0757 
       0.515458         72.9523         53.7092 
       0.521598         71.8828         52.3826 
       0.527764          70.583         51.0902 
       0.533884         69.3892         49.8443 
           0.54         67.9582         48.6375 
       0.546137          67.129         47.4659 
       0.552299         66.1043           46.33 
       0.558452         64.2614         45.2357 
       0.564573         63.1455         44.1848 
       0.570708         62.3442         43.1681 
       0.576825         61.1327          42.189 
       0.582926         59.9109         41.2439 
       0.589034          58.569         40.3265 
       0.595184         57.8661         39.4296 
       0.601379         57.0268         38.5523 
       0.607522         55.6904          37.708 
       0.613639         55.4622         36.8925 
       0.619772         54.0895         36.0999 
       0.625918         53.7098         35.3301 
       0.632068         52.9365         34.5831 
       0.638161         52.0536         33.8651 
         0.6443         51.1796         33.1627 
       0.650464         50.3893          32.478 
       0.656582         49.9571         31.8177 
       0.662703         48.9493         31.1758 
       0.668861         48.2735          30.548 
       0.675024         47.5669         29.9371 
       0.681124         46.7713          29.349 
       0.687237         45.9722         28.7756 
       0.693381         45.6263          28.215 
       0.699536         44.6694         27.6685 
       0.705665          44.791         27.1391 
       0.711789         43.6189         26.6243 
       0.717957         43.1686         26.1197 
        0.72409          42.585         25.6311 
       0.730186         41.9274         25.1582 
       0.736317         41.6534         24.6947 
       0.742472         40.9465         24.2414 
       0.748622         40.5998         23.7999 
        0.75476         40.0229         23.3704 
       0.760888         39.4107         22.9523 
       0.767043         38.9898         22.5428 
       0.773185         38.4152         22.1443 
       0.779291         38.2448         21.7578 
       0.785407          37.851           21.38 
       0.791564         37.1932         21.0089 
       0.797719         36.4779         20.6469 
       0.803834         36.4251         20.2959 
       0.809972         35.9548         19.9518 
       0.816124         35.2864         19.6151 
       0.822261         35.0553         19.2871 
       0.828378          34.788         18.9677 
       0.834502         34.3778         18.6553 
       0.840667         34.0145          18.348 
       0.846816         33.4774         18.0485 
       0.852925         33.2019         17.7577 
       0.859047         32.7939         17.4727 
       0.865192         32.5106         17.1931 
       0.871341         32.3512         16.9195 
       0.877463         31.7058         16.6532 
       0.883569         31.4274         16.3932 
       0.889708         31.1351         16.1376 
       0.895864         30.8565         15.8868 
       0.902008         30.6036         15.6419 
       0.908149         30.2926         15.4024 
       0.914301          30.179         15.1675 
       0.920448         29.6234         14.9378 
       0.926574         29.4208         14.7137 
       0.932687         29.1133         14.4947 
       0.938823         28.7218         14.2794 
       0.944975         28.5564          14.068 
       0.951105         28.2948         13.8617 
       0.957225         27.9584           13.66 
       0.963368         27.8514         13.4616 
       0.969511         27.5935         13.2672 
       0.975621           27.37         13.0777 
       0.981748         26.9846         12.8914 
       0.987916          26.848         12.7076 
        0.99406         26.5838         12.5282 
        1.00019         26.2608         12.3526 
        1.00632         26.1288         12.1805 
        1.01246         25.9524         12.0115 
        1.01859         25.5688          11.846 
        1.02471         25.5314         11.6838 
        1.03085         25.2923         11.5242 
        1.03698         24.8984         11.3678 
        1.04314         24.7442         11.2138 
        1.04929         24.5281          11.063 
        1.05541         24.2737         10.9155 
        1.06154         24.1737         10.7705 
        1.06769         24.0058         10.6278 
        1.07382          23.764         10.4883 
        1.07993         23.6611         10.3515 
        1.08607         23.3439         10.2167 
        1.09222         23.2509         10.0841 
        1.09836         22.9744         9.95407 
        1.10449         22.8549         9.82649 
        1.11063         22.5712         9.70102 
        1.11677         22.5061         9.57781 
         1.1229         22.3987         9.45695 
        1.12903         22.1012          9.3381 
        1.13518         21.9121          9.2212 
        1.14131         21.8634         9.10638 
        1.14745         21.6683          8.9936 
        1.15359         21.5664         8.88272 
        1.15973         21.3326         8.77367 
        1.16584         21.0867         8.66695 
        1.17197         21.1108         8.56188 
        1.17811         20.8299         8.45823 
        1.18424         20.6635         8.35661 
        1.19038         20.6102         8.25638 
        1.19652         20.4602         8.15784 
        1.20267         20.2985         8.06093 
        1.20881          20.167         7.96562 
        1.21495         20.0336         7.87201 
        1.22108         19.8705         7.77993 
         1.2272         19.6752         7.68955 
        1.23334         19.5917          7.6004 
        1.23949         19.4173         7.51247 
        1.24562         19.3526         7.42618 
        1.25174          19.241         7.34139 
        1.25789         19.0859         7.25766 
        1.26402         19.0133         7.17541 
        1.27014         18.8058         7.09463 
        1.27628          18.643         7.01487 
        1.28244          18.591         6.93618 
        1.28858         18.5206         6.85882 
        1.29471         18.3512         6.78281 
        1.30084          18.211         6.70803 
        1.30697         18.0982         6.63428 
        1.31312         17.9332         6.56153 
        1.31925         17.8325         6.49011 
        1.32537          17.785         6.41982 
        1.33151         17.6228         6.35033 
        1.33765         17.5539         6.28192 
        1.34378         17.4584         6.21465 
        1.34992         17.2472         6.14832 
        1.35606          17.224         6.08282 
         1.3622         17.1173          6.0184 
        1.36833         16.9782         5.95507 
        1.37445         16.9424         5.89269 
        1.38059         16.8129         5.83102 
        1.38675         16.6358         5.77008 
        1.39288          16.606         5.71027 
        1.39901         16.4729         5.65133 
        1.40515         16.4073          5.5931 
         1.4113         16.2862         5.53572 
        1.41742          16.162         5.47936 
        1.42355         16.1085         5.42369 
         1.4297         16.0322         5.36863 
        1.43585         15.9761         5.31435 
        1.44198         15.8165         5.26104 
        1.44809         15.7511         5.20857 
        1.45423         15.6622         5.15662 
        1.46036         15.5928         5.10548 
        1.46649         15.5098         5.05502 
        1.47263         15.3808          5.0052 
        1.47877         15.3092         4.95608 
        1.48491          15.244         4.90755 
        1.49104         15.1886         4.85977 
        1.49718         15.0611          4.8126 
        1.50333         15.0049         4.76598 
        1.50947         14.9328         4.72007 
         1.5156          14.804         4.67484 
        1.52172         14.7331         4.63021 
        1.52787         14.6795         4.58607 
          1.534         14.5747         4.54256 
        1.54013         14.4674         4.49966 
        1.54627         14.4098         4.45724 
        1.55241         14.3392         4.41537 
        1.55855         14.2632         4.37409 
        1.56467         14.1887         4.33345 
         1.5708         14.1669         4.29322 
        1.57695          14.034         4.25344 
        1.58308         14.0013         4.21426 
        1.58922         13.9214         4.17555 
        1.59535         13.8467         4.13734 
         1.6015         13.7551         4.09956 
        1.60764         13.6998         4.06227 
        1.61376         13.6523         4.02554 
        1.61989         13.5294         3.98925 
        1.62604         13.5249         3.95332 
        1.63218         13.4301         3.91786 
        1.63831         13.3899         3.88292 
        1.64444         13.2712         3.84839 
        1.65059         13.2151         3.81421 
        1.65673         13.1915         3.78047 
        1.66285         13.0673         3.74724 
        1.66898         13.0544          3.7144 
        1.67512         12.9886          3.6819 
        1.68127         12.9117         3.64975 
         1.6874         12.8432         3.61806 
        1.69353         12.7843         3.58677 
        1.69967         12.7201         3.55578 
        1.70581         12.6622         3.52516 
        1.71193         12.5867         3.49503 
        1.71806          12.553         3.46518 
        1.72421         12.4696         3.43563 
        1.73035          12.433         3.40645 
        1.73649         12.3725         3.37762 
        1.74262         12.3408         3.34915 
        1.74876         12.2734         3.32099 
        1.75489         12.2164         3.29322 
        1.76101          12.126         3.26577 
        1.76715         12.1317         3.23859 
        1.77329         12.0274          3.2117 
        1.77943         11.9728         3.18509 
        1.78557         11.9399         3.15883 
        1.79171          11.905         3.13286 
        1.79785         11.8053         3.10718 
        1.80399         11.7689         3.08179 
        1.81012         11.7323         3.05673 
        1.81625         11.6586         3.03195 
        1.82239         11.6198         3.00741 
        1.82853         11.5342         2.98315 
        1.83466         11.4961         2.95919 
        1.84078         11.4209         2.93552 
        1.84692         11.4131         2.91207 
        1.85306         11.3492         2.88884 
         1.8592         11.2993         2.86591 
        1.86533         11.2644         2.84324 
        1.87147         11.2106         2.82079 
        1.87761         11.1748         2.79858 
        1.88375         11.0804         2.77663 
        1.88988         11.0808         2.75494 
        1.89601         11.0238         2.73347 
        1.90215         10.9613         2.71221 
        1.90829         10.9239         2.69119 
        1.91442         10.8771         2.67039 
        1.92056         10.8393         2.64983 
         1.9267         10.7909         2.62947 
        1.93284         10.7292         2.60931 
        1.93897         10.6737          2.5894 
        1.94509         10.6408         2.56974 
        1.95123         10.6061         2.55024 
        1.95737          10.563         2.53093 
        1.96349         10.5153         2.51186 
        1.96964         10.4633         2.49294 
        1.97578          10.427         2.47421 
        1.98192         10.3679          2.4557 
        1.98805         10.3472         2.43739 
        1.99419         10.2937         2.41926 
        2.00033         10.2624          2.4013 
        2.00647         10.2246         2.38354 
         2.0126         10.1555         2.36598 
        2.01874         10.1236         2.34858 
        2.02488          10.064         2.33134 
        2.03101         10.0586          2.3143 
        2.03714         10.0098         2.29745 
        2.04328          9.9693         2.28074 
        2.04941         9.90941         2.26422 
        2.05554         9.89995         2.24787 
        2.06167         9.84031         2.23167 
        2.06781         9.82251         2.21562 
        2.07396         9.78885          2.1997 
        2.08009         9.74433         2.18397 
        2.08622         9.67382         2.16842 
        2.09237         9.67233         2.15298 
        2.09851         9.63503         2.13769 
        2.10464         9.58179         2.12258 
        2.11077         9.53748         2.10763 
        2.11691         9.50028         2.09279 
        2.12305         9.47429          2.0781 
        2.12918         9.44002         2.06358 
        2.13531         9.40468          2.0492 
        2.14145         9.36668         2.03492 
         2.1476         9.33472         2.02077 
        2.15372         9.29797         2.00682 
        2.15985         9.26599         1.99298 
        2.16599         9.23099         1.97924 
        2.17213         9.20429         1.96565 
        2.17827         9.16696         1.95218 
         2.1844         9.12974         1.93886 
        2.19054         9.07379         1.92565 
        2.19666         9.06292         1.91259 
         2.2028         9.02242         1.89963 
        2.20893         9.00585         1.88679 
        2.21508         8.95002         1.87406 
        2.22122         8.91126         1.86143 
        2.22736         8.88997         1.84895 
        2.23349         8.84033         1.83659 
        2.23962         8.83238         1.82434 
        2.24577         8.78328         1.81218 
         2.2519         8.76459         1.80016 
        2.25802         8.72538         1.78826 
        2.26417         8.69443         1.77644 
        2.27031           8.658         1.76471 
        2.27644         8.62789         1.75313 
        2.28257         8.60554         1.74165 
        2.28872         8.56298         1.73025 
        2.29486         8.54041         1.71896 
        2.30099         8.53096         1.70779 
        2.30712         8.49005         1.69671 
        2.31326         8.44855         1.68571 
         2.3194         8.40945         1.67482 
        2.32553         8.39501         1.66405 
        2.33166          8.3498         1.65337 
         2.3378         8.33238         1.64277 
        2.34394         8.30186         1.63226 
        2.35007         8.26169         1.62186 
        2.35619         8.23086         1.61156 
        2.36233         8.19829         1.60133 
        2.36848         8.19115         1.59117 
        2.37462         8.15667         1.58111 
        2.38075         8.11058         1.57116 
        2.38689          8.0908         1.56128 
        2.39303         8.06162         1.55148 
        2.39916         8.04341         1.54178 
        2.40529         8.01886         1.53217 
        2.41143         7.98184         1.52263 
        2.41757         7.97144         1.51316 
         2.4237          7.9335          1.5038 
        2.42983         7.90483         1.49452 
        2.43598         7.89417         1.48529 
        2.44211         7.84966         1.47615 
        2.44823         7.83015         1.46711 
        2.45437         7.81079         1.45812 
        2.46052         7.76401          1.4492 
        2.46665         7.74413         1.44037 
        2.47279         7.71516         1.43162 
        2.47892         7.68353         1.42293 
        2.48507         7.66086         1.41431 
         2.4912         7.63871         1.40578 
