# k  (h/Mpc)    P(k)  (Mpc/h)^3    P_linear(k)  (Mpc/h)^3
     0.00783031         2323.94         2354.76 
       0.013688         2772.66         2774.42 
       0.019231         2700.72         2699.72 
      0.0249154         2384.29         2401.48 
      0.0312784         1996.79         1998.56 
      0.0375637         1654.96         1648.59 
      0.0433917         1405.07         1407.36 
      0.0492413         1245.23         1243.08 
      0.0555754         1120.87         1127.83 
      0.0619321         1050.72         1044.39 
       0.067871          965.66         970.211 
      0.0738098         881.969         886.494 
      0.0800417         781.351         787.663 
      0.0862327         686.057         687.372 
      0.0921407         602.808         600.675 
      0.0982031         529.018         528.832 
       0.104506         481.349         475.162 
       0.110769         445.099         440.186 
       0.116806         419.459         417.799 
       0.122832         403.081         399.779 
       0.129052         379.712         379.823 
       0.135211         355.711         355.568 
       0.141259         330.503         327.572 
       0.147318         302.691         297.918 
       0.153489         273.319         269.464 
       0.159709         250.392         245.344 
       0.165845         234.517         227.211 
       0.171974         219.351         214.312 
       0.178125         210.413         205.074 
       0.184229         203.036         197.602 
        0.19034          192.41         190.021 
       0.196428         185.716         181.263 
       0.202534         177.379         171.064 
       0.208729          165.37         159.852 
       0.214876         153.729          148.85 
       0.220989         145.634         138.959 
       0.227147         136.089         130.624 
        0.23329         129.593         124.035 
       0.239377          125.13         118.902 
       0.245482         118.909         114.619 
       0.251667         116.296         110.573 
       0.257832         111.994         106.382 
       0.263955         107.414         101.871 
       0.270079         102.648          97.059 
        0.27624         98.9657         92.1477 
       0.282372         94.4176         87.4777 
        0.28843         89.8078         83.2994 
       0.294538         85.9255         79.6419 
       0.300721         83.6538          76.479 
        0.30691         80.0095         73.7377 
       0.313033         77.5437         71.2669 
       0.319153         74.0398         68.8834 
       0.325316         72.7496          66.456 
        0.33145         69.8444         63.9884 
       0.337538         67.8044         61.5129 
       0.343633          65.109         59.0845 
       0.349808         62.9795         56.7485 
       0.355968         61.0166         54.6008 
       0.362074         58.9288         52.6708 
       0.368217         57.1014         50.9112 
       0.374374         55.3138          49.291 
       0.380519         53.9251         47.7628 
       0.386598         52.4209         46.2983 
       0.392688         51.2362         44.8517 
        0.39888         49.6218         43.3937 
       0.405048         48.3105         41.9693 
       0.411186         47.0321         40.5962 
       0.417313         45.4566         39.2889 
       0.423458         44.2269         38.0569 
       0.429607         43.0004         36.9023 
       0.435692         41.6239         35.8304 
       0.441815         40.8841         34.8108 
       0.447964          40.133         33.8306 
       0.454126         38.5012         32.8786 
       0.460267         37.8276         31.9552 
       0.466387         36.7004         31.0581 
        0.47254         36.0588         30.1803 
       0.478662         35.4017         29.3367 
       0.484765         34.2849         28.5306 
       0.490885         33.4914         27.7587 
       0.497035         33.0341         27.0181 
       0.503198          32.113         26.3099 
       0.509342         31.2777         25.6336 
       0.515458         30.6029          24.985 
       0.521598         30.0569         24.3541 
       0.527764         29.3924         23.7389 
       0.533884         28.8826         23.1467 
           0.54         28.2087         22.5732 
       0.546137         27.7475         22.0164 
       0.552299         27.2663         21.4764 
       0.558452         26.4186         20.9569 
       0.564573         26.0069         20.4595 
       0.570708         25.5586         19.9792 
       0.576825         24.9317         19.5168 
       0.582926         24.4348         19.0702 
       0.589034         23.7985         18.6365 
       0.595184         23.4831         18.2127 
       0.601379         23.0057         17.7987 
       0.607522         22.5825         17.4006 
       0.613639         22.3388         17.0163 
       0.619772         21.7468         16.6426 
       0.625918          21.606         16.2797 
       0.632068         21.2501         15.9279 
       0.638161         20.7708           15.59 
         0.6443         20.3517           15.26 
       0.650464          19.974         14.9386 
       0.656582         19.8366         14.6289 
       0.662703         19.4479         14.3277 
       0.668861         19.0718         14.0331 
       0.675024         18.7236         13.7464 
       0.681124         18.3964         13.4705 
       0.687237         18.0837         13.2017 
       0.693381          17.906         12.9391 
       0.699536         17.4303         12.6833 
       0.705665         17.3433         12.4358 
       0.711789         16.9655         12.1952 
       0.717957         16.7147         11.9594 
        0.72409         16.4617         11.7313 
       0.730186         16.2279         11.5105 
       0.736317         16.0405         11.2942 
       0.742472         15.7637         11.0826 
       0.748622         15.5796         10.8766 
        0.75476         15.2849         10.6763 
       0.760888         15.0583         10.4814 
       0.767043         14.8717         10.2907 
       0.773185         14.5956         10.1051 
       0.779291          14.506         9.92524 
       0.785407         14.3185         9.74953 
       0.791564          14.064         9.57702 
       0.797719         13.7501         9.40882 
       0.803834         13.7195         9.24575 
       0.809972         13.5862         9.08598 
       0.816124         13.2754         8.92967 
       0.822261         13.1162         8.77746 
       0.828378         12.9748         8.62928 
       0.834502         12.8562         8.48441 
       0.840667         12.6529         8.34195 
       0.846816         12.4203         8.20318 
       0.852925         12.3015         8.06845 
       0.859047         12.1598         7.93649 
       0.865192         12.0427         7.80706 
       0.871341         11.9301         7.68044 
       0.877463         11.7192         7.55722 
       0.883569         11.5596         7.43704 
       0.889708         11.3728         7.31886 
       0.895864         11.2734         7.20297 
       0.902008         11.1859         7.08984 
       0.908149         11.0592         6.97923 
       0.914301         10.9576          6.8708 
       0.920448         10.7598          6.7648 
       0.926574         10.6489         6.66141 
       0.932687         10.5297         6.56042 
       0.938823         10.3898         6.46116 
       0.944975          10.266         6.36375 
       0.951105         10.1662         6.26871 
       0.957225         10.0886         6.17577 
       0.963368         9.98028         6.08442 
       0.969511         9.87703         5.99493 
       0.975621         9.76879         5.90773 
       0.981748         9.64275         5.82204 
       0.987916         9.57637         5.73753 
        0.99406         9.43106         5.65502 
        1.00019         9.29112          5.5743 
        1.00632         9.26614         5.49524 
        1.01246          9.1633         5.41761 
        1.01859         9.01633         5.34161 
        1.02471         8.96995         5.26717 
        1.03085         8.87247          5.1939 
        1.03698          8.7386         5.12218 
        1.04314          8.6859         5.05152 
        1.04929         8.57477         4.98236 
        1.05541         8.47495         4.91478 
        1.06154         8.41685         4.84829 
        1.06769         8.37362         4.78293 
        1.07382         8.24682           4.719 
        1.07993         8.17272         4.65638 
        1.08607         8.10478         4.59465 
        1.09222         8.03352         4.53398 
        1.09836         7.93607         4.47448 
        1.10449         7.87093         4.41612 
        1.11063         7.78307         4.35874 
        1.11677         7.74406          4.3024 
         1.1229         7.68748         4.24717 
        1.12903         7.58506         4.19285 
        1.13518         7.49331         4.13944 
        1.14131         7.44465           4.087 
        1.14745          7.3698         4.03549 
        1.15359         7.32121         3.98487 
        1.15973         7.24743          3.9351 
        1.16584         7.14564          3.8864 
        1.17197         7.10043         3.83846 
        1.17811         7.06579         3.79119 
        1.18424         6.99506         3.74485 
        1.19038          6.9639         3.69916 
        1.19652          6.8791         3.65425 
        1.20267         6.81006         3.61008 
        1.20881         6.78652         3.56666 
        1.21495         6.72548         3.52403 
        1.22108         6.64261          3.4821 
         1.2272         6.59757         3.44095 
        1.23334         6.52694         3.40038 
        1.23949         6.46908         3.36037 
        1.24562         6.43719         3.32111 
        1.25174         6.38456         3.28255 
        1.25789         6.33339         3.24448 
        1.26402         6.30006         3.20708 
        1.27014         6.24095         3.17037 
        1.27628         6.16684         3.13412 
        1.28244          6.1085         3.09837 
        1.28858         6.10516         3.06323 
        1.29471         6.03007         3.02871 
        1.30084         5.97083         2.99476 
        1.30697         5.96489         2.96128 
        1.31312         5.86846         2.92826 
        1.31925         5.82781         2.89585 
        1.32537         5.79137         2.86396 
        1.33151         5.76722         2.83244 
        1.33765         5.70371         2.80141 
        1.34378         5.66327         2.77091 
        1.34992         5.62453         2.74085 
        1.35606         5.57566         2.71117 
         1.3622         5.54585         2.68198 
        1.36833         5.49333         2.65329 
        1.37445         5.45898         2.62503 
        1.38059         5.43934         2.59711 
        1.38675          5.3886         2.56952 
        1.39288         5.36164         2.54244 
        1.39901         5.29555         2.51577 
        1.40515          5.2706         2.48942 
         1.4113         5.23252         2.46346 
        1.41742         5.19474         2.43797 
        1.42355         5.14736         2.41279 
         1.4297         5.12122         2.38789 
        1.43585         5.09622         2.36336 
        1.44198         5.07025         2.33926 
        1.44809         5.02266         2.31555 
        1.45423         4.98279         2.29208 
        1.46036         4.94255         2.26897 
        1.46649         4.91818         2.24618 
        1.47263         4.87279         2.22368 
        1.47877         4.84163         2.20151 
        1.48491         4.81515          2.1796 
        1.49104         4.78268         2.15803 
        1.49718         4.75397         2.13674 
        1.50333         4.72664         2.11571 
        1.50947         4.68443           2.095 
         1.5156         4.66001          2.0746 
        1.52172         4.63401         2.05447 
        1.52787         4.60328         2.03457 
          1.534         4.56464         2.01495 
        1.54013         4.54496         1.99562 
        1.54627         4.50381          1.9765 
        1.55241         4.47729         1.95764 
        1.55855         4.45915         1.93904 
        1.56467         4.42451         1.92074 
         1.5708         4.40428         1.90263 
        1.57695         4.36575         1.88472 
        1.58308         4.33052         1.86708 
        1.58922         4.32221         1.84966 
        1.59535         4.29921         1.83246 
         1.6015          4.2584         1.81546 
        1.60764         4.22922         1.79869 
        1.61376         4.21341         1.78217 
        1.61989         4.18731         1.76585 
        1.62604         4.15791         1.74969 
        1.63218         4.14841         1.73375 
        1.63831         4.11411         1.71804 
        1.64444         4.09398         1.70252 
        1.65059         4.04822         1.68716 
        1.65673         4.05067           1.672 
        1.66285         4.00835         1.65707 
        1.66898         3.98735         1.64232 
        1.67512         3.96674         1.62772 
        1.68127         3.94133         1.61329 
         1.6874         3.92757         1.59906 
        1.69353          3.8908         1.58501 
        1.69967         3.87931          1.5711 
        1.70581          3.8586         1.55736 
        1.71193         3.83055         1.54384 
        1.71806         3.81486         1.53045 
        1.72421         3.78977         1.51719 
        1.73035         3.77547         1.50411 
        1.73649         3.75083         1.49118 
        1.74262           3.726         1.47841 
        1.74876         3.71264         1.46579 
        1.75489         3.69224         1.45333 
        1.76101         3.66189         1.44103 
        1.76715         3.65211         1.42885 
        1.77329          3.6309          1.4168 
        1.77943         3.59885         1.40489 
        1.78557         3.58984         1.39312 
        1.79171         3.56988         1.38149 
        1.79785         3.54959         1.36999 
        1.80399         3.52839         1.35863 
        1.81012         3.50991         1.34741 
        1.81625         3.49443         1.33632 
        1.82239         3.47716         1.32534 
        1.82853         3.45256         1.31448 
        1.83466         3.44018         1.30376 
        1.84078         3.42627         1.29317 
        1.84692         3.41387         1.28268 
        1.85306         3.38401          1.2723 
         1.8592         3.36293         1.26204 
        1.86533         3.34882         1.25191 
        1.87147         3.33555         1.24187 
        1.87761         3.31539         1.23194 
        1.88375         3.29759         1.22213 
        1.88988         3.28271         1.21244 
        1.89601         3.26469         1.20285 
        1.90215         3.24835         1.19335 
        1.90829         3.22898         1.18396 
        1.91442         3.21671         1.17467 
        1.92056         3.20019         1.16549 
         1.9267         3.18037          1.1564 
        1.93284         3.16898          1.1474 
        1.93897         3.15222         1.13851 
        1.94509         3.13933         1.12973 
        1.95123         3.12153         1.12103 
        1.95737         3.09928         1.11241 
        1.96349         3.09322         1.10391 
        1.96964         3.08076         1.09546 
        1.97578         3.05524         1.08711 
        1.98192         3.04916         1.07885 
        1.98805         3.03425         1.07069 
        1.99419         3.01692          1.0626 
        2.00033         3.00808          1.0546 
        2.00647         2.98984         1.04668 
         2.0126         2.98108         1.03885 
        2.01874         2.95729         1.03109 
        2.02488         2.95091         1.02341 
        2.03101         2.92841         1.01582 
        2.03714         2.91653         1.00831 
        2.04328         2.90362         1.00087 
        2.04941         2.88545        0.993508 
        2.05554         2.87693        0.986228 
        2.06167          2.8657         0.97901 
        2.06781         2.85198        0.971864 
        2.07396           2.843         0.96478 
        2.08009         2.82813        0.957778 
        2.08622         2.81226        0.950853 
        2.09237         2.79687        0.943984 
        2.09851          2.7915        0.937181 
        2.10464         2.77948        0.930457 
        2.11077         2.76074        0.923806 
        2.11691         2.74916        0.917206 
        2.12305         2.74097         0.91067 
        2.12918         2.73227        0.904214 
        2.13531         2.71866         0.89782 
        2.14145         2.70601        0.891472 
         2.1476         2.68982        0.885179 
        2.15372         2.67699        0.878978 
        2.15985         2.67525         0.87283 
        2.16599         2.65468        0.866723 
        2.17213         2.64208        0.860681 
        2.17827         2.63668        0.854698 
         2.1844         2.62317        0.848778 
        2.19054         2.61178        0.842911 
        2.19666          2.5981        0.837108 
         2.2028         2.58667        0.831355 
        2.20893         2.57751        0.825653 
        2.21508         2.56498        0.819998 
        2.22122          2.5532        0.814394 
        2.22736         2.54448        0.808854 
        2.23349         2.53602        0.803367 
        2.23962         2.52311        0.797928 
        2.24577         2.51463        0.792534 
         2.2519         2.50696        0.787198 
        2.25802         2.49416         0.78192 
        2.26417         2.48658        0.776675 
        2.27031         2.47258        0.771474 
        2.27644         2.46079        0.766335 
        2.28257         2.44767        0.761243 
        2.28872         2.44685        0.756188 
        2.29486         2.43112         0.75118 
        2.30099         2.41914        0.746228 
        2.30712         2.41026        0.741318 
        2.31326         2.39898        0.736443 
         2.3194         2.39248        0.731616 
        2.32553         2.38497        0.726839 
        2.33166         2.37582        0.722107 
         2.3378         2.36456        0.717411 
        2.34394         2.35491        0.712756 
        2.35007         2.34449        0.708147 
        2.35619         2.33753        0.703586 
        2.36233          2.3279        0.699054 
        2.36848          2.3157        0.694552 
        2.37462         2.31245        0.690099 
        2.38075          2.2988         0.68569 
        2.38689         2.29527        0.681316 
        2.39303         2.28214         0.67698 
        2.39916         2.27433        0.672687 
        2.40529         2.26557        0.668431 
        2.41143         2.25588        0.664209 
        2.41757         2.24884        0.660021 
         2.4237         2.24221        0.655878 
        2.42983         2.22538         0.65177 
        2.43598         2.22228        0.647687 
        2.44211         2.21013        0.643645 
        2.44823         2.20568        0.639647 
        2.45437          2.1948        0.635672 
        2.46052         2.19071        0.631727 
        2.46665          2.1815        0.627823 
        2.47279         2.17108        0.623953 
        2.47892         2.16461        0.620112 
        2.48507         2.15686        0.616301 
         2.4912         2.14354        0.612529 
