# k  (h/Mpc)    Pcb(k)  (Mpc/h)^3    Pcb_linear(k)  (Mpc/h)^3
     0.00783031         7406.42         7500.11 
       0.013688         8888.71         8843.71 
       0.019231         8628.99         8608.29 
      0.0249154         7565.13         7658.66 
      0.0312784         6351.28         6374.37 
      0.0375637         5281.67         5258.51 
      0.0433917         4461.75         4489.23 
      0.0492413         3966.91         3965.32 
      0.0555754         3546.63         3597.78 
      0.0619321         3357.58         3331.66 
       0.067871         3059.89         3095.06 
      0.0738098         2796.15         2828.02 
      0.0800417         2471.29         2512.76 
      0.0862327         2180.41         2192.83 
      0.0921407         1930.63         1916.27 
      0.0982031         1692.82         1687.08 
       0.104506          1556.9         1515.87 
       0.110769         1438.66         1404.29 
       0.116806         1354.57         1332.87 
       0.122832         1300.78         1275.39 
       0.129052         1216.53         1211.73 
       0.135211         1142.87         1134.35 
       0.141259         1070.71         1045.04 
       0.147318         986.257         950.436 
       0.153489         891.131         859.662 
       0.159709         825.286         782.714 
       0.165845         779.071         724.867 
       0.171974         730.896         683.713 
       0.178125         699.912         654.244 
       0.184229         674.335         630.408 
        0.19034         633.335          606.22 
       0.196428         617.351         578.279 
       0.202534         592.577         545.743 
       0.208729         555.414         509.975 
       0.214876         519.837         474.877 
       0.220989         496.504          443.32 
       0.227147         467.667          416.73 
        0.23329         446.926         395.708 
       0.239377         435.005         379.333 
       0.245482         407.498         365.667 
       0.251667         402.416         352.761 
       0.257832         388.166         339.392 
       0.263955         373.296         325.001 
       0.270079         357.478         309.647 
        0.27624         349.579         293.979 
       0.282372         334.693          279.08 
        0.28843          321.92         265.752 
       0.294538         306.726         254.082 
       0.300721         302.648         243.992 
        0.30691         288.591         235.246 
       0.313033         281.627         227.363 
       0.319153         270.458         219.759 
       0.325316         263.823         212.015 
        0.33145         254.416         204.142 
       0.337538         249.919         196.245 
       0.343633         240.913         188.498 
       0.349808         232.768         181.045 
       0.355968         228.565         174.194 
       0.362074         222.379         168.036 
       0.368217         216.007         162.422 
       0.374374         208.495         157.254 
       0.380519          204.98         152.378 
       0.386598         199.467         147.706 
       0.392688         196.371         143.091 
        0.39888         191.077         138.439 
       0.405048         186.202         133.895 
       0.411186         181.953         129.514 
       0.417313         177.898         125.344 
       0.423458         173.926         121.413 
       0.429607          169.81          117.73 
       0.435692         164.472          114.31 
       0.441815         163.043         111.057 
       0.447964         159.939          107.93 
       0.454126         153.052         104.893 
       0.460267         151.251         101.947 
       0.466387         149.055          99.085 
        0.47254         145.687         96.2844 
       0.478662         144.432         93.5932 
       0.484765         139.884         91.0213 
       0.490885         137.617         88.5588 
       0.497035         135.704         86.1962 
       0.503198          131.96         83.9367 
       0.509342         129.768         81.7792 
       0.515458         127.837           79.71 
       0.521598         125.731         77.6974 
       0.527764         123.887         75.7347 
       0.533884         121.925         73.8451 
           0.54         119.623         72.0157 
       0.546137         118.516         70.2392 
       0.552299          116.43         68.5164 
       0.558452         114.146         66.8592 
       0.564573         112.149         65.2723 
       0.570708         110.295           63.74 
       0.576825         108.875         62.2647 
       0.582926         106.697           60.84 
       0.589034         105.053         59.4562 
       0.595184          103.68         58.1042 
       0.601379         102.322         56.7835 
       0.607522         99.9797         55.5135 
       0.613639         99.5738         54.2873 
       0.619772         97.3996         53.0953 
       0.625918         96.2309         51.9375 
       0.632068         95.1377         50.8149 
       0.638161         94.0504          49.737 
         0.6443         92.7738         48.6842 
       0.650464         91.6711         47.6589 
       0.656582         90.2671         46.6707 
       0.662703         88.7504           45.71 
       0.668861         87.5811         44.7702 
       0.675024         86.5875         43.8554 
       0.681124         85.6476         42.9753 
       0.687237         84.0274         42.1176 
       0.693381         83.0378         41.2797 
       0.699536         82.1288         40.4637 
       0.705665         82.2831          39.674 
       0.711789         80.0989         38.9065 
       0.717957         79.6189         38.1544 
        0.72409         78.4152         37.4266 
       0.730186         77.1324         36.7221 
       0.736317         76.8862         36.0319 
       0.742472         76.0292         35.3569 
       0.748622          75.177         34.6998 
        0.75476         74.3725         34.0609 
       0.760888          73.286         33.4391 
       0.767043         72.6497         32.8305 
       0.773185         71.7669         32.2385 
       0.779291         71.0918         31.6646 
       0.785407         70.5049         31.1041 
       0.791564         69.7234         30.5537 
       0.797719         68.5559         30.0171 
       0.803834         68.2659         29.4968 
       0.809972         67.1094         28.9871 
       0.816124         66.6927         28.4885 
       0.822261         66.1337         28.0029 
       0.828378         65.6033         27.5301 
       0.834502           64.92          27.068 
       0.840667         64.2237         26.6135 
       0.846816         63.3687         26.1707 
       0.852925         62.8903         25.7409 
       0.859047         62.0473         25.3199 
       0.865192          61.683          24.907 
       0.871341         61.3061          24.503 
       0.877463         60.2642         24.1099 
       0.883569          59.891         23.7265 
       0.889708         59.5023         23.3495 
       0.895864         58.9862         22.9797 
       0.902008         58.4078         22.6188 
       0.908149         57.9863         22.2659 
       0.914301         57.4404           21.92 
       0.920448         56.9735         21.5818 
       0.926574         56.3742          21.252 
       0.932687         56.1445         20.9298 
       0.938823         55.2328         20.6131 
       0.944975           54.94         20.3024 
       0.951105         54.4375         19.9991 
       0.957225         53.7766         19.7027 
       0.963368         53.7033         19.4112 
       0.969511         53.2872         19.1257 
       0.975621         52.9034         18.8475 
       0.981748         52.2952         18.5741 
       0.987916         51.8879         18.3045 
        0.99406         51.5815         18.0413 
        1.00019         51.0146         17.7838 
        1.00632         50.7478         17.5316 
        1.01246         50.3454         17.2839 
        1.01859         49.6465         17.0414 
        1.02471          49.682         16.8039 
        1.03085         49.1723         16.5702 
        1.03698         48.7402         16.3414 
        1.04314         48.3127         16.1159 
        1.04929         47.9953         15.8953 
        1.05541         47.5007         15.6797 
        1.06154          47.476         15.4676 
        1.06769         46.9991          15.259 
        1.07382         46.7545         15.0551 
        1.07993         46.4717         14.8553 
        1.08607         46.0296         14.6584 
        1.09222         45.7876         14.4648 
        1.09836          45.434          14.275 
        1.10449         45.1016         14.0888 
        1.11063         44.6395         13.9058 
        1.11677         44.3874          13.726 
         1.1229         44.1138         13.5498 
        1.12903         43.5173         13.3765 
        1.13518         43.6894         13.2061 
        1.14131         43.3793         13.0388 
        1.14745         42.7829         12.8745 
        1.15359         42.7479          12.713 
        1.15973          42.248         12.5542 
        1.16584         42.0217         12.3988 
        1.17197         41.7942         12.2459 
        1.17811         41.5703         12.0951 
        1.18424         41.1474         11.9472 
        1.19038          40.965         11.8015 
        1.19652         40.8365         11.6582 
        1.20267         40.4761         11.5173 
        1.20881         40.2119         11.3788 
        1.21495         39.8786         11.2428 
        1.22108         39.6902          11.109 
         1.2272         39.2624         10.9777 
        1.23334         39.1381         10.8483 
        1.23949         39.0897         10.7206 
        1.24562         38.6583         10.5954 
        1.25174         38.5421         10.4724 
        1.25789         38.3126         10.3509 
        1.26402         37.9804         10.2316 
        1.27014         37.6416         10.1145 
        1.27628         37.5125         9.99883 
        1.28244         37.2655         9.88478 
        1.28858         37.1138         9.77267 
        1.29471         36.9689         9.66254 
        1.30084         36.7486         9.55422 
        1.30697         36.4551          9.4474 
        1.31312         36.1607         9.34206 
        1.31925         36.0594         9.23866 
        1.32537         35.8759         9.13693 
        1.33151         35.5552         9.03637 
        1.33765         35.5012         8.93739 
        1.34378         35.2532         8.84009 
        1.34992         34.9526         8.74417 
        1.35606         34.7657         8.64947 
         1.3622         34.5857         8.55635 
        1.36833         34.3641         8.46482 
        1.37445         34.3122         8.37468 
        1.38059         34.0696         8.28558 
        1.38675         33.7666         8.19757 
        1.39288         33.7283         8.11119 
        1.39901         33.4365         8.02609 
        1.40515         33.2818         7.94203 
         1.4113         33.1577          7.8592 
        1.41742         32.8893         7.77788 
        1.42355         32.7423         7.69755 
         1.4297         32.5717         7.61812 
        1.43585         32.4819         7.53985 
        1.44198          32.176         7.46298 
        1.44809         32.0776         7.38732 
        1.45423         31.9207         7.31244 
        1.46036         31.8114         7.23873 
        1.46649         31.5687         7.16602 
        1.47263         31.3993         7.09425 
        1.47877         31.3089         7.02349 
        1.48491         31.2192         6.95359 
        1.49104         30.9562         6.88479 
        1.49718         30.6551         6.81687 
        1.50333          30.644         6.74976 
        1.50947          30.517         6.68369 
         1.5156         30.3133         6.61861 
        1.52172         30.1474         6.55439 
        1.52787         30.1058          6.4909 
          1.534         29.8835         6.42833 
        1.54013         29.6724         6.36665 
        1.54627         29.6002         6.30567 
        1.55241         29.3644         6.24547 
        1.55855         29.2731         6.18615 
        1.56467         29.0216         6.12777 
         1.5708         29.0605         6.06997 
        1.57695         28.7695         6.01284 
        1.58308         28.7213         5.95657 
        1.58922         28.6269         5.90099 
        1.59535         28.4351         5.84613 
         1.6015         28.2435          5.7919 
        1.60764         28.1343         5.73838 
        1.61376         27.9622         5.68568 
        1.61989          27.788          5.6336 
        1.62604         27.7591         5.58206 
        1.63218         27.6221          5.5312 
        1.63831         27.4702         5.48109 
        1.64444         27.3551         5.43158 
        1.65059         27.1652         5.38256 
        1.65673          27.015         5.33421 
        1.66285         26.9452         5.28658 
        1.66898         26.7956         5.23952 
        1.67512         26.7085         5.19294 
        1.68127         26.5163         5.14689 
         1.6874         26.4215          5.1015 
        1.69353         26.3097         5.05668 
        1.69967          26.159          5.0123 
        1.70581         26.0686         4.96847 
        1.71193         25.9731         4.92533 
        1.71806         25.7849         4.88261 
        1.72421         25.6491         4.84031 
        1.73035         25.5296         4.79856 
        1.73649         25.4635         4.75732 
        1.74262         25.3142         4.71659 
        1.74876         25.2992         4.67631 
        1.75489         25.1249         4.63659 
        1.76101         24.9829         4.59734 
        1.76715         24.9049         4.55849 
        1.77329         24.8179         4.52004 
        1.77943         24.6786         4.48202 
        1.78557         24.5358         4.44449 
        1.79171         24.4489         4.40739 
        1.79785         24.3169         4.37071 
        1.80399         24.2371         4.33445 
        1.81012         24.1496         4.29865 
        1.81625         24.0317         4.26327 
        1.82239         23.9608         4.22823 
        1.82853          23.781         4.19361 
        1.83466         23.6988         4.15941 
        1.84078         23.5283         4.12562 
        1.84692         23.4711         4.09216 
        1.85306         23.3716         4.05903 
         1.8592         23.2451         4.02631 
        1.86533         23.1388         3.99398 
        1.87147         23.0561         3.96196 
        1.87761         23.0118         3.93028 
        1.88375         22.9214         3.89898 
        1.88988         22.7997         3.86806 
        1.89601         22.6476         3.83746 
        1.90215         22.6031         3.80716 
        1.90829          22.555          3.7772 
        1.91442         22.3923         3.74757 
        1.92056         22.3292         3.71828 
         1.9267         22.1909         3.68927 
        1.93284         22.0669         3.66055 
        1.93897         22.0383          3.6322 
        1.94509         21.9216          3.6042 
        1.95123         21.8286         3.57643 
        1.95737         21.7202         3.54894 
        1.96349         21.6435          3.5218 
        1.96964         21.5393         3.49487 
        1.97578         21.4724         3.46821 
        1.98192         21.3465         3.44188 
        1.98805         21.3012         3.41582 
        1.99419         21.1943         3.39003 
        2.00033         21.0476         3.36449 
        2.00647          20.996         3.33922 
         2.0126         20.9085         3.31426 
        2.01874          20.824         3.28951 
        2.02488         20.7948         3.26499 
        2.03101         20.6429         3.24077 
        2.03714         20.5745         3.21681 
        2.04328         20.4739         3.19308 
        2.04941         20.4006          3.1696 
        2.05554         20.3341         3.14637 
        2.06167          20.261         3.12335 
        2.06781         20.1664         3.10055 
        2.07396         20.1141         3.07795 
        2.08009         20.0433         3.05561 
        2.08622         19.8815         3.03352 
        2.09237         19.8294          3.0116 
        2.09851         19.7656          2.9899 
        2.10464         19.7031         2.96844 
        2.11077         19.5638         2.94723 
        2.11691         19.5179         2.92617 
        2.12305          19.453         2.90532 
        2.12918         19.4003         2.88472 
        2.13531         19.2875         2.86432 
        2.14145         19.2554         2.84407 
         2.1476         19.1368         2.82399 
        2.15372         19.0574         2.80421 
        2.15985         18.9402          2.7846 
        2.16599         18.9219         2.76511 
        2.17213         18.8647         2.74584 
        2.17827         18.7254         2.72675 
         2.1844           18.64         2.70786 
        2.19054         18.5949         2.68915 
        2.19666         18.5413         2.67063 
         2.2028         18.4752         2.65228 
        2.20893         18.3936         2.63409 
        2.21508         18.2945         2.61604 
        2.22122         18.1807         2.59817 
        2.22736         18.1899         2.58049 
        2.23349          18.079         2.56299 
        2.23962         18.0061         2.54563 
        2.24577         17.9182         2.52843 
         2.2519          17.892          2.5114 
        2.25802         17.8044         2.49456 
        2.26417         17.7683         2.47783 
        2.27031         17.6728         2.46124 
        2.27644         17.6081         2.44484 
        2.28257         17.5181          2.4286 
        2.28872         17.4332         2.41247 
        2.29486         17.3925          2.3965 
        2.30099         17.3098         2.38069 
        2.30712         17.2765         2.36503 
        2.31326         17.2077         2.34948 
         2.3194         17.1455         2.33408 
        2.32553         17.0586         2.31884 
        2.33166           16.97         2.30374 
         2.3378         16.9129         2.28876 
        2.34394         16.8716         2.27391 
        2.35007         16.7921         2.25921 
        2.35619         16.6892         2.24465 
        2.36233         16.6725         2.23019 
        2.36848         16.5861         2.21583 
        2.37462         16.5316         2.20163 
        2.38075         16.4613         2.18756 
        2.38689         16.4379          2.1736 
        2.39303         16.3371         2.15977 
        2.39916         16.2806         2.14608 
        2.40529         16.2113          2.1325 
        2.41143         16.1624         2.11903 
        2.41757         16.1112         2.10567 
         2.4237         16.0327         2.09245 
        2.42983         15.9733         2.07934 
        2.43598         15.9364         2.06632 
        2.44211         15.8609         2.05342 
        2.44823         15.7886         2.04067 
        2.45437         15.7336         2.02799 
        2.46052         15.6833          2.0154 
        2.46665         15.6416         2.00294 
        2.47279         15.5428          1.9906 
        2.47892         15.5201         1.97835 
        2.48507         15.4535         1.96619 
         2.4912         15.4141         1.95415 
