#  k  (h/Mpc)          P(k)  (Mpc/h)^3     P_linear(k) (Mpc/h)^3
     0.00783031         5486.03         5549.04 
       0.013688         6697.08         6672.73 
       0.019231         6650.03         6639.29 
      0.0249154         5982.56         6049.45 
      0.0312784         5140.88         5159.88 
      0.0375637         4342.21         4329.13 
      0.0433917          3695.3         3718.55 
      0.0492413         3277.86         3277.46 
      0.0555754         2916.71         2955.06 
      0.0619321         2748.07         2728.25 
       0.067871          2519.6         2546.25 
      0.0738098         2329.97         2355.39 
      0.0800417         2095.56         2131.11 
      0.0862327         1878.67         1893.19 
      0.0921407         1676.29         1672.99 
      0.0982031         1472.52         1475.09 
       0.104506         1339.43         1313.03 
       0.110769         1221.98         1197.72 
       0.116806         1136.49         1121.77 
       0.122832         1086.88         1067.45 
       0.129052         1022.71         1019.35 
       0.135211         972.601         968.058 
       0.141259         923.412         908.555 
       0.147318         861.891         840.616 
       0.153489          785.07          768.26 
       0.159709         725.303         699.343 
       0.165845         678.537          641.06 
       0.171974         628.148         595.195 
       0.178125         595.817         561.095 
       0.184229         571.242         536.211 
        0.19034         537.829         516.193 
       0.196428         527.271         497.166 
       0.202534         510.874         476.175 
       0.208729         483.264         451.817 
       0.214876         454.517         425.259 
       0.220989         434.819         398.277 
       0.227147         407.137         372.613 
        0.23329          386.56         350.146 
       0.239377         373.429         331.708 
       0.245482         349.121         316.848 
       0.251667         343.852         304.603 
       0.257832         332.527         293.978 
       0.263955         320.939         283.798 
       0.270079         309.026         273.169 
        0.27624         302.853         261.739 
       0.282372         290.293         249.803 
        0.28843         278.577         237.978 
       0.294538         265.683         226.604 
       0.300721         260.832         216.142 
        0.30691         248.173         206.958 
       0.313033         241.673         199.101 
       0.319153         231.525         192.222 
       0.325316         226.441         185.911 
        0.33145         218.647         179.892 
       0.337538         214.993         173.926 
       0.343633         207.546         167.852 
       0.349808         200.905         161.637 
       0.355968         196.695           155.5 
       0.362074         190.823         149.657 
       0.368217         185.309         144.151 
       0.374374         179.353         139.091 
       0.380519          175.67         134.492 
       0.386598         170.998         130.317 
       0.392688         168.208         126.417 
        0.39888         163.741         122.621 
       0.405048         159.823         118.932 
       0.411186         156.182          115.31 
       0.417313         152.369         111.735 
       0.423458         149.015         108.227 
       0.429607         145.294         104.837 
       0.435692         140.558         101.635 
       0.441815          139.37         98.5949 
       0.447964         136.868         95.7304 
       0.454126         130.845          93.025 
       0.460267         129.327         90.4683 
       0.466387         127.143         88.0286 
        0.47254         124.618         85.6529 
       0.478662         123.206         83.3472 
       0.484765          119.53          81.106 
       0.490885          117.45         78.9187 
       0.497035         115.937         76.7876 
       0.503198         112.693         74.7307 
       0.509342         110.499         72.7676 
       0.515458         108.839         70.9013 
       0.521598         107.235         69.1079 
       0.527764         105.562         67.3804 
       0.533884         103.843         65.7304 
           0.54         101.823         64.1374 
       0.546137         100.853         62.5856 
       0.552299         99.2239         61.0698 
       0.558452         96.8916         59.5995 
       0.564573         95.1588         58.1814 
       0.570708         93.8734         56.8064 
       0.576825         92.4925         55.4817 
       0.582926         90.6221         54.2058 
       0.589034         89.0112         52.9725 
       0.595184         87.9113          51.774 
       0.601379         86.7816         50.6077 
       0.607522         84.6782         49.4874 
       0.613639         84.4382         48.4046 
       0.619772         82.5026          47.349 
       0.625918         81.6887         46.3207 
       0.632068         80.6781         45.3214 
       0.638161         79.6359         44.3603 
         0.6443          78.516          43.421 
       0.650464         77.4862         42.5063 
       0.656582         76.4747         41.6254 
       0.662703         75.0088         40.7699 
       0.668861         74.1394         39.9342 
       0.675024         73.2595         39.1217 
       0.681124         72.2466         38.3403 
       0.687237         70.9566         37.5788 
       0.693381         70.2796         36.8344 
       0.699536         69.2447         36.1087 
       0.705665         69.5268         35.4055 
       0.711789         67.6162         34.7214 
       0.717957         67.0985         34.0507 
        0.72409         66.1745         33.4015 
       0.730186         65.0772         32.7734 
       0.736317          64.884         32.1583 
       0.742472         63.9993          31.557 
       0.748622         63.3625          30.972 
        0.75476         62.6507         30.4033 
       0.760888         61.7074         29.8498 
       0.767043         61.0864         29.3081 
       0.773185         60.3272         28.7808 
       0.779291          59.958         28.2696 
       0.785407         59.3796           27.77 
       0.791564         58.5786         27.2794 
       0.797719         57.6466         26.8009 
       0.803834          57.453          26.337 
       0.809972         56.4698         25.8824 
       0.816124         55.9224         25.4377 
       0.822261         55.4914         25.0048 
       0.828378         55.0972         24.5832 
       0.834502         54.4404         24.1712 
       0.840667          53.942         23.7659 
       0.846816          53.197         23.3712 
       0.852925          52.755         22.9879 
       0.859047          52.058         22.6125 
       0.865192         51.7412         22.2443 
       0.871341         51.5062         21.8841 
       0.877463         50.4915         21.5335 
       0.883569         50.1588         21.1915 
       0.889708         49.8744         20.8551 
       0.895864         49.3972         20.5253 
       0.902008         48.9393         20.2033 
       0.908149          48.556         19.8884 
       0.914301         48.2075         19.5798 
       0.920448         47.6642          19.278 
       0.926574         47.2295         18.9837 
       0.932687         46.8916         18.6961 
       0.938823         46.1693         18.4135 
       0.944975           46.04         18.1361 
       0.951105         45.5783         17.8654 
       0.957225         45.0107         17.6008 
       0.963368         44.9815         17.3406 
       0.969511         44.5815         17.0857 
       0.975621         44.2056         16.8373 
       0.981748         43.6753         16.5933 
       0.987916         43.4298         16.3525 
        0.99406         43.1321         16.1175 
        1.00019         42.6086         15.8876 
        1.00632         42.3973         15.6623 
        1.01246         42.0877         15.4412 
        1.01859          41.506         15.2247 
        1.02471         41.5537         15.0126 
        1.03085         41.1244         14.8038 
        1.03698          40.661         14.5995 
        1.04314         40.3237         14.3982 
        1.04929          40.094         14.2011 
        1.05541         39.6633         14.0086 
        1.06154         39.6065         13.8192 
        1.06769         39.2332         13.6329 
        1.07382         38.9709         13.4508 
        1.07993         38.8045         13.2724 
        1.08607         38.3415         13.0965 
        1.09222         38.2039         12.9236 
        1.09836         37.8804          12.754 
        1.10449         37.5902         12.5877 
        1.11063         37.1492         12.4242 
        1.11677         36.9758         12.2637 
         1.1229         36.8327         12.1062 
        1.12903         36.3134         11.9514 
        1.13518         36.3159         11.7992 
        1.14131         36.1444         11.6497 
        1.14745         35.6921         11.5029 
        1.15359         35.6482         11.3586 
        1.15973         35.2132         11.2168 
        1.16584         34.9637          11.078 
        1.17197          34.895         10.9413 
        1.17811         34.5645         10.8065 
        1.18424         34.2439         10.6744 
        1.19038         34.1969         10.5442 
        1.19652         34.0111         10.4161 
        1.20267         33.7542         10.2902 
        1.20881         33.4768         10.1664 
        1.21495         33.2519         10.0449 
        1.22108         33.0608         9.92531 
         1.2272         32.6995         9.80799 
        1.23334         32.6165         9.69231 
        1.23949         32.4879         9.57821 
        1.24562         32.2407         9.46628 
        1.25174         32.1043         9.35631 
        1.25789         31.8538         9.24775 
        1.26402         31.6529         9.14112 
        1.27014         31.3534         9.03643 
        1.27628           31.24         8.93307 
        1.28244         31.0493         8.83113 
        1.28858         30.9332         8.73092 
        1.29471         30.7664         8.63249 
        1.30084         30.5771         8.53567 
        1.30697         30.3449          8.4402 
        1.31312         30.0756         8.34605 
        1.31925         29.9941         8.25363 
        1.32537         29.8551         8.16271 
        1.33151         29.6308         8.07283 
        1.33765         29.5782         7.98436 
        1.34378         29.3812         7.89739 
        1.34992         29.0352         7.81166 
        1.35606         28.9265         7.72702 
         1.3622         28.7718         7.64379 
        1.36833         28.6037         7.56197 
        1.37445         28.6038          7.4814 
        1.38059         28.3782         7.40175 
        1.38675         28.0923         7.32308 
        1.39288         28.0633         7.24585 
        1.39901         27.8097         7.16978 
        1.40515         27.7127         7.09463 
         1.4113         27.5893         7.02058 
        1.41742         27.3129         6.94787 
        1.42355         27.2826         6.87606 
         1.4297         27.0974         6.80505 
        1.43585         27.0496         6.73506 
        1.44198         26.7926         6.66633 
        1.44809         26.6711         6.59869 
        1.45423         26.5713         6.53174 
        1.46036         26.4913         6.46584 
        1.46649         26.2805         6.40083 
        1.47263         26.1379         6.33666 
        1.47877           26.05          6.2734 
        1.48491         25.9188          6.2109 
        1.49104         25.8073         6.14939 
        1.49718         25.5634         6.08867 
        1.50333          25.536         6.02867 
        1.50947         25.4123          5.9696 
         1.5156         25.2332         5.91141 
        1.52172         25.0682           5.854 
        1.52787         25.0745         5.79723 
          1.534         24.8517         5.74129 
        1.54013         24.6738         5.68615 
        1.54627         24.6305         5.63163 
        1.55241         24.4677         5.57782 
        1.55855         24.3377         5.52478 
        1.56467         24.2173         5.47258 
         1.5708          24.169         5.42091 
        1.57695         23.9165         5.36983 
        1.58308         23.9652         5.31952 
        1.58922         23.7905         5.26983 
        1.59535         23.6411         5.22078 
         1.6015         23.5338         5.17229 
        1.60764         23.4872         5.12444 
        1.61376          23.292         5.07732 
        1.61989         23.1353         5.03076 
        1.62604         23.1339         4.98468 
        1.63218         22.9694          4.9392 
        1.63831         22.9123          4.8944 
        1.64444         22.7583         4.85013 
        1.65059         22.6303          4.8063 
        1.65673         22.5314         4.76307 
        1.66285         22.4433         4.72049 
        1.66898         22.3546         4.67841 
        1.67512         22.2864         4.63677 
        1.68127         22.1156         4.59559 
         1.6874         22.0263         4.55501 
        1.69353         21.9591         4.51494 
        1.69967         21.7983         4.47525 
        1.70581         21.7268         4.43607 
        1.71193         21.6374         4.39749 
        1.71806         21.5192          4.3593 
        1.72421         21.4155         4.32148 
        1.73035         21.3257         4.28416 
        1.73649         21.2564         4.24728 
        1.74262         21.1643         4.21087 
        1.74876         21.0938         4.17485 
        1.75489         20.9623         4.13934 
        1.76101         20.8798         4.10425 
        1.76715         20.7978         4.06951 
        1.77329         20.7283         4.03514 
        1.77943         20.5911         4.00115 
        1.78557         20.5313          3.9676 
        1.79171         20.4524         3.93443 
        1.79785         20.3138         3.90163 
        1.80399         20.2272         3.86921 
        1.81012         20.2083          3.8372 
        1.81625         20.0898         3.80557 
        1.82239         20.0713         3.77425 
        1.82853         19.8808          3.7433 
        1.83466         19.7752         3.71272 
        1.84078          19.667         3.68251 
        1.84692         19.6691          3.6526 
        1.85306         19.5499         3.62297 
         1.8592         19.4602         3.59372 
        1.86533         19.3875         3.56481 
        1.87147         19.2985         3.53619 
        1.87761         19.2758         3.50786 
        1.88375         19.1711         3.47988 
        1.88988         19.1014         3.45224 
        1.89601         18.9655         3.42488 
        1.90215         18.9143         3.39779 
        1.90829         18.8686         3.37101 
        1.91442         18.7662         3.34451 
        1.92056         18.6941         3.31833 
         1.9267         18.6075          3.2924 
        1.93284         18.5111         3.26672 
        1.93897         18.4581         3.24137 
        1.94509         18.3828         3.21635 
        1.95123         18.2772         3.19152 
        1.95737         18.2331         3.16694 
        1.96349         18.1499         3.14268 
        1.96964         18.0633         3.11861 
        1.97578         18.0216         3.09477 
        1.98192         17.8981         3.07123 
        1.98805         17.8727         3.04794 
        1.99419          17.776         3.02488 
        2.00033          17.671         3.00205 
        2.00647         17.6199         2.97947 
         2.0126         17.5397         2.95715 
        2.01874         17.4678         2.93503 
        2.02488         17.4421         2.91311 
        2.03101         17.3711         2.89146 
        2.03714         17.2962         2.87005 
        2.04328         17.2001         2.84883 
        2.04941         17.1218         2.82784 
        2.05554         17.1067         2.80708 
        2.06167         17.0279          2.7865 
        2.06781         16.9681         2.76613 
        2.07396         16.9019         2.74592 
        2.08009         16.8366         2.72596 
        2.08622         16.7357         2.70621 
        2.09237         16.6822         2.68662 
        2.09851         16.6258         2.66722 
        2.10464         16.5626         2.64805 
        2.11077         16.4539         2.62908 
        2.11691         16.4395         2.61026 
        2.12305         16.3566         2.59163 
        2.12918         16.2921         2.57322 
        2.13531         16.2415         2.55498 
        2.14145         16.1546         2.53688 
         2.1476         16.1097         2.51893 
        2.15372         16.0552         2.50125 
        2.15985         15.9527         2.48372 
        2.16599         15.9247         2.46631 
        2.17213         15.8676         2.44908 
        2.17827         15.8048         2.43202 
         2.1844         15.7296         2.41514 
        2.19054         15.6677         2.39841 
        2.19666         15.6441         2.38186 
         2.2028          15.595         2.36546 
        2.20893         15.4919          2.3492 
        2.21508         15.4317         2.33307 
        2.22122         15.3566          2.3171 
        2.22736         15.3252          2.3013 
        2.23349         15.2488         2.28566 
        2.23962         15.1871         2.27015 
        2.24577         15.1177         2.25477 
         2.2519         15.1126         2.23956 
        2.25802         15.0578         2.22451 
        2.26417         15.0048         2.20955 
        2.27031         14.9189         2.19472 
        2.27644         14.8795         2.18007 
        2.28257         14.8124         2.16555 
        2.28872         14.7498         2.15114 
        2.29486         14.7031         2.13686 
        2.30099         14.6462         2.12274 
        2.30712         14.6284         2.10874 
        2.31326          14.551         2.09485 
         2.3194         14.5051         2.08108 
        2.32553         14.4359         2.06747 
        2.33166         14.3539         2.05398 
         2.3378         14.3173         2.04059 
        2.34394         14.2763         2.02732 
        2.35007         14.2026         2.01418 
        2.35619         14.1308         2.00118 
        2.36233         14.1129         1.98826 
        2.36848         14.0753         1.97543 
        2.37462         14.0496         1.96273 
        2.38075          13.962         1.95016 
        2.38689         13.9352         1.93769 
        2.39303         13.8619         1.92534 
        2.39916         13.8224          1.9131 
        2.40529         13.7646         1.90097 
        2.41143         13.7187         1.88893 
        2.41757         13.6781           1.877 
         2.4237         13.6176         1.86518 
        2.42983         13.5694         1.85348 
        2.43598         13.5256         1.84184 
        2.44211         13.4692         1.83032 
        2.44823         13.4123         1.81892 
        2.45437         13.3919         1.80759 
        2.46052         13.3378         1.79635 
        2.46665         13.2784         1.78522 
        2.47279         13.2135         1.77419 
        2.47892         13.1985         1.76324 
        2.48507         13.1611         1.75238 
         2.4912         13.1053         1.74163 
