# k  (h/Mpc)    P(k)  (Mpc/h)^3    P_linear(k)  (Mpc/h)^3
     0.00783031         2698.26         2732.25 
       0.013688         3453.59         3452.77 
       0.019231         3564.63         3564.65 
      0.0249154         3335.06         3365.58 
      0.0312784         2980.98         2990.35 
      0.0375637         2619.35         2614.89 
      0.0433917         2315.47         2328.47 
      0.0492413         2110.57         2113.12 
      0.0555754         1922.87         1943.28 
      0.0619321         1813.99         1806.85 
       0.067871         1669.44         1683.74 
      0.0738098         1536.83         1551.22 
      0.0800417         1382.57         1402.05 
      0.0862327         1244.63         1254.24 
      0.0921407         1123.95         1126.22 
      0.0982031         1011.38         1017.31 
       0.104506         938.527         931.103 
       0.110769         874.265         868.852 
       0.116806         821.774         823.173 
       0.122832         786.235         783.092 
       0.129052          736.42         740.496 
       0.135211         690.756         693.758 
       0.141259         647.851          644.19 
       0.147318         602.251         594.257 
       0.153489         552.439         547.257 
       0.159709         515.541         506.988 
       0.165845         490.052         475.317 
       0.171974         460.622         450.746 
       0.178125         441.179         430.904 
       0.184229         424.819         413.314 
        0.19034         399.911         395.592 
       0.196428         387.008         376.661 
       0.202534         371.252         356.411 
       0.208729         348.999         335.508 
       0.214876         327.348         315.701 
       0.220989         314.895         298.005 
       0.227147         295.922         282.745 
        0.23329         283.774          270.01 
       0.239377         275.348         259.285 
       0.245482         260.506         249.632 
       0.251667         255.406         240.229 
       0.257832         246.102         230.734 
       0.263955         236.348         221.033 
       0.270079         227.107         211.232 
        0.27624         220.987         201.614 
       0.282372         211.725         192.636 
        0.28843         203.061         184.582 
       0.294538          195.07         177.337 
       0.300721         191.356         170.805 
        0.30691         183.028         164.846 
       0.313033          177.91         159.291 
       0.319153         170.038         153.879 
       0.325316         166.868         148.477 
        0.33145          160.77         143.137 
       0.337538         157.257         137.949 
       0.343633         151.768         132.957 
       0.349808         147.174         128.196 
       0.355968         143.497         123.786 
       0.362074         139.151         119.742 
       0.368217          135.37          115.96 
       0.374374          131.46          112.38 
       0.380519         128.348         108.957 
       0.386598         124.946         105.668 
       0.392688         122.583         102.448 
        0.39888         119.184         99.2578 
       0.405048         116.445         96.1811 
       0.411186          113.84         93.2451 
       0.417313         110.475          90.459 
       0.423458         107.952          87.811 
       0.429607         105.194         85.3019 
       0.435692         101.855         82.9417 
       0.441815         100.788         80.6658 
       0.447964         99.1585         78.4615 
       0.454126         95.0065         76.3238 
       0.460267         93.6503         74.2565 
       0.466387         91.4978         72.2591 
        0.47254         90.0659         70.3196 
       0.478662         88.6558         68.4633 
       0.484765         86.2554         66.6862 
       0.490885         84.5228         64.9766 
       0.497035         83.4402         63.3289 
       0.503198         81.2462         61.7421 
       0.509342         79.3207         60.2163 
       0.515458         78.0241         58.7467 
       0.521598          76.946         57.3178 
       0.527764         75.5463         55.9279 
       0.533884         74.2561         54.5914 
           0.54         72.8533         53.2985 
       0.546137         71.9383          52.044 
       0.552299         70.8924         50.8276 
       0.558452         68.8844         49.6557 
       0.564573           67.76         48.5289 
       0.570708         66.9598         47.4359 
       0.576825         65.5789         46.3803 
       0.582926         64.3755         45.3595 
       0.589034         62.8847         44.3681 
       0.595184         62.1766         43.3996 
       0.601379         61.3356          42.453 
       0.607522         59.9441         41.5422 
       0.613639         59.7067         40.6622 
       0.619772         58.2029         39.8062 
       0.625918         57.9076         38.9742 
       0.632068         57.0407         38.1666 
       0.638161         56.0878         37.3898 
         0.6443         55.1365         36.6295 
       0.650464         54.3025         35.8876 
       0.656582         53.9076         35.1716 
       0.662703         52.8404         34.4748 
       0.668861         52.1268         33.7931 
       0.675024         51.3553         33.1295 
       0.681124         50.5084         32.4908 
       0.687237         49.6897          31.868 
       0.693381          49.326         31.2589 
       0.699536         48.2817         30.6651 
       0.705665          48.394         30.0895 
       0.711789         47.2056         29.5294 
       0.717957          46.735         28.9799 
        0.72409         46.0865         28.4475 
       0.730186         45.4165         27.9319 
       0.736317         45.1133         27.4264 
       0.742472         44.3392         26.9317 
       0.748622         44.0014         26.4498 
        0.75476         43.3642          25.981 
       0.760888         42.7536         25.5243 
       0.767043         42.3192          25.077 
       0.773185         41.6808         24.6415 
       0.779291         41.4953          24.219 
       0.785407         41.0514         23.8059 
       0.791564         40.3415         23.3999 
       0.797719         39.6163         23.0037 
       0.803834         39.5715         22.6193 
       0.809972         39.1109         22.2424 
       0.816124         38.3137         21.8733 
       0.822261         38.1371         21.5138 
       0.828378         37.7971         21.1635 
       0.834502          37.365         20.8208 
       0.840667         36.9957         20.4835 
       0.846816          36.436         20.1548 
       0.852925         36.1404         19.8354 
       0.859047         35.7036         19.5224 
       0.865192         35.4353         19.2151 
       0.871341         35.2378         18.9144 
       0.877463         34.5557         18.6215 
       0.883569         34.2523         18.3357 
       0.889708         33.9324         18.0544 
       0.895864         33.6652         17.7784 
       0.902008         33.4014         17.5089 
       0.908149         33.0685         17.2451 
       0.914301          32.936         16.9864 
       0.920448         32.2913         16.7333 
       0.926574          32.127         16.4863 
       0.932687         31.7941         16.2449 
       0.938823         31.3908         16.0075 
       0.944975         31.1771         15.7743 
       0.951105         30.9337         15.5467 
       0.957225         30.5733          15.324 
       0.963368         30.4032          15.105 
       0.969511         30.1608         14.8903 
       0.975621         29.9334          14.681 
       0.981748         29.5292         14.4752 
       0.987916         29.3862          14.272 
        0.99406         29.0802         14.0736 
        1.00019         28.7294         13.8794 
        1.00632         28.6305         13.6891 
        1.01246         28.3908         13.5021 
        1.01859         28.0135         13.3189 
        1.02471         27.9687         13.1394 
        1.03085         27.7032         12.9626 
        1.03698         27.2877         12.7894 
        1.04314         27.1253         12.6187 
        1.04929         26.8839         12.4516 
        1.05541         26.6199         12.2881 
        1.06154          26.495         12.1273 
        1.06769         26.3276         11.9691 
        1.07382         26.0595         11.8143 
        1.07993         25.9583         11.6625 
        1.08607         25.6265         11.5129 
        1.09222         25.5044         11.3657 
        1.09836         25.1988         11.2214 
        1.10449         25.1036         11.0797 
        1.11063         24.8114         10.9403 
        1.11677         24.7345         10.8034 
         1.1229         24.6185         10.6691 
        1.12903         24.2988          10.537 
        1.13518         24.0788          10.407 
        1.14131         24.0219         10.2793 
        1.14745         23.8392         10.1539 
        1.15359         23.7031         10.0305 
        1.15973          23.468         9.90919 
        1.16584          23.201         9.79043 
        1.17197         23.2147         9.67345 
        1.17811         22.9375         9.55805 
        1.18424         22.7473         9.44488 
        1.19038         22.6867         9.33324 
        1.19652         22.5094         9.22346 
        1.20267          22.332         9.11546 
        1.20881          22.236         9.00923 
        1.21495         22.0732         8.90487 
        1.22108         21.8846          8.8022 
         1.2272         21.6839          8.7014 
        1.23334         21.5691         8.60196 
        1.23949          21.388         8.50386 
        1.24562         21.3462         8.40757 
        1.25174         21.2108         8.31292 
        1.25789         21.0656         8.21945 
        1.26402         20.9695          8.1276 
        1.27014         20.7682         8.03739 
        1.27628         20.5576         7.94828 
        1.28244         20.5164         7.86036 
        1.28858         20.4433          7.7739 
        1.29471         20.2443         7.68894 
        1.30084         20.0928         7.60534 
        1.30697         19.9891         7.52287 
        1.31312         19.8059         7.44151 
        1.31925         19.6934         7.36162 
        1.32537         19.6453         7.28299 
        1.33151         19.4667         7.20524 
        1.33765          19.379         7.12868 
        1.34378         19.2863         7.05339 
        1.34992         19.0645         6.97914 
        1.35606         19.0392         6.90581 
         1.3622         18.9295         6.83367 
        1.36833         18.7821         6.76274 
        1.37445         18.7199         6.69287 
        1.38059         18.6107         6.62377 
        1.38675         18.4214         6.55549 
        1.39288         18.3675         6.48846 
        1.39901         18.2154          6.4224 
        1.40515         18.1514         6.35711 
         1.4113         18.0336         6.29277 
        1.41742         17.9104         6.22957 
        1.42355         17.8358         6.16713 
         1.4297         17.7364         6.10536 
        1.43585         17.6898         6.04446 
        1.44198         17.5167         5.98464 
        1.44809         17.4539         5.92574 
        1.45423         17.3488         5.86743 
        1.46036         17.2804         5.81001 
        1.46649         17.1901         5.75334 
        1.47263         17.0455         5.69739 
        1.47877         16.9733         5.64221 
        1.48491         16.8868         5.58768 
        1.49104         16.8272         5.53399 
        1.49718         16.7014         5.48097 
        1.50333         16.6314         5.42857 
        1.50947          16.557         5.37696 
         1.5156         16.4234         5.32611 
        1.52172          16.339         5.27592 
        1.52787         16.2622         5.22628 
          1.534         16.1719         5.17734 
        1.54013         16.0662         5.12908 
        1.54627         15.9871         5.08136 
        1.55241         15.9149         5.03423 
        1.55855         15.8495         4.98778 
        1.56467         15.7567         4.94204 
         1.5708          15.726         4.89676 
        1.57695         15.5797         4.85197 
        1.58308         15.5369         4.80785 
        1.58922         15.4588         4.76425 
        1.59535         15.3825         4.72121 
         1.6015         15.2773         4.67865 
        1.60764         15.2157         4.63663 
        1.61376         15.1826         4.59526 
        1.61989         15.0382         4.55435 
        1.62604         15.0297         4.51386 
        1.63218         14.9293         4.47388 
        1.63831         14.8801         4.43449 
        1.64444         14.7662         4.39555 
        1.65059         14.7004           4.357 
        1.65673         14.6645         4.31895 
        1.66285         14.5301         4.28147 
        1.66898         14.5101         4.24442 
        1.67512         14.4408         4.20774 
        1.68127         14.3482         4.17147 
         1.6874         14.2922          4.1357 
        1.69353         14.2342         4.10038 
        1.69967         14.1472         4.06539 
        1.70581         14.0718         4.03082 
        1.71193         14.0085         3.99679 
        1.71806         13.9844         3.96308 
        1.72421         13.8757          3.9297 
        1.73035         13.8496         3.89674 
        1.73649         13.7812         3.86417 
        1.74262          13.726           3.832 
        1.74876         13.6606         3.80018 
        1.75489         13.6033         3.76879 
        1.76101         13.5028         3.73776 
        1.76715         13.5083         3.70704 
        1.77329         13.4084         3.67663 
        1.77943         13.3343         3.64655 
        1.78557         13.2981         3.61686 
        1.79171         13.2581         3.58749 
        1.79785         13.1644         3.55844 
        1.80399         13.1163         3.52972 
        1.81012         13.0623         3.50136 
        1.81625         12.9889         3.47333 
        1.82239         12.9478         3.44556 
        1.82853         12.8501         3.41811 
        1.83466         12.8221         3.39099 
        1.84078         12.7301         3.36419 
        1.84692         12.7263         3.33764 
        1.85306         12.6582         3.31135 
         1.8592         12.5993         3.28538 
        1.86533         12.5549          3.2597 
        1.87147         12.4999         3.23428 
        1.87761         12.4544         3.20911 
        1.88375         12.3778         3.18424 
        1.88988         12.3593         3.15967 
        1.89601         12.2974         3.13534 
        1.90215          12.229         3.11125 
        1.90829         12.1862         3.08743 
        1.91442         12.1342         3.06385 
        1.92056         12.0985         3.04055 
         1.9267         12.0408         3.01746 
        1.93284           11.98          2.9946 
        1.93897         11.9134         2.97202 
        1.94509         11.8837         2.94973 
        1.95123          11.837         2.92761 
        1.95737         11.7842          2.9057 
        1.96349         11.7332         2.88407 
        1.96964         11.6863          2.8626 
        1.97578         11.6397         2.84134 
        1.98192         11.5791         2.82034 
        1.98805         11.5503         2.79955 
        1.99419         11.4981         2.77897 
        2.00033         11.4677         2.75859 
        2.00647         11.4202         2.73842 
         2.0126          11.343         2.71849 
        2.01874         11.3124         2.69872 
        2.02488         11.2526         2.67914 
        2.03101         11.2302         2.65979 
        2.03714         11.1802         2.64065 
        2.04328         11.1376         2.62167 
        2.04941         11.0884          2.6029 
        2.05554         11.0538         2.58433 
        2.06167          10.997         2.56591 
        2.06781         10.9777         2.54768 
        2.07396         10.9335         2.52959 
        2.08009         10.8765         2.51171 
        2.08622         10.8188         2.49403 
        2.09237         10.8112         2.47648 
        2.09851         10.7798          2.4591 
        2.10464         10.7208         2.44191 
        2.11077         10.6646         2.42491 
        2.11691         10.6188         2.40804 
        2.12305         10.5964         2.39133 
        2.12918         10.5681         2.37481 
        2.13531         10.5138         2.35845 
        2.14145         10.4818         2.34221 
         2.1476         10.4276         2.32611 
        2.15372         10.3978         2.31023 
        2.15985         10.3762         2.29449 
        2.16599         10.3222         2.27885 
        2.17213         10.3004         2.26338 
        2.17827         10.2582         2.24805 
         2.1844         10.2136         2.23288 
        2.19054         10.1523         2.21785 
        2.19666         10.1364         2.20297 
         2.2028         10.0917         2.18822 
        2.20893         10.0747          2.1736 
        2.21508         10.0185         2.15909 
        2.22122         9.97085         2.14472 
        2.22736         9.94946          2.1305 
        2.23349         9.90226         2.11642 
        2.23962         9.88775         2.10246 
        2.24577          9.8333         2.08861 
         2.2519         9.80631         2.07491 
        2.25802         9.76728         2.06135 
        2.26417         9.72831         2.04788 
        2.27031         9.69986         2.03451 
        2.27644         9.66651          2.0213 
        2.28257         9.63994         2.00822 
        2.28872         9.58529         1.99522 
        2.29486         9.56325         1.98234 
        2.30099         9.55098          1.9696 
        2.30712         9.51449         1.95697 
        2.31326         9.45299         1.94443 
         2.3194         9.41428         1.93201 
        2.32553         9.40753         1.91972 
        2.33166         9.36307         1.90753 
         2.3378         9.33666         1.89544 
        2.34394         9.29858         1.88345 
        2.35007         9.24999         1.87159 
        2.35619         9.22293         1.85983 
        2.36233         9.18825         1.84816 
        2.36848         9.17298         1.83656 
        2.37462         9.13389         1.82508 
        2.38075         9.09383         1.81371 
        2.38689         9.06813         1.80243 
        2.39303         9.03326         1.79125 
        2.39916         9.00892         1.78018 
        2.40529         8.98381          1.7692 
        2.41143         8.93975          1.7583 
        2.41757          8.9331          1.7475 
         2.4237         8.88853          1.7368 
        2.42983         8.86474          1.7262 
        2.43598         8.84305         1.71565 
        2.44211          8.8016         1.70521 
        2.44823         8.78441         1.69489 
        2.45437         8.74911         1.68462 
        2.46052         8.70207         1.67442 
        2.46665         8.68038         1.66433 
        2.47279         8.64923         1.65433 
        2.47892         8.61192          1.6444 
        2.48507         8.58754         1.63455 
         2.4912         8.56145         1.62479 
