# k  (h/Mpc)    Pcb(k)  (Mpc/h)^3    Pcb_linear(k)  (Mpc/h)^3
     0.00783031         4999.87         5058.12 
       0.013688         6419.52         6397.46 
       0.019231          6613.5         6607.17 
      0.0249154         6165.31         6239.48 
      0.0312784         5516.44         5544.59 
      0.0375637          4853.6         4848.83 
      0.0433917         4277.11         4317.95 
      0.0492413         3904.84         3918.75 
      0.0555754         3543.38          3603.9 
      0.0619321          3359.8         3350.95 
       0.067871         3077.42         3122.68 
      0.0738098         2833.09         2876.95 
      0.0800417         2543.63         2600.32 
      0.0862327         2295.08         2326.22 
      0.0921407         2079.29          2088.8 
      0.0982031          1869.6         1886.81 
       0.104506         1744.04         1726.93 
       0.110769         1623.81         1611.48 
       0.116806         1525.45         1526.76 
       0.122832         1459.62         1452.43 
       0.129052         1362.32         1373.43 
       0.135211         1280.18         1286.75 
       0.141259         1205.65         1194.81 
       0.147318         1123.55          1102.2 
       0.153489         1029.96         1015.03 
       0.159709         966.129          940.34 
       0.165845          922.27           881.6 
       0.171974         867.899         836.028 
       0.178125         830.603         799.226 
       0.184229         800.032         766.601 
        0.19034         750.112         733.732 
       0.196428         730.524         698.621 
       0.202534         702.529         661.061 
       0.208729         662.445         622.292 
       0.214876         623.259         585.555 
       0.220989         601.819         552.732 
       0.227147         567.419         524.429 
        0.23329         545.108          500.81 
       0.239377         531.734         480.917 
       0.245482         499.518         463.013 
       0.251667         492.677         445.572 
       0.257832         475.345          427.96 
       0.263955         457.598         409.967 
       0.270079         440.501          391.79 
        0.27624         431.844         373.951 
       0.282372          413.76         357.298 
        0.28843         399.644          342.36 
       0.294538         382.581         328.924 
       0.300721         378.332         316.807 
        0.30691         361.319         305.755 
       0.313033         352.806         295.451 
       0.319153         339.161         285.412 
       0.325316         330.938         275.393 
        0.33145         320.093         265.488 
       0.337538         315.163         255.865 
       0.343633         304.571         246.607 
       0.349808         295.141         237.777 
       0.355968         290.135         229.597 
       0.362074         282.489         222.097 
       0.368217         275.062         215.081 
       0.374374         266.331         208.442 
       0.380519         261.502         202.093 
       0.386598         254.935         195.992 
       0.392688         251.477         190.019 
        0.39888         244.818         184.102 
       0.405048         239.421         178.396 
       0.411186         234.199          172.95 
       0.417313         229.221         167.782 
       0.423458         224.587         162.871 
       0.429607         219.279         158.217 
       0.435692         212.745          153.84 
       0.441815         211.295         149.618 
       0.447964         207.731          145.53 
       0.454126         198.961         141.565 
       0.460267         196.809          137.73 
       0.466387         194.023         134.026 
        0.47254         190.194         130.428 
       0.478662         188.278         126.985 
       0.484765         183.199         123.689 
       0.490885         180.309         120.518 
       0.497035         177.988         117.462 
       0.503198          173.23         114.519 
       0.509342         170.552         111.689 
       0.515458         168.239         108.963 
       0.521598         166.074         106.313 
       0.527764         163.456         103.735 
       0.533884         160.778         101.256 
           0.54         158.242         98.8577 
       0.546137         157.002         96.5309 
       0.552299         154.468         94.2748 
       0.558452          151.36         92.1011 
       0.564573         148.675         90.0111 
       0.570708         146.764         87.9838 
       0.576825         144.711         86.0259 
       0.582926         142.311         84.1326 
       0.589034         139.864         82.2937 
       0.595184         138.445         80.4973 
       0.601379         137.046         78.7417 
       0.607522          133.74         77.0523 
       0.613639         133.558           75.42 
       0.619772         130.491         73.8323 
       0.625918         129.304         72.2892 
       0.632068         127.852         70.7913 
       0.638161         126.478         69.3504 
         0.6443         124.741         67.9401 
       0.650464         123.273         66.5642 
       0.656582         121.843         65.2361 
       0.662703         119.667         63.9437 
       0.668861         118.473         62.6793 
       0.675024           117.1         61.4485 
       0.681124         115.874         60.2637 
       0.687237         113.864         59.1085 
       0.693381         112.655          57.979 
       0.699536         111.383         56.8775 
       0.705665         111.873         55.8099 
       0.711789         108.851          54.771 
       0.717957         108.343         53.7517 
        0.72409         106.797         52.7643 
       0.730186         105.047          51.808 
       0.736317         104.863         50.8704 
       0.742472         103.664         49.9528 
       0.748622         102.826         49.0591 
        0.75476         101.701         48.1894 
       0.760888         100.347         47.3424 
       0.767043         99.4168         46.5128 
       0.773185         98.3288          45.705 
       0.779291         97.5557         44.9213 
       0.785407         96.7607          44.155 
       0.791564         95.5454          43.402 
       0.797719         94.2836         42.6671 
       0.803834         93.9455         41.9541 
       0.809972         92.3751         41.2551 
       0.816124         91.8147         40.5706 
       0.822261         91.1263         39.9037 
       0.828378         90.2898         39.2539 
       0.834502         89.4559         38.6183 
       0.840667          88.672         37.9927 
       0.846816         87.6712          37.383 
       0.852925         86.8684         36.7906 
       0.859047         85.7968           36.21 
       0.865192         85.5272         35.6402 
       0.871341         84.8868         35.0823 
       0.877463         83.5419         34.5391 
       0.883569         83.0692         34.0089 
       0.889708         82.6432         33.4873 
       0.895864         81.8819         32.9754 
       0.902008         81.2148         32.4754 
       0.908149         80.6426         31.9861 
       0.914301         79.8614         31.5063 
       0.920448         79.2147         31.0369 
       0.926574         78.6291         30.5788 
       0.932687         78.1458          30.131 
       0.938823         76.9802         29.6906 
       0.944975         76.7931         29.2582 
       0.951105         76.0474          28.836 
       0.957225         75.1148          28.423 
       0.963368         74.9614         28.0167 
       0.969511         74.4684         27.6185 
       0.975621         73.9504         27.2302 
       0.981748         73.1583         26.8485 
       0.987916         72.7387         26.4717 
        0.99406         72.3472         26.1037 
        1.00019         71.3974         25.7435 
        1.00632          71.175         25.3905 
        1.01246         70.4948         25.0436 
        1.01859         69.6669         24.7038 
        1.02471         69.9437         24.3708 
        1.03085         69.1036         24.0429 
        1.03698         68.4908         23.7217 
        1.04314         67.8148         23.4051 
        1.04929         67.5917         23.0951 
        1.05541         66.9177          22.792 
        1.06154         66.7838         22.4936 
        1.06769         66.1717         22.2002 
        1.07382         65.8462          21.913 
        1.07993          65.582         21.6316 
        1.08607         64.8893         21.3541 
        1.09222         64.6238         21.0811 
        1.09836         64.1328         20.8133 
        1.10449         63.6905         20.5505 
        1.11063         63.0381          20.292 
        1.11677         62.7297         20.0381 
         1.1229         62.4717          19.789 
        1.12903         61.6076          19.544 
        1.13518         61.7183         19.3029 
        1.14131         61.4316         19.0661 
        1.14745         60.6113         18.8334 
        1.15359         60.5017         18.6046 
        1.15973         59.8926         18.3795 
        1.16584         59.5202         18.1592 
        1.17197         59.2884         17.9423 
        1.17811         58.9155         17.7282 
        1.18424         58.3323         17.5183 
        1.19038         58.2387         17.3113 
        1.19652         57.9216         17.1076 
        1.20267         57.4846         16.9073 
        1.20881         57.1016         16.7103 
        1.21495         56.6856         16.5167 
        1.22108         56.3437         16.3263 
         1.2272         55.8269         16.1393 
        1.23334         55.6555         15.9549 
        1.23949         55.5019         15.7729 
        1.24562         55.1327         15.5943 
        1.25174         54.8444         15.4188 
        1.25789          54.517         15.2454 
        1.26402         54.0931          15.075 
        1.27014         53.6528         14.9077 
        1.27628         53.5102         14.7424 
        1.28244         53.0692         14.5794 
        1.28858         52.8899          14.419 
        1.29471         52.6963         14.2614 
        1.30084         52.3612         14.1064 
        1.30697         51.9207         13.9534 
        1.31312         51.5584         13.8025 
        1.31925         51.4759         13.6543 
        1.32537         51.1786         13.5085 
        1.33151         50.8026         13.3643 
        1.33765         50.7306         13.2222 
        1.34378         50.4214         13.0826 
        1.34992         49.7983         12.9449 
        1.35606         49.6062         12.8089 
         1.3622         49.3346         12.6751 
        1.36833         49.1532         12.5435 
        1.37445         49.0583         12.4139 
        1.38059         48.7795         12.2857 
        1.38675         48.3935         12.1591 
        1.39288         48.1905         12.0348 
        1.39901         47.8226         11.9122 
        1.40515         47.6208         11.7912 
         1.4113         47.5069         11.6718 
        1.41742         47.0222         11.5546 
        1.42355         46.9146         11.4388 
         1.4297         46.5907         11.3242 
        1.43585         46.5218         11.2113 
        1.44198         46.1731         11.1003 
        1.44809         45.9365          10.991 
        1.45423         45.8015         10.8829 
        1.46036         45.5497         10.7764 
        1.46649         45.2474         10.6713 
        1.47263         45.0487         10.5675 
        1.47877         44.8998         10.4652 
        1.48491         44.6454          10.364 
        1.49104         44.4079         10.2644 
        1.49718         44.0307         10.1661 
        1.50333         43.9398         10.0689 
        1.50947         43.6934         9.97317 
         1.5156         43.4432         9.87885 
        1.52172         43.1988         9.78575 
        1.52787         43.1961         9.69368 
          1.534         42.8253         9.60291 
        1.54013         42.5774          9.5134 
        1.54627         42.5136         9.42488 
        1.55241         42.2519         9.33748 
        1.55855         41.9909         9.25132 
        1.56467         41.7082         9.16649 
         1.5708         41.6607         9.08248 
        1.57695         41.3149         8.99941 
        1.58308         41.3411         8.91758 
        1.58922         41.1078         8.83672 
        1.59535         40.8069         8.75689 
         1.6015         40.6136         8.67794 
        1.60764          40.494         8.60001 
        1.61376         40.2889         8.52326 
        1.61989         39.9302         8.44739 
        1.62604         39.8912         8.37228 
        1.63218         39.6153         8.29814 
        1.63831         39.4854         8.22507 
        1.64444         39.3464         8.15286 
        1.65059         38.9969         8.08135 
        1.65673         38.8831         8.01078 
        1.66285         38.7391         7.94125 
        1.66898         38.4959         7.87254 
        1.67512         38.3702          7.8045 
        1.68127         38.0938         7.73722 
         1.6874         38.0221         7.67088 
        1.69353         37.8084         7.60537 
        1.69967         37.6564         7.54046 
        1.70581         37.5017         7.47635 
        1.71193         37.2696         7.41323 
        1.71806         37.1114         7.35071 
        1.72421         36.8818         7.28879 
        1.73035         36.7597         7.22766 
        1.73649          36.605         7.16725 
        1.74262         36.3853         7.10758 
        1.74876         36.3765         7.04856 
        1.75489         36.0798         6.99033 
        1.76101         35.9192         6.93278 
        1.76715         35.7599          6.8758 
        1.77329         35.6299          6.8194 
        1.77943         35.4866         6.76361 
        1.78557         35.2986         6.70853 
        1.79171         35.1321         6.65406 
        1.79785         34.9793         6.60018 
        1.80399         34.8259         6.54692 
        1.81012         34.7394         6.49432 
        1.81625         34.5189         6.44232 
        1.82239          34.428         6.39081 
        1.82853         34.1296          6.3399 
        1.83466         34.0131         6.28959 
        1.84078         33.7865         6.23989 
        1.84692          33.758         6.19064 
        1.85306         33.5548         6.14187 
         1.8592         33.4165         6.09371 
        1.86533         33.2136         6.04609 
        1.87147         33.1248         5.99892 
        1.87761          33.088         5.95225 
        1.88375         32.8467         5.90612 
        1.88988         32.7867         5.86054 
        1.89601         32.5469         5.81542 
        1.90215         32.4729         5.77074 
        1.90829         32.3582         5.72655 
        1.91442         32.1285         5.68282 
        1.92056         32.0662         5.63959 
         1.9267         31.8675         5.59677 
        1.93284         31.7042         5.55437 
        1.93897         31.6267          5.5125 
        1.94509         31.4797         5.47114 
        1.95123         31.2985         5.43011 
        1.95737         31.1903         5.38947 
        1.96349         31.0416         5.34936 
        1.96964         30.8604         5.30954 
        1.97578         30.8299          5.2701 
        1.98192         30.6116         5.23115 
        1.98805         30.5374          5.1926 
        1.99419         30.3594         5.15443 
        2.00033         30.1984         5.11662 
        2.00647         30.0947         5.07921 
         2.0126          29.926         5.04224 
        2.01874         29.8738         5.00558 
        2.02488         29.8398         4.96926 
        2.03101         29.6196         4.93337 
        2.03714          29.454         4.89786 
        2.04328         29.3274         4.86267 
        2.04941         29.2386         4.82785 
        2.05554         29.1315          4.7934 
        2.06167         28.9803         4.75925 
        2.06781         28.8647         4.72542 
        2.07396          28.736         4.69187 
        2.08009         28.6905         4.65871 
        2.08622          28.525         4.62591 
        2.09237         28.4275         4.59336 
        2.09851         28.2663         4.56113 
        2.10464         28.1973         4.52925 
        2.11077          27.982         4.49772 
        2.11691         27.9857         4.46642 
        2.12305         27.8086         4.43542 
        2.12918         27.7577         4.40479 
        2.13531         27.6258         4.37445 
        2.14145          27.521         4.34433 
         2.1476         27.3311         4.31445 
        2.15372          27.255         4.28501 
        2.15985         27.1282         4.25581 
        2.16599         27.0424         4.22681 
        2.17213          26.951          4.1981 
        2.17827         26.7538         4.16968 
         2.1844         26.6535         4.14154 
        2.19054         26.5807         4.11365 
        2.19666         26.4756         4.08606 
         2.2028         26.4021          4.0587 
        2.20893         26.2502         4.03158 
        2.21508         26.1634         4.00468 
        2.22122          25.994         3.97801 
        2.22736          25.959         3.95165 
        2.23349         25.8435         3.92553 
        2.23962         25.7208         3.89963 
        2.24577         25.5785         3.87395 
         2.2519         25.4986         3.84853 
        2.25802         25.4186         3.82338 
        2.26417         25.3094         3.79839 
        2.27031         25.2266          3.7736 
        2.27644         25.1423         3.74911 
        2.28257         25.0248         3.72483 
        2.28872          24.874         3.70072 
        2.29486         24.8044         3.67684 
        2.30099         24.7059         3.65321 
        2.30712         24.6716         3.62978 
        2.31326         24.5408         3.60652 
         2.3194         24.3978         3.58348 
        2.32553         24.3139         3.56068 
        2.33166         24.1908         3.53809 
         2.3378         24.0846         3.51566 
        2.34394          24.019         3.49342 
        2.35007         23.9083         3.47141 
        2.35619         23.7856         3.44961 
        2.36233          23.729         3.42795 
        2.36848         23.5925         3.40644 
        2.37462         23.5323         3.38515 
        2.38075         23.4388         3.36407 
        2.38689          23.378         3.34314 
        2.39303          23.227         3.32241 
        2.39916         23.1602         3.30187 
        2.40529         23.0431          3.2815 
        2.41143         22.9983         3.26129 
        2.41757         22.8853         3.24125 
         2.4237         22.7783         3.22141 
        2.42983         22.7139         3.20174 
        2.43598         22.6232         3.18218 
        2.44211         22.4946         3.16282 
        2.44823         22.4024         3.14367 
        2.45437         22.3299         3.12462 
        2.46052         22.2549         3.10571 
        2.46665         22.2104           3.087 
        2.47279         22.0881         3.06844 
        2.47892         21.9976         3.05003 
        2.48507         21.9051         3.03175 
         2.4912         21.8358         3.01365 
