# k  (h/Mpc)    Pcb(k)  (Mpc/h)^3    Pcb_linear(k)  (Mpc/h)^3
     0.00783031         679.097         684.277 
       0.013688          850.72         858.556 
       0.019231         879.691         882.974 
      0.0249154         829.946         830.108 
      0.0312784         730.361         730.972 
      0.0375637         628.287         629.298 
      0.0433917         550.673         549.548 
      0.0492413         488.498          488.74 
      0.0555754         443.807         442.285 
      0.0619321         406.895         409.211 
       0.067871         383.517         383.701 
      0.0738098         358.154         358.243 
      0.0800417         329.349          328.82 
      0.0862327         296.808         297.005 
      0.0921407         266.308         266.353 
      0.0982031         238.158         237.338 
       0.104506         211.754          212.07 
       0.110769         192.831         192.865 
       0.116806         180.525         179.513 
       0.122832         170.067         169.926 
       0.129052         162.797         162.156 
       0.135211         155.825         154.866 
       0.141259           147.3         146.942 
       0.147318         137.601         137.843 
       0.153489         127.993         127.697 
       0.159709         118.125         117.369 
       0.165845         107.849         107.949 
       0.171974         101.073         99.9366 
       0.178125         94.6339         93.5499 
       0.184229         89.3796         88.7252 
        0.19034         86.2048         85.0109 
       0.196428         82.9268         81.9042 
       0.202534         79.1972         78.8926 
       0.208729         76.4643         75.5935 
       0.214876         73.1322           71.95 
       0.220989         68.5763         68.0456 
       0.227147         65.3699         64.0542 
        0.23329         61.7259         60.2744 
       0.239377         58.5425         56.9341 
       0.245482          55.597         54.0905 
       0.251667         52.9296         51.7149 
       0.257832          51.415         49.7487 
       0.263955         49.3052         48.0424 
       0.270079         47.6666         46.4259 
        0.27624         45.7827         44.7759 
       0.282372         44.1207         43.0539 
        0.28843         42.7955         41.2807 
       0.294538         40.8909         39.4753 
       0.300721         38.8961         37.7026 
        0.30691         37.6174         36.0534 
       0.313033         36.0377         34.5849 
       0.319153          35.085         33.2904 
       0.325316         33.4953         32.1375 
        0.33145         32.4028         31.1014 
       0.337538         31.5102          30.135 
       0.343633         30.6707         29.1924 
       0.349808         29.6092         28.2364 
       0.355968         28.6284          27.277 
       0.362074         27.8732         26.3289 
       0.368217         26.8954         25.3968 
       0.374374         26.1943         24.5049 
       0.380519         25.1294          23.671 
       0.386598         24.3025         22.9093 
       0.392688         23.5637         22.2055 
        0.39888          23.008         21.5411 
       0.405048         22.4203         20.9178 
       0.411186         21.7857         20.3214 
       0.417313         21.1887         19.7408 
       0.423458         20.5118         19.1685 
       0.429607         20.1082          18.605 
       0.435692         19.6388         18.0609 
       0.441815         18.9443         17.5317 
       0.447964         18.3576         17.0228 
       0.454126         17.9878         16.5391 
       0.460267         17.6797         16.0837 
       0.466387         17.1582         15.6535 
        0.47254         16.8153         15.2416 
       0.478662         16.3454         14.8486 
       0.484765           15.97         14.4697 
       0.490885         15.5186         14.0999 
       0.497035         15.1353         13.7377 
       0.503198         14.8348         13.3848 
       0.509342         14.4156         13.0433 
       0.515458         14.1692         12.7146 
       0.521598         13.8467         12.3971 
       0.527764         13.6041         12.0914 
       0.533884         13.1951         11.8001 
           0.54          12.957         11.5203 
       0.546137         12.5914         11.2497 
       0.552299         12.3559         10.9872 
       0.558452         12.0885         10.7333 
       0.564573          11.889         10.4876 
       0.570708         11.6273         10.2482 
       0.576825         11.3971         10.0163 
       0.582926         11.1495         9.79199 
       0.589034         10.9463         9.57443 
       0.595184          10.782         9.36237 
       0.601379         10.5027         9.15574 
       0.607522         10.2999         8.95758 
       0.613639           10.07         8.76665 
       0.619772         9.92148         8.58117 
       0.625918         9.71936         8.40077 
       0.632068         9.57503         8.22533 
       0.638161          9.3866         8.05619 
         0.6443         9.20242         7.89041 
       0.650464         8.99591         7.72862 
       0.656582         8.90969         7.57254 
       0.662703         8.76119         7.42083 
       0.668861         8.53111         7.27254 
       0.675024         8.39233          7.1283 
       0.681124         8.36095         6.98954 
       0.687237         8.16395         6.85429 
       0.693381          7.9572         6.72208 
       0.699536         7.90075         6.59319 
       0.705665         7.75539         6.46828 
       0.711789            7.59         6.34674 
       0.717957         7.44744         6.22749 
        0.72409         7.35863         6.11195 
       0.730186         7.29051         6.00003 
       0.736317         7.12685         5.89032 
       0.742472         7.03808         5.78297 
       0.748622         6.93219         5.67844 
        0.75476         6.76384         5.57677 
       0.760888          6.7053          5.4778 
       0.767043         6.54728         5.38089 
       0.773185         6.47225         5.28657 
       0.779291         6.42924         5.19509 
       0.785407         6.30187         5.10566 
       0.791564          6.2152         5.01779 
       0.797719         6.10554         4.93205 
       0.803834         6.03313         4.84887 
       0.809972         5.93046         4.76732 
       0.816124         5.85491         4.68749 
       0.822261         5.77381         4.60972 
       0.828378         5.68416         4.53396 
       0.834502         5.61123         4.45987 
       0.840667         5.55082         4.38697 
       0.846816         5.44598         4.31593 
       0.852925         5.37622         4.24693 
       0.859047         5.30452         4.17931 
       0.865192         5.23304         4.11296 
       0.871341         5.16128         4.04802 
       0.877463         5.08507         3.98479 
       0.883569         5.02791         3.92308 
       0.889708         4.96334         3.86237 
       0.895864         4.89881          3.8028 
       0.902008         4.82232         3.74462 
       0.908149         4.76203         3.68771 
       0.914301         4.71305         3.63189 
       0.920448         4.65486         3.57729 
       0.926574         4.61998         3.52402 
       0.932687         4.54383         3.47195 
       0.938823         4.46726         3.42075 
       0.944975         4.43355         3.37048 
       0.951105         4.35252          3.3214 
       0.957225         4.32018          3.2734 
       0.963368         4.27439         3.22619 
       0.969511         4.22474         3.17992 
       0.975621         4.16523         3.13481 
       0.981748         4.09149         3.09047 
       0.987916         4.05672         3.04671 
        0.99406         4.02796         3.00398 
        1.00019         3.97817         2.96215 
        1.00632         3.93877         2.92117 
        1.01246         3.88156         2.88091 
        1.01859         3.83992         2.84149 
        1.02471         3.77916         2.80285 
        1.03085         3.75109         2.76481 
        1.03698         3.71285         2.72756 
        1.04314         3.67518         2.69085 
        1.04929         3.62989          2.6549 
        1.05541         3.58181         2.61976 
        1.06154         3.55549         2.58518 
        1.06769         3.53012         2.55117 
        1.07382         3.47352         2.51789 
        1.07993         3.43019         2.48529 
        1.08607         3.40762         2.45314 
        1.09222         3.35967         2.42152 
        1.09836          3.3479         2.39051 
        1.10449         3.28139         2.36007 
        1.11063         3.25743         2.33014 
        1.11677         3.23101         2.30074 
         1.1229         3.18798         2.27191 
        1.12903         3.16894         2.24354 
        1.13518         3.12339         2.21564 
        1.14131         3.09557         2.18824 
        1.14745         3.06077         2.16131 
        1.15359         3.03267         2.13484 
        1.15973         2.99967          2.1088 
        1.16584         2.97084         2.08331 
        1.17197         2.93819         2.05821 
        1.17811         2.90963         2.03345 
        1.18424         2.88051         2.00917 
        1.19038         2.85363         1.98523 
        1.19652         2.83255         1.96168 
        1.20267         2.80919         1.93852 
        1.20881         2.77683         1.91573 
        1.21495         2.75152         1.89336 
        1.22108         2.72837         1.87134 
         1.2272          2.6903         1.84974 
        1.23334         2.67953         1.82842 
        1.23949         2.65031         1.80739 
        1.24562         2.62793         1.78676 
        1.25174         2.60688         1.76647 
        1.25789         2.57299         1.74645 
        1.26402         2.54781         1.72677 
        1.27014         2.52476         1.70745 
        1.27628         2.50519         1.68837 
        1.28244          2.4855         1.66954 
        1.28858         2.46204         1.65103 
        1.29471           2.433         1.63284 
        1.30084         2.41596         1.61494 
        1.30697         2.40059         1.59729 
        1.31312         2.37817         1.57988 
        1.31925         2.35658         1.56278 
        1.32537         2.33949         1.54596 
        1.33151         2.31413         1.52933 
        1.33765         2.29705         1.51295 
        1.34378         2.27821         1.49684 
        1.34992         2.26102         1.48096 
        1.35606         2.24005         1.46528 
         1.3622         2.22414         1.44985 
        1.36833         2.19998         1.43469 
        1.37445         2.18099         1.41975 
        1.38059         2.16462         1.40498 
        1.38675         2.14675         1.39038 
        1.39288         2.13365         1.37605 
        1.39901         2.11154         1.36193 
        1.40515         2.09456         1.34798 
         1.4113         2.08345         1.33423 
        1.41742         2.05893         1.32072 
        1.42355         2.04104         1.30738 
         1.4297         2.03178         1.29418 
        1.43585         2.01305         1.28117 
        1.44198         1.99815         1.26839 
        1.44809         1.98373         1.25581 
        1.45423         1.96903         1.24335 
        1.46036         1.95374         1.23109 
        1.46649         1.93002         1.21898 
        1.47263         1.92442         1.20704 
        1.47877         1.91395         1.19525 
        1.48491         1.88905         1.18361 
        1.49104         1.87911         1.17215 
        1.49718         1.86339         1.16083 
        1.50333          1.8494         1.14965 
        1.50947         1.83824         1.13863 
         1.5156         1.82272         1.12778 
        1.52172         1.81078         1.11707 
        1.52787         1.79604         1.10648 
          1.534         1.78647         1.09604 
        1.54013         1.77008         1.08574 
        1.54627         1.75757         1.07556 
        1.55241         1.74127         1.06551 
        1.55855          1.7319          1.0556 
        1.56467          1.7193         1.04585 
         1.5708         1.70726         1.03619 
        1.57695         1.69189         1.02664 
        1.58308         1.67766         1.01724 
        1.58922         1.67288         1.00794 
        1.59535         1.65482        0.998768 
         1.6015         1.64266        0.989696 
        1.60764         1.63449        0.980741 
        1.61376         1.62003        0.971923 
        1.61989          1.6112        0.963206 
        1.62604         1.59496        0.954577 
        1.63218         1.59137         0.94606 
        1.63831         1.57822        0.937666 
        1.64444         1.56623        0.929372 
        1.65059         1.55882        0.921158 
        1.65673         1.54345        0.913053 
        1.66285         1.53434        0.905069 
        1.66898         1.52678        0.897178 
        1.67512         1.51081        0.889366 
        1.68127         1.50114        0.881641 
         1.6874          1.4973        0.874024 
        1.69353         1.48231        0.866503 
        1.69967         1.47417        0.859053 
        1.70581         1.46849        0.851694 
        1.71193         1.45147        0.844449 
        1.71806          1.4449        0.837274 
        1.72421         1.43765        0.830168 
        1.73035         1.42218        0.823154 
        1.73649         1.42133        0.816222 
        1.74262         1.40763        0.809375 
        1.74876         1.39822        0.802603 
        1.75489         1.39082        0.795923 
        1.76101         1.37847        0.789322 
        1.76715         1.37209        0.782786 
        1.77329         1.36395        0.776317 
        1.77943         1.35536        0.769918 
        1.78557         1.34947        0.763601 
        1.79171         1.34069        0.757354 
        1.79785         1.33127        0.751177 
        1.80399         1.32119        0.745069 
        1.81012         1.31373        0.739039 
        1.81625         1.30375        0.733077 
        1.82239         1.29786        0.727174 
        1.82853          1.2896        0.721338 
        1.83466         1.27996        0.715572 
        1.84078         1.27226        0.709875 
        1.84692         1.26618        0.704232 
        1.85306         1.26123        0.698643 
         1.8592         1.24965        0.693124 
        1.86533         1.24398        0.687668 
        1.87147         1.23308        0.682265 
        1.87761         1.22875        0.676917 
        1.88375         1.22081        0.671633 
        1.88988         1.21266        0.666412 
        1.89601         1.20581        0.661243 
        1.90215         1.19952        0.656125 
        1.90829          1.1929        0.651064 
        1.91442         1.18477        0.646057 
        1.92056          1.1807        0.641106 
         1.9267         1.17281        0.636203 
        1.93284         1.16376        0.631348 
        1.93897         1.15751        0.626553 
        1.94509         1.15362        0.621818 
        1.95123         1.14347        0.617121 
        1.95737         1.13876        0.612469 
        1.96349          1.1318        0.607877 
        1.96964         1.12759        0.603319 
        1.97578         1.11731        0.598806 
        1.98192         1.11168        0.594348 
        1.98805         1.10634        0.589936 
        1.99419         1.10065        0.585568 
        2.00033         1.09489        0.581242 
        2.00647         1.08952        0.576962 
         2.0126         1.08487        0.572732 
        2.01874         1.07731        0.568538 
        2.02488         1.06902        0.564382 
        2.03101         1.06431        0.560276 
        2.03714         1.06029        0.556215 
        2.04328         1.05275         0.55219 
        2.04941         1.04714        0.548207 
        2.05554         1.04186        0.544267 
        2.06167         1.03642        0.540361 
        2.06781         1.02839        0.536493 
        2.07396         1.02612        0.532657 
        2.08009         1.01956        0.528865 
        2.08622         1.01399        0.525115 
        2.09237         1.00931        0.521394 
        2.09851         1.00256        0.517708 
        2.10464        0.999533        0.514064 
        2.11077        0.991414         0.51046 
        2.11691        0.986858        0.506883 
        2.12305        0.984174         0.50334 
        2.12918        0.976357        0.499839 
        2.13531        0.971705        0.496371 
        2.14145        0.966492        0.492929 
         2.1476        0.962796        0.489515 
        2.15372        0.956981        0.486151 
        2.15985        0.951858        0.482815 
        2.16599        0.948526        0.479501 
        2.17213        0.942697        0.476221 
        2.17827        0.936422        0.472974 
         2.1844         0.93325        0.469759 
        2.19054        0.928453        0.466573 
        2.19666        0.924546        0.463422 
         2.2028        0.918815        0.460297 
        2.20893        0.914726        0.457199 
        2.21508        0.909867        0.454126 
        2.22122        0.906905        0.451081 
        2.22736        0.898689         0.44807 
        2.23349        0.895235        0.445087 
        2.23962          0.8923         0.44213 
        2.24577        0.887414        0.439197 
         2.2519        0.882911        0.436295 
        2.25802        0.880482        0.433424 
        2.26417        0.873718        0.430571 
        2.27031        0.870493        0.427741 
        2.27644        0.867655        0.424945 
        2.28257        0.860591        0.422174 
        2.28872        0.859337        0.419423 
        2.29486        0.853239        0.416697 
        2.30099        0.849866        0.414001 
        2.30712        0.846157        0.411327 
        2.31326        0.842335        0.408673 
         2.3194        0.838314        0.406043 
        2.32553        0.833135        0.403442 
        2.33166        0.831286        0.400864 
         2.3378        0.826252        0.398305 
        2.34394        0.822439        0.395768 
        2.35007         0.81644        0.393256 
        2.35619        0.813191         0.39077 
        2.36233        0.809682        0.388299 
        2.36848        0.807961        0.385845 
        2.37462        0.803769        0.383417 
        2.38075        0.798842        0.381012 
        2.38689        0.796282        0.378626 
        2.39303        0.792225        0.376261 
        2.39916        0.788425        0.373918 
        2.40529        0.786779        0.371596 
        2.41143        0.780118        0.369292 
        2.41757         0.77842        0.367007 
         2.4237        0.774487        0.364745 
        2.42983        0.770221        0.362502 
        2.43598        0.767609        0.360272 
        2.44211        0.763379        0.358065 
        2.44823        0.760966        0.355882 
        2.45437        0.757983        0.353711 
        2.46052        0.755018        0.351556 
        2.46665        0.750845        0.349422 
        2.47279        0.747493        0.347308 
        2.47892        0.744076        0.345209 
        2.48507        0.742168        0.343126 
         2.4912        0.737393        0.341064 
