# k  (h/Mpc)    Pcb(k)  (Mpc/h)^3    Pcb_linear(k)  (Mpc/h)^3
     0.00783031         9417.53         9469.33 
       0.013688         11618.9         11870.7 
       0.019231         12056.1         12203.8 
      0.0249154         11482.8         11470.8 
      0.0312784         10014.1         10099.5 
      0.0375637          8566.4         8694.03 
      0.0433917         7556.03         7591.84 
      0.0492413         6670.66         6751.55 
      0.0555754         6084.41         6109.62 
      0.0619321         5477.06         5652.61 
       0.067871         5206.18         5300.14 
      0.0738098         4886.37         4948.43 
      0.0800417         4496.23         4541.95 
      0.0862327         4042.38         4102.46 
      0.0921407          3645.2         3679.04 
      0.0982031         3294.69         3278.24 
       0.104506         2915.34         2929.21 
       0.110769         2673.09         2663.94 
       0.116806         2535.85          2479.5 
       0.122832         2375.25         2347.08 
       0.129052         2266.44         2239.75 
       0.135211         2197.89         2139.05 
       0.141259          2056.1         2029.59 
       0.147318         1908.86         1903.92 
       0.153489         1792.96         1763.77 
       0.159709         1697.43         1621.12 
       0.165845         1538.78            1491 
       0.171974         1485.61         1380.34 
       0.178125         1415.63         1292.12 
       0.184229         1310.45         1225.48 
        0.19034         1284.38         1174.18 
       0.196428         1245.84         1131.27 
       0.202534         1170.59         1089.67 
       0.208729         1150.91          1044.1 
       0.214876         1103.26         993.775 
       0.220989         1035.77         939.847 
       0.227147         1007.66         884.718 
        0.23329         964.789          832.51 
       0.239377         946.666         786.373 
       0.245482         896.218         747.097 
       0.251667         861.357         714.285 
       0.257832         850.315         687.127 
       0.263955         807.239          663.56 
       0.270079         781.945         641.233 
        0.27624         750.371         618.443 
       0.282372         736.161         594.659 
        0.28843         729.298         570.167 
       0.294538         691.893         545.231 
       0.300721         671.857         520.747 
        0.30691         659.402         497.968 
       0.313033         630.408         477.684 
       0.319153         620.512         459.805 
       0.325316         609.941         443.881 
        0.33145         596.295         429.571 
       0.337538         575.314         416.223 
       0.343633         559.354         403.203 
       0.349808         545.793         389.999 
       0.355968         535.678         376.748 
       0.362074         518.523         363.652 
       0.368217         515.285         350.778 
       0.374374         505.357          338.46 
       0.380519          485.37         326.942 
       0.386598         480.164         316.422 
       0.392688         469.359           306.7 
        0.39888         457.104         297.524 
       0.405048         449.098         288.915 
       0.411186          447.08         280.678 
       0.417313         441.342         272.658 
       0.423458         428.514         264.754 
       0.429607         417.359         256.971 
       0.435692         411.021         249.456 
       0.441815         404.028         242.146 
       0.447964         395.422         235.118 
       0.454126         390.576         228.437 
       0.460267         384.533         222.146 
       0.466387         377.911         216.204 
        0.47254         372.651         210.515 
       0.478662         364.067         205.088 
       0.484765         360.071         199.854 
       0.490885         355.989         194.746 
       0.497035         349.629         189.744 
       0.503198         348.545          184.87 
       0.509342         339.735         180.152 
       0.515458         334.837         175.612 
       0.521598         329.043         171.228 
       0.527764         324.595         167.005 
       0.533884         323.328         162.982 
           0.54         318.017         159.117 
       0.546137         311.263          155.38 
       0.552299         310.199         151.755 
       0.558452         305.088         148.247 
       0.564573         302.555         144.854 
       0.570708         297.637         141.546 
       0.576825         292.771         138.344 
       0.582926          290.36         135.246 
       0.589034         286.225         132.241 
       0.595184         284.353         129.312 
       0.601379         279.601         126.458 
       0.607522         274.301         123.721 
       0.613639         273.006         121.084 
       0.619772         271.435         118.522 
       0.625918         267.746          116.03 
       0.632068         263.414         113.607 
       0.638161         261.593         111.271 
         0.6443         259.312         108.981 
       0.650464         255.093         106.747 
       0.656582         253.065         104.591 
       0.662703         251.324         102.496 
       0.668861          246.79         100.447 
       0.675024          246.04         98.4552 
       0.681124         243.062         96.5386 
       0.687237         240.779         94.6706 
       0.693381         237.992         92.8445 
       0.699536         235.786         91.0643 
       0.705665         233.542          89.339 
       0.711789         231.361         87.6603 
       0.717957         228.841         86.0132 
        0.72409         226.399         84.4174 
       0.730186         227.445         82.8716 
       0.736317          223.49         81.3563 
       0.742472         220.721         79.8736 
       0.748622         217.892         78.4298 
        0.75476          218.51         77.0255 
       0.760888         215.733         75.6586 
       0.767043         212.842         74.3201 
       0.773185          211.46         73.0174 
       0.779291         208.548         71.7538 
       0.785407         207.805         70.5187 
       0.791564         205.792         69.3051 
       0.797719         202.725         68.1208 
       0.803834         203.813         66.9719 
       0.809972         201.705         65.8456 
       0.816124         198.682         64.7429 
       0.822261         197.141         63.6688 
       0.828378         197.049         62.6225 
       0.834502         194.086         61.5991 
       0.840667         193.901         60.5922 
       0.846816         191.035          59.611 
       0.852925         190.039          58.658 
       0.859047         188.218         57.7241 
       0.865192         187.843         56.8076 
       0.871341          185.42         55.9106 
       0.877463         183.875         55.0373 
       0.883569         183.761          54.185 
       0.889708         182.026         53.3465 
       0.895864         180.427         52.5237 
       0.902008         178.726         51.7202 
       0.908149         177.013         50.9341 
       0.914301         176.492         50.1632 
       0.920448         175.873         49.4091 
       0.926574         173.539         48.6732 
       0.932687         173.093          47.954 
       0.938823         171.831         47.2469 
       0.944975         170.525         46.5526 
       0.951105         168.994         45.8748 
       0.957225         168.279         45.2117 
       0.963368         166.989         44.5596 
       0.969511         165.153         43.9205 
       0.975621         163.944         43.2975 
       0.981748         162.957         42.6851 
       0.987916          162.24         42.0807 
        0.99406         161.168         41.4905 
        1.00019          160.06         40.9128 
        1.00632         159.122         40.3468 
        1.01246         158.106         39.7908 
        1.01859         156.927         39.2462 
        1.02471          155.77         38.7126 
        1.03085         154.717         38.1871 
        1.03698         153.637         37.6727 
        1.04314         153.211         37.1656 
        1.04929         152.448         36.6691 
        1.05541         151.393         36.1837 
        1.06154         150.126         35.7061 
        1.06769         149.172         35.2364 
        1.07382         148.503         34.7768 
        1.07993         147.359         34.3265 
        1.08607         146.424         33.8823 
        1.09222         145.577         33.4457 
        1.09836         144.621         33.0173 
        1.10449         143.519          32.597 
        1.11063         142.762         32.1836 
        1.11677         142.062         31.7775 
         1.1229         140.884         31.3792 
        1.12903         140.258         30.9875 
        1.13518          139.34         30.6021 
        1.14131         138.592         30.2236 
        1.14745         137.773         29.8517 
        1.15359         136.339          29.486 
        1.15973         136.037         29.1264 
        1.16584         135.252         28.7744 
        1.17197         134.542         28.4277 
        1.17811         133.339         28.0857 
        1.18424          132.86         27.7504 
        1.19038         132.154         27.4196 
        1.19652         131.259         27.0944 
        1.20267         130.444         26.7745 
        1.20881         129.583         26.4598 
        1.21495         129.133         26.1508 
        1.22108         128.306         25.8467 
         1.2272         127.348         25.5483 
        1.23334         127.068         25.2539 
        1.23949         126.418         24.9634 
        1.24562         125.439         24.6784 
        1.25174         124.668         24.3983 
        1.25789         123.978         24.1217 
        1.26402         123.599         23.8499 
        1.27014         122.823          23.583 
        1.27628         121.578         23.3194 
        1.28244          121.47         23.0594 
        1.28858         120.426         22.8037 
        1.29471         119.738         22.5525 
        1.30084         119.045         22.3053 
        1.30697         118.601         22.0615 
        1.31312         117.817         21.8211 
        1.31925         116.969         21.5849 
        1.32537         116.632         21.3526 
        1.33151         116.246         21.1228 
        1.33765         115.156         20.8966 
        1.34378         114.978         20.6741 
        1.34992         114.494         20.4548 
        1.35606         113.624         20.2382 
         1.3622         113.403         20.0251 
        1.36833         112.146         19.8157 
        1.37445         111.948         19.6093 
        1.38059         111.371         19.4053 
        1.38675         110.536         19.2037 
        1.39288         109.979         19.0058 
        1.39901         109.221         18.8108 
        1.40515         108.901         18.6181 
         1.4113         108.338         18.4282 
        1.41742         107.577         18.2416 
        1.42355         107.335         18.0573 
         1.4297          106.48          17.875 
        1.43585         105.947         17.6953 
        1.44198          105.22         17.5188 
        1.44809         104.588          17.345 
        1.45423         104.415          17.173 
        1.46036          103.54         17.0036 
        1.46649         102.962         16.8364 
        1.47263         102.643         16.6714 
        1.47877         101.963         16.5087 
        1.48491         101.514         16.3478 
        1.49104         100.531         16.1895 
        1.49718         100.422         16.0332 
        1.50333         99.9426         15.8787 
        1.50947         99.5099         15.7266 
         1.5156         99.0689         15.5767 
        1.52172         98.2842         15.4288 
        1.52787         97.8512         15.2825 
          1.534         97.3618         15.1382 
        1.54013         96.9794         14.9961 
        1.54627         96.1688         14.8554 
        1.55241         95.9417         14.7166 
        1.55855         95.2734         14.5798 
        1.56467         94.5168         14.4451 
         1.5708         94.1801         14.3117 
        1.57695         93.8784         14.1798 
        1.58308         93.3559         14.0499 
        1.58922         93.1777         13.9215 
        1.59535         92.7936         13.7948 
         1.6015         92.0654         13.6695 
        1.60764         91.5306         13.5458 
        1.61376         91.0761          13.424 
        1.61989         90.5538         13.3036 
        1.62604         90.1546         13.1845 
        1.63218          89.871         13.0668 
        1.63831         89.2989         12.9509 
        1.64444         88.8494         12.8363 
        1.65059         88.3368         12.7229 
        1.65673         87.9436         12.6109 
        1.66285         87.3366         12.5007 
        1.66898          86.878         12.3917 
        1.67512         86.5037         12.2838 
        1.68127         86.2129         12.1771 
         1.6874         85.6174         12.0719 
        1.69353          85.146          11.968 
        1.69967         84.8673         11.8651 
        1.70581         84.5056         11.7634 
        1.71193         83.9992         11.6634 
        1.71806         83.5144         11.5643 
        1.72421         83.1718         11.4661 
        1.73035         82.9075         11.3692 
        1.73649         82.3082         11.2735 
        1.74262         81.8138         11.1789 
        1.74876         81.4699         11.0854 
        1.75489         81.0212         10.9931 
        1.76101         80.5587          10.902 
        1.76715         80.2544         10.8117 
        1.77329         79.8142         10.7223 
        1.77943         79.5388          10.634 
        1.78557         79.1876         10.5467 
        1.79171         78.7185         10.4604 
        1.79785         78.2264         10.3751 
        1.80399          77.986         10.2908 
        1.81012         77.4977         10.2075 
        1.81625         77.1773         10.1251 
        1.82239         76.8715         10.0436 
        1.82853         76.2597         9.96298 
        1.83466          75.939         9.88335 
        1.84078         75.6963         9.80467 
        1.84692          75.517         9.72672 
        1.85306         75.0174         9.64953 
         1.8592         74.6676         9.57331 
        1.86533         74.2573         9.49795 
        1.87147         73.8448         9.42331 
        1.87761         73.3792         9.34945 
        1.88375         73.0767         9.27648 
        1.88988         72.6026         9.20436 
        1.89601         72.3991         9.13297 
        1.90215         71.8982         9.06228 
        1.90829         71.6462         8.99238 
        1.91442         71.3137         8.92321 
        1.92056         71.0734         8.85484 
         1.9267         70.6037         8.78711 
        1.93284         70.3696         8.72005 
        1.93897         70.0169         8.65383 
        1.94509         69.6126         8.58843 
        1.95123         69.3342         8.52355 
        1.95737         68.9596          8.4593 
        1.96349         68.6971         8.39588 
        1.96964         68.3263         8.33292 
        1.97578         67.8956         8.27059 
        1.98192         67.5603         8.20902 
        1.98805         67.1024         8.14807 
        1.99419         66.9308         8.08775 
        2.00033         66.5125           8.028 
        2.00647          66.307         7.96888 
         2.0126         65.9325         7.91046 
        2.01874         65.8378         7.85253 
        2.02488         65.4561         7.79514 
        2.03101         65.0526         7.73843 
        2.03714         64.8592         7.68233 
        2.04328         64.4307         7.62673 
        2.04941         63.9499         7.57173 
        2.05554         63.9066         7.51731 
        2.06167         63.6207         7.46336 
        2.06781         63.1889         7.40993 
        2.07396         62.8925         7.35695 
        2.08009         62.6242         7.30458 
        2.08622         62.2991         7.25278 
        2.09237         62.0152         7.20138 
        2.09851         61.5863         7.15048 
        2.10464         61.4218         7.10015 
        2.11077         61.1846         7.05037 
        2.11691         60.8406         7.00096 
        2.12305         60.4561         6.95202 
        2.12918         60.1831         6.90367 
        2.13531         59.9587         6.85578 
        2.14145         59.5984         6.80823 
         2.1476         59.4689         6.76108 
        2.15372         59.1461         6.71461 
        2.15985         58.7792         6.66854 
        2.16599         58.4647         6.62276 
        2.17213         58.2088         6.57747 
        2.17827         57.9685         6.53261 
         2.1844         57.6668         6.48822 
        2.19054         57.4703         6.44421 
        2.19666         57.1761         6.40069 
         2.2028         56.8369         6.35752 
        2.20893          56.558         6.31474 
        2.21508         56.2086          6.2723 
        2.22122         56.0067         6.23023 
        2.22736         55.7363         6.18865 
        2.23349         55.5481         6.14745 
        2.23962         55.3026         6.10661 
        2.24577         54.9604          6.0661 
         2.2519         54.7228         6.02602 
        2.25802         54.4597         5.98637 
        2.26417         54.1996         5.94696 
        2.27031         53.9802         5.90787 
        2.27644          53.799         5.86925 
        2.28257         53.3938         5.83098 
        2.28872         53.3151         5.79298 
        2.29486         53.0253         5.75533 
        2.30099         52.6092         5.71809 
        2.30712         52.5112         5.68116 
        2.31326         52.2712          5.6445 
         2.3194         51.9527         5.60818 
        2.32553         51.8297         5.57225 
        2.33166         51.4637         5.53664 
         2.3378         51.2354          5.5013 
        2.34394         50.9667         5.46626 
        2.35007         50.7387         5.43157 
        2.35619         50.5337         5.39723 
        2.36233         50.2465          5.3631 
        2.36848         50.0794          5.3292 
        2.37462         49.7312         5.29567 
        2.38075         49.6226         5.26245 
        2.38689         49.3902          5.2295 
        2.39303         49.1446         5.19683 
        2.39916         48.9128         5.16448 
        2.40529         48.7115          5.1324 
        2.41143         48.4517         5.10058 
        2.41757         48.2885         5.06901 
         2.4237         48.1024         5.03777 
        2.42983         47.7823          5.0068 
        2.43598          47.582           4.976 
        2.44211         47.3217         4.94552 
        2.44823         47.1324         4.91536 
        2.45437         46.9305         4.88537 
        2.46052         46.6293         4.85561 
        2.46665         46.4269         4.82614 
        2.47279         46.2188         4.79694 
        2.47892         46.0284         4.76795 
        2.48507          45.912         4.73918 
         2.4912         45.5299          4.7107 
