# k  (h/Mpc)    P(k)  (Mpc/h)^3    P_linear(k)  (Mpc/h)^3
     0.00783031         4920.19         4985.41 
       0.013688         6349.04         6331.66 
       0.019231         6637.03         6636.66 
      0.0249154         6315.58         6397.57 
      0.0312784         5785.14         5822.32 
      0.0375637         5183.37         5186.36 
      0.0433917         4606.62         4659.62 
      0.0492413         4210.93         4232.57 
      0.0555754         3805.16         3876.51 
      0.0619321         3598.19         3592.77 
       0.067871         3301.33         3355.58 
      0.0738098         3064.46         3118.55 
      0.0800417         2787.74         2859.19 
      0.0862327         2551.63         2596.77 
      0.0921407         2334.61         2356.73 
      0.0982031         2106.67         2136.57 
       0.104506         1957.36         1946.33 
       0.110769         1806.63         1797.85 
       0.116806          1682.7         1686.69 
       0.122832         1603.35         1596.41 
       0.129052         1499.13         1513.02 
       0.135211         1420.42         1430.84 
       0.141259         1352.23         1346.07 
       0.147318         1273.48         1257.52 
       0.153489         1175.09         1167.61 
       0.159709         1103.85         1082.68 
       0.165845         1049.82         1008.83 
       0.171974         980.775         946.902 
       0.178125         932.109         896.062 
       0.184229         894.599         854.288 
        0.19034          838.76         817.688 
       0.196428          820.97         783.149 
       0.202534         794.438         748.162 
       0.208729          754.37         711.443 
       0.214876         712.979         674.291 
       0.220989         690.422         637.982 
       0.227147          649.67         603.607 
        0.23329         622.347         572.679 
       0.239377         605.597         545.828 
       0.245482         567.276         522.447 
       0.251667         559.523         501.585 
       0.257832         540.292         482.585 
       0.263955         521.653         464.547 
       0.270079          503.89         446.683 
        0.27624         495.637         428.682 
       0.282372          475.03          410.87 
        0.28843         459.686         393.731 
       0.294538         439.707          377.33 
       0.300721         434.832         361.944 
        0.30691          414.82         347.903 
       0.313033         405.124         335.265 
       0.319153         389.982         323.669 
       0.325316         380.224         312.732 
        0.33145         368.519         302.321 
       0.337538         363.467         292.256 
       0.343633         351.594         282.378 
       0.349808         340.933         272.589 
       0.355968         335.505         263.129 
       0.362074          326.88         254.162 
       0.368217         318.303         245.626 
       0.374374         307.989         237.604 
       0.380519         302.522         230.098 
       0.386598         295.182         223.109 
       0.392688         291.606         216.461 
        0.39888         283.843         209.977 
       0.405048         277.928         203.741 
       0.411186         271.895         197.716 
       0.417313         266.468         191.877 
       0.423458         261.277         186.218 
       0.429607         255.097         180.768 
       0.435692         247.837         175.604 
       0.441815         246.186         170.648 
       0.447964         241.995         165.902 
       0.454126         232.034         161.362 
       0.460267         229.547         157.028 
       0.466387         226.483         152.873 
        0.47254         222.055         148.837 
       0.478662         219.972         144.951 
       0.484765          214.15         141.201 
       0.490885         210.913         137.561 
       0.497035          208.12         134.027 
       0.503198         202.691         130.614 
       0.509342         199.924          127.34 
       0.515458         197.267         124.203 
       0.521598         194.796         121.168 
       0.527764         191.661         118.231 
       0.533884         188.556         115.416 
           0.54         185.815         112.694 
       0.546137          184.53         110.047 
       0.552299         181.443         107.471 
       0.558452         178.056          104.98 
       0.564573         174.911         102.579 
       0.570708          172.63         100.248 
       0.576825         170.279         97.9985 
       0.582926         167.713         95.8265 
       0.589034         164.903         93.7213 
       0.595184         163.368         91.6683 
       0.601379         161.828         89.6644 
       0.607522         157.953         87.7368 
       0.613639         157.719         85.8733 
       0.619772         154.124          84.059 
       0.625918         152.764         82.2934 
       0.632068         151.063         80.5777 
       0.638161          149.64         78.9266 
         0.6443         147.528         77.3103 
       0.650464         145.865         75.7342 
       0.656582         144.304         74.2139 
       0.662703         141.796         72.7358 
       0.668861         140.398         71.2903 
       0.675024         138.781         69.8836 
       0.681124          137.54         68.5295 
       0.687237         135.141         67.2088 
       0.693381         133.648         65.9167 
       0.699536         132.299         64.6565 
       0.705665         132.856         63.4347 
       0.711789         129.336         62.2459 
       0.717957         128.829         61.0796 
        0.72409         126.988         59.9502 
       0.730186         124.917         58.8565 
       0.736317         124.674         57.7846 
       0.742472         123.399         56.7358 
       0.748622         122.487         55.7142 
        0.75476         121.188         54.7202 
       0.760888         119.577         53.7522 
       0.767043         118.496         52.8038 
       0.773185         117.266         51.8805 
       0.779291         116.218         50.9847 
       0.785407         115.348         50.1089 
       0.791564         113.949         49.2484 
       0.797719         112.537         48.4087 
       0.803834         112.098         47.5941 
       0.809972         110.305         46.7955 
       0.816124         109.827         46.0136 
       0.822261         108.881         45.2519 
       0.828378         107.848         44.5099 
       0.834502         107.006          43.784 
       0.840667         105.998         43.0697 
       0.846816         104.938         42.3735 
       0.852925         103.881         41.6972 
       0.859047         102.681         41.0343 
       0.865192         102.425         40.3837 
       0.871341         101.507         39.7469 
       0.877463         100.129         39.1268 
       0.883569         99.5175         38.5216 
       0.889708         98.9913         37.9262 
       0.895864         98.0739         37.3419 
       0.902008         97.3528         36.7712 
       0.908149         96.6837         36.2129 
       0.914301         95.6544         35.6653 
       0.920448         95.0044         35.1296 
       0.926574         94.3605         34.6069 
       0.932687         93.7798          34.096 
       0.938823         92.4267         33.5937 
       0.944975         92.1495         33.1003 
       0.951105         91.2874         32.6188 
       0.957225          90.172         32.1476 
       0.963368         89.9266         31.6843 
       0.969511         89.4016         31.2302 
       0.975621         88.8596         30.7874 
       0.981748         87.9411         30.3522 
       0.987916         87.3921         29.9226 
        0.99406         86.9397         29.5031 
        1.00019         85.7979         29.0925 
        1.00632         85.5614         28.6902 
        1.01246         84.6988         28.2949 
        1.01859         83.7334         27.9077 
        1.02471         84.1215         27.5283 
        1.03085          83.119         27.1547 
        1.03698         82.3757         26.7889 
        1.04314         81.5679         26.4283 
        1.04929         81.3049         26.0752 
        1.05541          80.596         25.7301 
        1.06154         80.3191         25.3903 
        1.06769         79.6447         25.0562 
        1.07382         79.2964         24.7293 
        1.07993         78.9426          24.409 
        1.08607         78.1607          24.093 
        1.09222         77.7918         23.7824 
        1.09836         77.2242         23.4776 
        1.10449         76.7159         23.1785 
        1.11063         76.0179         22.8843 
        1.11677          75.605         22.5954 
         1.1229         75.2591         22.3119 
        1.12903           74.27         22.0331 
        1.13518         74.4075         21.7589 
        1.14131         74.0037         21.4895 
        1.14745          73.035         21.2248 
        1.15359          72.856         20.9646 
        1.15973         72.2534         20.7086 
        1.16584         71.7789         20.4581 
        1.17197         71.4282         20.2114 
        1.17811         71.0225          19.968 
        1.18424         70.3413         19.7293 
        1.19038         70.1805         19.4939 
        1.19652          69.801         19.2624 
        1.20267         69.2672         19.0347 
        1.20881         68.8317         18.8107 
        1.21495         68.3377         18.5907 
        1.22108         67.9164         18.3743 
         1.2272         67.3778         18.1619 
        1.23334         67.1213         17.9523 
        1.23949          66.893         17.7456 
        1.24562         66.5287         17.5427 
        1.25174         66.1197         17.3433 
        1.25789         65.7443         17.1464 
        1.26402         65.2401         16.9529 
        1.27014         64.7052         16.7629 
        1.27628         64.5519         16.5753 
        1.28244         63.9666         16.3902 
        1.28858         63.7313         16.2082 
        1.29471         63.5246         16.0293 
        1.30084         63.0981         15.8533 
        1.30697         62.5635         15.6798 
        1.31312         62.1946         15.5085 
        1.31925          62.085         15.3404 
        1.32537         61.6866          15.175 
        1.33151         61.2596         15.0114 
        1.33765         61.1027         14.8503 
        1.34378         60.7304         14.6919 
        1.34992         60.0505         14.5357 
        1.35606         59.8107         14.3815 
         1.3622         59.4376         14.2297 
        1.36833         59.2944         14.0805 
        1.37445         59.0726         13.9336 
        1.38059         58.7125         13.7883 
        1.38675         58.3338         13.6447 
        1.39288         57.9987         13.5037 
        1.39901         57.6697         13.3649 
        1.40515         57.3996         13.2276 
         1.4113         57.2134         13.0924 
        1.41742         56.6947         12.9595 
        1.42355         56.5407         12.8283 
         1.4297         56.1334         12.6984 
        1.43585         56.0007         12.5705 
        1.44198         55.6732         12.4448 
        1.44809         55.3118          12.321 
        1.45423         55.1687         12.1985 
        1.46036         54.8107         12.0779 
        1.46649         54.4994         11.9589 
        1.47263         54.2506         11.8414 
        1.47877         54.0584         11.7255 
        1.48491         53.7453          11.611 
        1.49104         53.4161         11.4983 
        1.49718         53.0255         11.3869 
        1.50333         52.8812         11.2769 
        1.50947         52.5438         11.1686 
         1.5156         52.2752         11.0619 
        1.52172         52.0434         10.9565 
        1.52787         51.9583         10.8524 
          1.534         51.5683         10.7497 
        1.54013         51.2542         10.6484 
        1.54627         51.1669         10.5483 
        1.55241         50.8415         10.4494 
        1.55855         50.4911          10.352 
        1.56467         50.1527          10.256 
         1.5708         50.0877         10.1611 
        1.57695         49.7547         10.0671 
        1.58308         49.6864         9.97462 
        1.58922         49.4432          9.8832 
        1.59535         49.1117         9.79296 
         1.6015         48.8459         9.70373 
        1.60764         48.7221         9.61566 
        1.61376         48.4758         9.52892 
        1.61989         48.0134         9.44319 
        1.62604         47.9506         9.35832 
        1.63218         47.6682         9.27455 
        1.63831         47.4556           9.192 
        1.64444         47.3112         9.11042 
        1.65059          46.862         9.02964 
        1.65673         46.7267         8.94994 
        1.66285         46.5718         8.87142 
        1.66898         46.2421         8.79381 
        1.67512         46.0514         8.71699 
        1.68127          45.759         8.64101 
         1.6874         45.6932         8.56611 
        1.69353         45.3838         8.49215 
        1.69967         45.2411         8.41889 
        1.70581         45.0648         8.34652 
        1.71193         44.7371         8.27528 
        1.71806         44.5249         8.20472 
        1.72421         44.2762         8.13484 
        1.73035         44.1203         8.06586 
        1.73649         43.9145          7.9977 
        1.74262         43.6757         7.93038 
        1.74876         43.6617         7.86379 
        1.75489          43.274         7.79811 
        1.76101         43.0958         7.73319 
        1.76715          42.889         7.66893 
        1.77329          42.688         7.60532 
        1.77943         42.5595         7.54241 
        1.78557          42.345          7.4803 
        1.79171         42.0864         7.41888 
        1.79785          41.913         7.35813 
        1.80399         41.7377         7.29808 
        1.81012         41.5932         7.23879 
        1.81625         41.3027         7.18018 
        1.82239         41.1824         7.12213 
        1.82853         40.8534         7.06475 
        1.83466         40.7244         7.00806 
        1.84078         40.4412         6.95205 
        1.84692         40.3705         6.89657 
        1.85306          40.143         6.84162 
         1.8592         39.9816         6.78736 
        1.86533         39.7165         6.73372 
        1.87147         39.6191          6.6806 
        1.87761          39.538         6.62803 
        1.88375          39.264         6.57609 
        1.88988         39.1985         6.52476 
        1.89601         38.9218         6.47395 
        1.90215         38.8115         6.42365 
        1.90829         38.6648          6.3739 
        1.91442         38.3883         6.32467 
        1.92056         38.3054         6.27602 
         1.9267         38.0325         6.22782 
        1.93284         37.8224          6.1801 
        1.93897         37.7469         6.13297 
        1.94509         37.5583         6.08643 
        1.95123         37.3682         6.04026 
        1.95737         37.2048         5.99454 
        1.96349         37.0184         5.94941 
        1.96964         36.7847         5.90461 
        1.97578         36.7403         5.86025 
        1.98192         36.5203         5.81644 
        1.98805          36.394         5.77308 
        1.99419          36.143         5.73015 
        2.00033         35.9757         5.68764 
        2.00647         35.8564         5.64558 
         2.0126         35.6754         5.60401 
        2.01874         35.5799          5.5628 
        2.02488         35.4945         5.52196 
        2.03101         35.2462         5.48161 
        2.03714         35.0361          5.4417 
        2.04328         34.8941         5.40215 
        2.04941         34.7617         5.36302 
        2.05554         34.6051         5.32431 
        2.06167         34.4407         5.28592 
        2.06781         34.2931         5.24791 
        2.07396         34.1001         5.21022 
        2.08009         34.0501         5.17297 
        2.08622         33.8639         5.13612 
        2.09237         33.7468         5.09955 
        2.09851         33.5388         5.06334 
        2.10464         33.4535         5.02754 
        2.11077         33.1969         4.99213 
        2.11691         33.1887         4.95698 
        2.12305         32.9705         4.92217 
        2.12918          32.905         4.88778 
        2.13531         32.7529         4.85371 
        2.14145         32.6186         4.81989 
         2.1476          32.382         4.78636 
        2.15372         32.2847         4.75331 
        2.15985         32.1613         4.72054 
        2.16599         32.0412         4.68798 
        2.17213         31.9329         4.65577 
        2.17827         31.6475         4.62387 
         2.1844         31.5694          4.5923 
        2.19054         31.4653         4.56101 
        2.19666         31.3138         4.53005 
         2.2028         31.2169         4.49936 
        2.20893         31.0684         4.46894 
        2.21508         30.9443         4.43876 
        2.22122         30.7514         4.40885 
        2.22736         30.6691         4.37928 
        2.23349          30.538         4.34999 
        2.23962         30.3895         4.32095 
        2.24577          30.218         4.29215 
         2.2519         30.1063         4.26365 
        2.25802         30.0209         4.23546 
        2.26417         29.8755         4.20744 
        2.27031         29.7769         4.17966 
        2.27644         29.6563          4.1522 
        2.28257         29.5455         4.12499 
        2.28872         29.3448         4.09798 
        2.29486         29.2406         4.07121 
        2.30099         29.1518         4.04474 
        2.30712         29.0694         4.01849 
        2.31326          28.932         3.99243 
         2.3194         28.7735         3.96661 
        2.32553         28.6623         3.94107 
        2.33166         28.5109         3.91576 
         2.3378         28.3937         3.89064 
        2.34394         28.2901         3.86574 
        2.35007         28.1393         3.84108 
        2.35619         28.0414         3.81667 
        2.36233         27.9402         3.79242 
        2.36848          27.759         3.76833 
        2.37462         27.6817         3.74449 
        2.38075         27.5594         3.72089 
        2.38689          27.468         3.69747 
        2.39303         27.3159         3.67426 
        2.39916         27.2297         3.65126 
        2.40529         27.0873         3.62847 
        2.41143         27.0017         3.60586 
        2.41757         26.8728         3.58342 
         2.4237         26.7571         3.56122 
        2.42983         26.6719         3.53921 
        2.43598         26.5605         3.51733 
        2.44211          26.428         3.49567 
        2.44823         26.3002         3.47424 
        2.45437         26.1984         3.45293 
        2.46052         26.0846         3.43178 
        2.46665         26.0426         3.41085 
        2.47279          25.885          3.3901 
        2.47892         25.7644         3.36951 
        2.48507         25.6602         3.34906 
         2.4912         25.5837         3.32883 
