# k  (h/Mpc)    P(k)  (Mpc/h)^3    P_linear(k)  (Mpc/h)^3
     0.00783031         7112.27         7176.72 
       0.013688         8327.38         8499.32 
       0.019231         8296.76         8387.48 
      0.0249154         7634.64         7617.66 
      0.0312784         6487.47         6517.37 
      0.0375637         5468.69         5520.31 
      0.0433917         4796.93          4799.3 
      0.0492413         4250.77         4276.63 
      0.0555754         3881.83         3877.71 
      0.0619321         3492.72         3567.68 
       0.067871          3266.9         3295.31 
      0.0738098         2997.56         3007.07 
      0.0800417         2691.14         2686.53 
      0.0862327         2369.65         2372.41 
      0.0921407         2111.14          2103.4 
      0.0982031         1906.41         1877.47 
       0.104506         1707.05         1701.51 
       0.110769         1589.45         1577.16 
       0.116806         1520.47         1488.23 
       0.122832         1426.74         1411.73 
       0.129052          1350.1         1330.84 
       0.135211         1279.44         1241.63 
       0.141259         1173.85         1146.43 
       0.147318         1069.82         1050.23 
       0.153489         991.181         959.727 
       0.159709         932.168         882.524 
       0.165845         852.584          822.37 
       0.171974         829.587         776.423 
       0.178125         794.018         740.099 
       0.184229          743.74         708.523 
        0.19034         723.222         676.979 
       0.196428         693.481         643.203 
       0.202534         643.028         606.823 
       0.208729         623.061         569.016 
       0.214876         591.936         533.029 
       0.220989          550.26         500.837 
       0.227147         534.892         473.158 
        0.23329         513.138         450.228 
       0.239377         501.493         431.148 
       0.245482         476.146         414.231 
       0.251667         456.434         397.944 
       0.257832          449.67         381.566 
       0.263955         423.612         364.839 
       0.270079         406.531         347.871 
        0.27624         388.246         331.147 
       0.282372         376.996         315.491 
        0.28843         372.685         301.421 
       0.294538         353.703         288.808 
       0.300721         340.856         277.481 
        0.30691         334.954         267.246 
       0.313033         319.942         257.778 
       0.319153         314.057          248.63 
       0.325316         305.447         239.518 
        0.33145         296.758         230.532 
       0.337538         285.917         221.777 
       0.343633         276.785         213.346 
       0.349808         268.627         205.285 
       0.355968         262.503          197.82 
       0.362074         255.185         190.987 
       0.368217         251.209         184.615 
       0.374374         245.041         178.623 
       0.380519          234.83         172.915 
       0.386598         230.853         167.459 
       0.392688         224.479         162.132 
        0.39888         219.487         156.856 
       0.405048           214.7         151.773 
       0.411186         212.162         146.918 
       0.417313         207.523         142.305 
       0.423458         201.927          137.93 
       0.429607         196.981         133.787 
       0.435692         193.643         129.898 
       0.441815         189.188         126.162 
       0.447964         183.714         122.556 
       0.454126         180.665         119.064 
       0.460267         178.573         115.696 
       0.466387         174.543         112.448 
        0.47254         172.377         109.294 
       0.478662         166.887         106.275 
       0.484765         164.637         103.389 
       0.490885         161.681         100.615 
       0.497035         159.896         97.9426 
       0.503198         157.313         95.3733 
       0.509342         153.137         92.9092 
       0.515458         151.075         90.5423 
       0.521598         147.416         88.2431 
       0.527764         145.926         86.0086 
       0.533884         145.098         83.8636 
           0.54         141.335         81.7918 
       0.546137         138.149         79.7829 
       0.552299          136.41         77.8356 
       0.558452          133.99           75.96 
       0.564573          133.29         74.1598 
       0.570708         129.751         72.4167 
       0.576825         128.206          70.736 
       0.582926         126.776         69.1124 
       0.589034         124.719         67.5366 
       0.595184         123.407         65.9989 
       0.601379         120.734         64.4982 
       0.607522         118.488          63.056 
       0.613639         117.582         61.6641 
       0.619772         115.813         60.3113 
       0.625918         114.936         58.9971 
       0.632068         112.385         57.7223 
       0.638161         111.018         56.4973 
         0.6443         110.379         55.2997 
       0.650464         108.073         54.1328 
       0.656582         107.605          53.008 
       0.662703         106.269         51.9146 
       0.668861          103.99         50.8456 
       0.675024         103.982         49.8059 
       0.681124         102.231         48.8057 
       0.687237         100.582         47.8312 
       0.693381         99.7739         46.8792 
       0.699536         98.5552         45.9517 
       0.705665         97.2863         45.0537 
       0.711789         95.9838         44.1807 
       0.717957         94.8598         43.3251 
        0.72409         94.0084         42.4969 
       0.730186          93.596         41.6955 
       0.736317         91.9923         40.9104 
       0.742472         90.6829         40.1426 
       0.748622         89.3432         39.3954 
        0.75476         89.2534         38.6689 
       0.760888         88.5336         37.9619 
       0.767043         86.7832         37.2699 
       0.773185         85.7618         36.5967 
       0.779291         84.8151         35.9441 
       0.785407         83.9887         35.3065 
       0.791564         83.6681         34.6805 
       0.797719         82.4394         34.0701 
       0.803834         81.9975         33.4783 
       0.809972         81.3005         32.8985 
       0.816124         80.2072         32.3312 
       0.822261         79.2486         31.7789 
       0.828378         79.0887         31.2412 
       0.834502         77.9539         30.7155 
       0.840667         77.4449         30.1985 
       0.846816         76.6963          29.695 
       0.852925         75.7812         29.2061 
       0.859047         75.5218         28.7273 
       0.865192         74.4964         28.2576 
       0.871341         73.6981         27.7982 
       0.877463           73.13         27.3511 
       0.883569         73.0097          26.915 
       0.889708         72.2663         26.4862 
       0.895864         71.6748         26.0657 
       0.902008         70.9164         25.6552 
       0.908149         70.0175         25.2538 
       0.914301          69.811         24.8604 
       0.920448         69.6109         24.4758 
       0.926574         68.1793         24.1007 
       0.932687         67.9903         23.7342 
       0.938823         67.4513         23.3741 
       0.944975         66.6399         23.0207 
       0.951105         66.1178         22.6758 
       0.957225         65.9345         22.3387 
       0.963368         65.2567         22.0073 
       0.969511         64.7646         21.6826 
       0.975621         64.2004         21.3662 
       0.981748         63.6276         21.0554 
       0.987916         63.1698         20.7488 
        0.99406          62.888         20.4495 
        1.00019         62.0984         20.1567 
        1.00632         61.6738         19.8699 
        1.01246         61.3076         19.5883 
        1.01859         61.0365         19.3126 
        1.02471         60.3749         19.0425 
        1.03085         59.9333         18.7768 
        1.03698         59.5773         18.5166 
        1.04314         59.1007         18.2603 
        1.04929         58.6747         18.0095 
        1.05541         58.3419         17.7644 
        1.06154         57.9591         17.5232 
        1.06769         57.3643         17.2862 
        1.07382         56.8952         17.0543 
        1.07993         56.7245         16.8272 
        1.08607         56.2643         16.6034 
        1.09222         56.0419         16.3833 
        1.09836         55.5464         16.1676 
        1.10449         55.2328         15.9559 
        1.11063         54.7763         15.7479 
        1.11677         54.5819         15.5436 
         1.1229         54.0221         15.3433 
        1.12903         53.8354         15.1463 
        1.13518         53.6554         14.9527 
        1.14131          53.104         14.7625 
        1.14745         52.7448         14.5758 
        1.15359           52.15         14.3923 
        1.15973         52.1678         14.2118 
        1.16584         51.7646         14.0353 
        1.17197         51.2609         13.8615 
        1.17811         51.0322         13.6901 
        1.18424         50.3797         13.5221 
        1.19038         50.3331         13.3565 
        1.19652         50.0888         13.1937 
        1.20267         49.7179         13.0336 
        1.20881         49.4167         12.8762 
        1.21495         49.1846         12.7217 
        1.22108         49.0538         12.5697 
         1.2272         48.5108         12.4206 
        1.23334         48.3027         12.2736 
        1.23949         48.0013         12.1285 
        1.24562         47.6762         11.9863 
        1.25174         47.3919         11.8465 
        1.25789          47.308         11.7086 
        1.26402         46.9309         11.5731 
        1.27014         46.7759           11.44 
        1.27628         46.2864         11.3087 
        1.28244         46.2538         11.1792 
        1.28858         45.8738         11.0518 
        1.29471         45.5681         10.9268 
        1.30084         45.1847         10.8037 
        1.30697         45.2484         10.6824 
        1.31312         44.8318         10.5628 
        1.31925         44.4693         10.4454 
        1.32537         44.2783         10.3299 
        1.33151           44.01         10.2157 
        1.33765         43.8521         10.1033 
        1.34378         43.6314         9.99286 
        1.34992         43.3359         9.88397 
        1.35606         43.0134         9.77646 
         1.3622         42.8792         9.67074 
        1.36833         42.6767         9.56684 
        1.37445         42.2488         9.46451 
        1.38059         42.1916         9.36337 
        1.38675         41.7869         9.26346 
        1.39288         41.7559         9.16541 
        1.39901         41.4019         9.06882 
        1.40515         41.2748         8.97341 
         1.4113         41.2005          8.8794 
        1.41742         40.8847          8.7871 
        1.42355         40.6064         8.69594 
         1.4297         40.4567         8.60579 
        1.43585         40.2019         8.51696 
        1.44198         39.9335         8.42973 
        1.44809         39.6979         8.34387 
        1.45423         39.5832          8.2589 
        1.46036         39.4332         8.17527 
        1.46649         39.1904         8.09276 
        1.47263         38.9626         8.01133 
        1.47877         38.8021         7.93105 
        1.48491         38.6209         7.85175 
        1.49104         38.3195         7.77369 
        1.49718         38.2403         7.69664 
        1.50333         38.0715         7.62051 
        1.50947         37.8115         7.54557 
         1.5156          37.671         7.47174 
        1.52172         37.3997          7.3989 
        1.52787         37.2905         7.32689 
          1.534         37.0321         7.25592 
        1.54013         37.0547         7.18597 
        1.54627         36.6746         7.11681 
        1.55241         36.5019         7.04855 
        1.55855         36.4235         6.98128 
        1.56467          36.156         6.91507 
         1.5708         36.0961         6.84953 
        1.57695         35.8987         6.78474 
        1.58308         35.6111         6.72094 
        1.58922         35.4779         6.65791 
        1.59535          35.364         6.59572 
         1.6015         35.3194         6.53422 
        1.60764         35.0179         6.47354 
        1.61376         34.8371          6.4138 
        1.61989         34.6011         6.35476 
        1.62604         34.4915         6.29633 
        1.63218         34.2842         6.23867 
        1.63831          34.208         6.18186 
        1.64444         34.0418         6.12574 
        1.65059         33.8489         6.07019 
        1.65673         33.7103         6.01538 
        1.66285         33.6326          5.9614 
        1.66898         33.3563         5.90806 
        1.67512         33.2773         5.85527 
        1.68127         33.0989         5.80308 
         1.6874         32.9527         5.75164 
        1.69353         32.8674         5.70085 
        1.69967          32.723         5.65056 
        1.70581         32.4825         5.60089 
        1.71193         32.3416         5.55201 
        1.71806         32.2482         5.50361 
        1.72421         32.0904         5.45568 
        1.73035         31.9232         5.40839 
        1.73649         31.7151         5.36166 
        1.74262         31.5338         5.31552 
        1.74876          31.562         5.26989 
        1.75489         31.3196         5.22489 
        1.76101         31.2227         5.18043 
        1.76715         31.1002         5.13643 
        1.77329         30.8412         5.09288 
        1.77943         30.8254         5.04982 
        1.78557         30.7193         5.00732 
        1.79171          30.557          4.9653 
        1.79785         30.4285         4.92375 
        1.80399         30.2711         4.88269 
        1.81012         30.1928         4.84215 
        1.81625         29.9152         4.80208 
        1.82239         29.8408         4.76241 
        1.82853         29.7326         4.72321 
        1.83466         29.5871         4.68448 
        1.84078         29.4482         4.64623 
        1.84692         29.3293         4.60834 
        1.85306         29.1659         4.57082 
         1.8592          29.123         4.53378 
        1.86533         28.9652         4.49718 
        1.87147         28.8318         4.46093 
        1.87761         28.6626         4.42506 
        1.88375         28.6106         4.38964 
        1.88988         28.4797         4.35463 
        1.89601         28.2911         4.31999 
        1.90215          28.209          4.2857 
        1.90829         28.1122         4.25179 
        1.91442         27.9507         4.21825 
        1.92056         27.8574          4.1851 
         1.9267         27.7874         4.15227 
        1.93284         27.6446         4.11977 
        1.93897         27.5602         4.08768 
        1.94509         27.4075         4.05601 
        1.95123         27.3305         4.02458 
        1.95737         27.1612         3.99347 
        1.96349         27.1091         3.96276 
        1.96964         27.0062         3.93229 
        1.97578         26.8028         3.90213 
        1.98192         26.7139         3.87234 
        1.98805         26.5666         3.84286 
        1.99419         26.5012         3.81368 
        2.00033         26.3677         3.78479 
        2.00647         26.3272         3.75621 
         2.0126         26.1465         3.72797 
        2.01874         26.0602         3.69997 
        2.02488         25.9137         3.67224 
        2.03101          25.789         3.64485 
        2.03714         25.7422         3.61776 
        2.04328         25.6253         3.59091 
        2.04941         25.5018         3.56436 
        2.05554         25.4222         3.53809 
        2.06167         25.3038         3.51205 
        2.06781         25.2244         3.48627 
        2.07396         25.1207         3.46072 
        2.08009         24.9842         3.43546 
        2.08622         24.9013         3.41048 
        2.09237          24.829          3.3857 
        2.09851         24.7012         3.36116 
        2.10464         24.5533         3.33691 
        2.11077         24.5383         3.31292 
        2.11691         24.3841         3.28912 
        2.12305         24.3034         3.26555 
        2.12918         24.2022         3.24226 
        2.13531         24.1179          3.2192 
        2.14145         24.0199         3.19631 
         2.1476         23.8837         3.17362 
        2.15372         23.8471         3.15125 
        2.15985         23.7126         3.12909 
        2.16599         23.5825         3.10707 
        2.17213          23.528         3.08528 
        2.17827         23.4215         3.06371 
         2.1844         23.3395         3.04236 
        2.19054         23.2986         3.02121 
        2.19666         23.1412         3.00029 
         2.2028         23.1135         2.97955 
        2.20893         22.9924           2.959 
        2.21508         22.8964         2.93861 
        2.22122         22.7919         2.91841 
        2.22736         22.7435         2.89844 
        2.23349         22.5943         2.87867 
        2.23962         22.5351         2.85906 
        2.24577         22.4311         2.83963 
         2.2519         22.3505         2.82039 
        2.25802         22.2261         2.80137 
        2.26417          22.149         2.78247 
        2.27031         22.0839         2.76372 
        2.27644          22.027         2.74521 
        2.28257          21.923         2.72686 
        2.28872         21.8815         2.70864 
        2.29486          21.763          2.6906 
        2.30099         21.6351         2.67275 
        2.30712         21.5934         2.65506 
        2.31326         21.4747          2.6375 
         2.3194         21.4162         2.62011 
        2.32553         21.3492          2.6029 
        2.33166          21.239         2.58585 
         2.3378         21.1742         2.56894 
        2.34394         21.0929         2.55216 
        2.35007         21.0206         2.53557 
        2.35619         20.9846         2.51914 
        2.36233         20.8026         2.50281 
        2.36848         20.7489          2.4866 
        2.37462         20.7264         2.47056 
        2.38075         20.6152         2.45468 
        2.38689         20.4929         2.43893 
        2.39303         20.4595         2.42331 
        2.39916         20.3415         2.40785 
        2.40529         20.3028         2.39253 
        2.41143         20.1882         2.37732 
        2.41757         20.0896         2.36225 
         2.4237         20.0557         2.34733 
        2.42983         19.9682         2.33254 
        2.43598         19.8622         2.31783 
        2.44211         19.8215         2.30328 
        2.44823         19.7157         2.28889 
        2.45437          19.708         2.27458 
        2.46052         19.5977         2.26038 
        2.46665          19.548         2.24632 
        2.47279         19.4381         2.23239 
        2.47892         19.3694         2.21857 
        2.48507          19.311         2.20485 
         2.4912         19.2389         2.19127 
