# k  (h/Mpc)    Pcb(k)  (Mpc/h)^3    Pcb_linear(k)  (Mpc/h)^3
     0.00783031         293.003         294.947 
       0.013688          388.71         391.825 
       0.019231         420.053         421.421 
      0.0249154         411.798         412.329 
      0.0312784         377.082         377.575 
      0.0375637         335.391         335.887 
      0.0433917         300.959         300.558 
      0.0492413         272.136         272.235 
      0.0555754         250.298          249.77 
      0.0619321         232.422         233.386 
       0.067871         220.453         220.649 
      0.0738098         207.757         207.908 
      0.0800417         193.141         193.038 
      0.0862327         176.483         176.653 
      0.0921407         160.314         160.488 
      0.0982031         144.966         144.778 
       0.104506          130.43         130.703 
       0.110769         119.517         119.693 
       0.116806         112.115         111.843 
       0.122832         106.007         106.128 
       0.129052         101.621         101.533 
       0.135211         97.5527         97.3349 
       0.141259         92.8062         92.8561 
       0.147318         87.3844         87.7068 
       0.153489         81.7983         81.8767 
       0.159709         75.9108         75.8113 
       0.165845         69.8636         70.1451 
       0.171974         65.4708         65.2129 
       0.178125         61.4522         61.2027 
       0.184229         58.1933          58.138 
        0.19034         56.1018         55.7874 
       0.196428         54.0841         53.8636 
       0.202534         51.9402         52.0459 
       0.208729          50.208         50.0733 
       0.214876         48.1863         47.8736 
       0.220989         45.4219         45.4693 
       0.227147         43.3253         42.9557 
        0.23329         40.9578         40.5257 
       0.239377         38.8311         38.3441 
       0.245482         36.9229         36.4711 
       0.251667         35.2251         34.9099 
       0.257832         34.1441         33.6382 
       0.263955         32.9077         32.5606 
       0.270079         31.8998         31.5588 
        0.27624         30.7414         30.5386 
       0.282372         29.6934         29.4574 
        0.28843         28.7684         28.3191 
       0.294538         27.5427         27.1327 
       0.300721         26.2514         25.9454 
        0.30691         25.3097         24.8271 
       0.313033         24.2691         23.8286 
       0.319153         23.5878         22.9548 
       0.325316         22.5666         22.1895 
        0.33145          21.888         21.5162 
       0.337538         21.3161          20.898 
       0.343633           20.76         20.2966 
       0.349808            20.1         19.6807 
       0.355968         19.4489         19.0498 
       0.362074         18.9009         18.4137 
       0.368217         18.2496         17.7767 
       0.374374         17.7558         17.1606 
       0.380519         17.0548         16.5829 
       0.386598         16.4982         16.0579 
       0.392688         16.0051         15.5793 
        0.39888         15.6135         15.1339 
       0.405048         15.2146         14.7219 
       0.411186         14.8028         14.3298 
       0.417313         14.4262          13.946 
       0.423458         13.9825         13.5637 
       0.429607         13.6844         13.1812 
       0.435692         13.3427         12.8062 
       0.441815         12.9062          12.438 
       0.447964         12.5064         12.0824 
       0.454126          12.239         11.7445 
       0.460267         12.0004         11.4289 
       0.466387         11.6584         11.1339 
        0.47254           11.41         10.8537 
       0.478662         11.1158         10.5879 
       0.484765         10.8652         10.3319 
       0.490885           10.58         10.0806 
       0.497035         10.3007         9.83212 
       0.503198         10.0925         9.58772 
       0.509342         9.81791         9.34939 
       0.515458         9.63217         9.11867 
       0.521598         9.40971         8.89531 
       0.527764           9.238         8.68081 
       0.533884         8.96304         8.47769 
           0.54          8.7908         8.28348 
       0.546137         8.56086         8.09626 
       0.552299         8.40051         7.91497 
       0.558452         8.22638         7.73949 
       0.564573         8.07341         7.56928 
       0.570708         7.89911         7.40222 
       0.576825          7.7358         7.23942 
       0.582926         7.56279         7.08131 
       0.589034         7.43421          6.9277 
       0.595184         7.30552         6.77807 
       0.601379          7.1234          6.6324 
       0.607522          6.9824         6.49282 
       0.613639         6.81947         6.35855 
       0.619772         6.72287         6.22838 
       0.625918           6.587         6.10192 
       0.632068         6.47728         5.97887 
       0.638161         6.34979         5.85997 
         0.6443         6.22511         5.74293 
       0.650464         6.09646          5.6283 
       0.656582         6.02164         5.51749 
       0.662703         5.91258         5.40969 
       0.668861          5.7645         5.30439 
       0.675024         5.67268         5.20208 
       0.681124         5.63705          5.1037 
       0.687237         5.50385         5.00781 
       0.693381         5.37057         4.91401 
       0.699536         5.32196         4.82248 
       0.705665         5.22484         4.73368 
       0.711789         5.11241          4.6472 
       0.717957         5.02471         4.56228 
        0.72409          4.9504         4.47996 
       0.730186         4.89345         4.40016 
       0.736317         4.79155         4.32186 
       0.742472         4.72729         4.24519 
       0.748622         4.65555         4.17046 
        0.75476         4.55327         4.09772 
       0.760888         4.50512         4.02687 
       0.767043          4.3904         3.95746 
       0.773185          4.3414         3.88988 
       0.779291         4.30484          3.8243 
       0.785407         4.22144         3.76018 
       0.791564         4.16056         3.69715 
       0.797719         4.08996         3.63561 
       0.803834         4.03004         3.57588 
       0.809972          3.9676         3.51729 
       0.816124         3.91054         3.45989 
       0.822261         3.85731         3.40393 
       0.828378         3.79157         3.34939 
       0.834502         3.74143         3.29601 
       0.840667         3.69783         3.24346 
       0.846816         3.63668         3.19222 
       0.852925         3.57784         3.14242 
       0.859047         3.53012          3.0936 
       0.865192         3.48232         3.04566 
       0.871341         3.43601         2.99873 
       0.877463         3.38018         2.95301 
       0.883569         3.33659         2.90838 
       0.889708         3.29831         2.86445 
       0.895864         3.25333         2.82132 
       0.902008         3.19879         2.77919 
       0.908149         3.16212         2.73795 
       0.914301         3.12777          2.6975 
       0.920448         3.08553          2.6579 
       0.926574         3.05771         2.61926 
       0.932687         3.00958         2.58147 
       0.938823         2.95816          2.5443 
       0.944975         2.93121         2.50778 
       0.951105         2.87853         2.47213 
       0.957225         2.84821         2.43723 
       0.963368         2.82123          2.4029 
       0.969511         2.78908         2.36923 
       0.975621         2.74675          2.3364 
       0.981748         2.69814         2.30412 
       0.987916         2.67172         2.27224 
        0.99406         2.65024          2.2411 
        1.00019         2.61468         2.21061 
        1.00632         2.59135         2.18072 
        1.01246          2.5541         2.15134 
        1.01859         2.52448         2.12256 
        1.02471         2.48369         2.09435 
        1.03085         2.45825         2.06656 
        1.03698         2.43503         2.03933 
        1.04314          2.4087         2.01249 
        1.04929         2.38311         1.98619 
        1.05541         2.34473         1.96048 
        1.06154         2.32699         1.93517 
        1.06769         2.30521         1.91026 
        1.07382         2.27321         1.88589 
        1.07993         2.24623         1.86199 
        1.08607         2.22498         1.83842 
        1.09222         2.19304         1.81523 
        1.09836         2.17906         1.79248 
        1.10449         2.14269         1.77015 
        1.11063          2.1218         1.74817 
        1.11677         2.10425         1.72658 
         1.1229          2.0722          1.7054 
        1.12903         2.05953         1.68456 
        1.13518         2.03045         1.66405 
        1.14131         2.01318          1.6439 
        1.14745         1.99333         1.62409 
        1.15359         1.97047         1.60462 
        1.15973         1.95114         1.58545 
        1.16584         1.92705         1.56669 
        1.17197         1.90587         1.54821 
        1.17811         1.88655         1.52997 
        1.18424         1.86718         1.51209 
        1.19038         1.84587         1.49444 
        1.19652         1.83493         1.47708 
        1.20267         1.81829            1.46 
        1.20881         1.79211         1.44319 
        1.21495         1.77784         1.42668 
        1.22108          1.7617         1.41043 
         1.2272         1.73682         1.39448 
        1.23334         1.72517         1.37874 
        1.23949         1.71077         1.36321 
        1.24562         1.69275         1.34796 
        1.25174          1.6762         1.33297 
        1.25789         1.65562         1.31816 
        1.26402         1.63968         1.30361 
        1.27014         1.62207         1.28931 
        1.27628         1.61113         1.27519 
        1.28244         1.59756         1.26125 
        1.28858         1.57781         1.24754 
        1.29471         1.56187         1.23407 
        1.30084         1.55007         1.22081 
        1.30697         1.53981         1.20773 
        1.31312         1.52374         1.19482 
        1.31925         1.50952         1.18215 
        1.32537         1.49678         1.16967 
        1.33151          1.4807         1.15733 
        1.33765         1.46826         1.14517 
        1.34378         1.45199         1.13322 
        1.34992         1.44486         1.12143 
        1.35606         1.42884         1.10978 
         1.3622          1.4174         1.09832 
        1.36833         1.40459         1.08705 
        1.37445         1.39249         1.07595 
        1.38059         1.37967         1.06496 
        1.38675         1.36772         1.05411 
        1.39288         1.35515         1.04345 
        1.39901         1.34453         1.03295 
        1.40515         1.33137         1.02257 
         1.4113         1.32559         1.01233 
        1.41742         1.30934         1.00228 
        1.42355          1.2951        0.992343 
         1.4297         1.29048        0.982514 
        1.43585         1.27569        0.972823 
        1.44198         1.26655        0.963301 
        1.44809         1.25481        0.953925 
        1.45423         1.24675         0.94464 
        1.46036         1.23575        0.935496 
        1.46649         1.22247        0.926472 
        1.47263         1.21398         0.91756 
        1.47877         1.20936        0.908769 
        1.48491         1.19169        0.900082 
        1.49104         1.18797        0.891527 
        1.49718         1.17431        0.883078 
        1.50333         1.16766        0.874725 
        1.50947         1.15964        0.866499 
         1.5156         1.14902        0.858391 
        1.52172         1.14104        0.850388 
        1.52787         1.12917        0.842472 
          1.534         1.12386        0.834667 
        1.54013           1.114        0.826969 
        1.54627         1.10457        0.819355 
        1.55241         1.09433        0.811837 
        1.55855         1.08754        0.804424 
        1.56467         1.07943        0.797125 
         1.5708         1.07011        0.789896 
        1.57695         1.06088        0.782746 
        1.58308         1.05064        0.775703 
        1.58922         1.04724        0.768741 
        1.59535         1.03632        0.761868 
         1.6015         1.02818         0.75507 
        1.60764         1.02195        0.748359 
        1.61376         1.01351        0.741749 
        1.61989         1.00685        0.735213 
        1.62604        0.997211        0.728743 
        1.63218        0.993332        0.722354 
        1.63831        0.983405        0.716058 
        1.64444         0.97678        0.709835 
        1.65059        0.969844        0.703672 
        1.65673        0.962473        0.697589 
        1.66285        0.956607        0.691595 
        1.66898        0.949783         0.68567 
        1.67512        0.940394        0.679804 
        1.68127        0.933011        0.674002 
         1.6874        0.929369         0.66828 
        1.69353        0.921855        0.662629 
        1.69967        0.915179         0.65703 
        1.70581         0.91011        0.651499 
        1.71193        0.903188        0.646053 
        1.71806        0.896945        0.640658 
        1.72421        0.890269        0.635314 
        1.73035        0.881441        0.630038 
        1.73649        0.880748        0.624823 
        1.74262         0.87059        0.619672 
        1.74876        0.866168        0.614576 
        1.75489        0.860882        0.609548 
        1.76101        0.852778        0.604579 
        1.76715        0.848266        0.599658 
        1.77329        0.842751        0.594786 
        1.77943        0.836472        0.589967 
        1.78557         0.83347        0.585208 
        1.79171        0.827208        0.580502 
        1.79785        0.820486        0.575846 
        1.80399        0.813442        0.571243 
        1.81012        0.809728        0.566697 
        1.81625        0.805205        0.562202 
        1.82239        0.799735         0.55775 
        1.82853        0.793979        0.553348 
        1.83466         0.78809        0.548999 
        1.84078        0.781906        0.544701 
        1.84692        0.778187        0.540442 
        1.85306        0.774069        0.536224 
         1.8592        0.767875        0.532058 
        1.86533        0.764439        0.527939 
        1.87147        0.756827        0.523859 
        1.87761        0.753274         0.51982 
        1.88375        0.748885        0.515829 
        1.88988        0.742989        0.511885 
        1.89601        0.737398         0.50798 
        1.90215        0.734513        0.504113 
        1.90829        0.728912        0.500288 
        1.91442        0.725092        0.496503 
        1.92056        0.722447         0.49276 
         1.9267        0.715868        0.489053 
        1.93284        0.710979        0.485381 
        1.93897        0.707857        0.481755 
        1.94509        0.704057        0.478173 
        1.95123        0.697857         0.47462 
        1.95737        0.693838        0.471099 
        1.96349        0.689504        0.467624 
        1.96964        0.685741        0.464174 
        1.97578         0.68055        0.460758 
        1.98192        0.677599        0.457383 
        1.98805        0.674118        0.454042 
        1.99419        0.670484        0.450734 
        2.00033        0.666077        0.447458 
        2.00647        0.661655        0.444215 
         2.0126        0.658219         0.44101 
        2.01874        0.654861        0.437832 
        2.02488        0.649999        0.434683 
        2.03101        0.646004        0.431571 
        2.03714        0.643746        0.428492 
        2.04328        0.638035         0.42544 
        2.04941        0.635434        0.422421 
        2.05554        0.631903        0.419433 
        2.06167        0.628146         0.41647 
        2.06781         0.62246        0.413536 
        2.07396        0.621231        0.410625 
        2.08009        0.616923        0.407748 
        2.08622        0.613781        0.404902 
        2.09237        0.609998        0.402078 
        2.09851        0.605653         0.39928 
        2.10464        0.603283        0.396514 
        2.11077        0.598624        0.393777 
        2.11691        0.596236         0.39106 
        2.12305        0.593152        0.388369 
        2.12918        0.589244         0.38571 
        2.13531        0.586809        0.383075 
        2.14145        0.582731         0.38046 
         2.1476         0.58037        0.377866 
        2.15372         0.57674        0.375309 
        2.15985        0.572948        0.372773 
        2.16599        0.570651        0.370254 
        2.17213        0.567417        0.367761 
        2.17827         0.56323        0.365291 
         2.1844        0.562017        0.362846 
        2.19054        0.558815        0.360424 
        2.19666         0.55567        0.358026 
         2.2028        0.551371        0.355649 
        2.20893         0.54953        0.353292 
        2.21508        0.546398        0.350954 
        2.22122        0.544384        0.348637 
        2.22736        0.539459        0.346345 
        2.23349        0.536391        0.344074 
        2.23962        0.534273        0.341823 
        2.24577        0.531765         0.33959 
         2.2519        0.529189         0.33738 
        2.25802        0.526644        0.335194 
        2.26417         0.52317        0.333021 
        2.27031        0.520704        0.330865 
        2.27644        0.519636        0.328735 
        2.28257        0.515439        0.326623 
        2.28872        0.513547        0.324527 
        2.29486        0.510037        0.322449 
        2.30099         0.50763        0.320394 
        2.30712        0.505129        0.318356 
        2.31326        0.502285        0.316332 
         2.3194        0.500726        0.314327 
        2.32553        0.497689        0.312343 
        2.33166         0.49543        0.310377 
         2.3378        0.492647        0.308426 
        2.34394        0.490083         0.30649 
        2.35007        0.487377        0.304574 
        2.35619        0.484285        0.302677 
        2.36233        0.482155        0.300792 
        2.36848        0.480416        0.298919 
        2.37462        0.478851        0.297065 
        2.38075        0.475765         0.29523 
        2.38689        0.473783        0.293408 
        2.39303        0.470854        0.291602 
        2.39916        0.468646        0.289814 
        2.40529        0.467427         0.28804 
        2.41143        0.463661        0.286281 
        2.41757        0.461923        0.284535 
         2.4237        0.459602        0.282807 
        2.42983        0.458268        0.281093 
        2.43598        0.455536         0.27939 
        2.44211        0.452127        0.277703 
        2.44823        0.451783        0.276034 
        2.45437        0.449307        0.274374 
        2.46052        0.447133        0.272727 
        2.46665        0.444535        0.271096 
        2.47279        0.442524        0.269479 
        2.47892        0.440921        0.267875 
        2.48507        0.438755        0.266281 
         2.4912        0.436917        0.264704 
