# k  (h/Mpc)    Pcb(k)  (Mpc/h)^3    Pcb_linear(k)  (Mpc/h)^3
     0.00783031         8252.31         8287.21 
       0.013688         10767.9         11000.9 
       0.019231         11679.6         11828.2 
      0.0249154         11556.6           11571 
      0.0312784           10475         10594.6 
      0.0375637         9251.54         9424.15 
      0.0433917         8357.18         8432.56 
      0.0492413         7504.01         7637.68 
      0.0555754         6926.76         7007.25 
      0.0619321          6294.5         6547.47 
       0.067871         6024.53         6190.08 
      0.0738098         5701.77         5832.57 
      0.0800417            5300         5415.35 
      0.0862327         4825.44         4955.67 
      0.0921407         4395.26         4502.16 
      0.0982031         4014.26         4061.44 
       0.104506         3588.57         3666.58 
       0.110769         3305.48         3357.71 
       0.116806         3148.74         3137.49 
       0.122832         2954.07         2977.15 
       0.129052         2825.65         2848.23 
       0.135211          2747.9         2730.48 
       0.141259          2582.6         2604.83 
       0.147318         2408.18         2460.38 
       0.153489         2278.82         2296.82 
       0.159709         2170.27         2126.67 
       0.165845         1975.92         1967.72 
       0.171974         1913.45         1829.36 
       0.178125          1832.5         1716.87 
       0.184229         1697.04         1630.89 
        0.19034          1667.4         1564.95 
       0.196428         1621.03         1510.98 
       0.202534          1529.1         1459.99 
       0.208729         1504.57         1404.66 
       0.214876         1448.65         1342.95 
       0.220989         1364.37          1275.5 
       0.227147         1331.48         1204.99 
        0.23329         1278.82         1136.82 
       0.239377         1257.59         1075.63 
       0.245482         1194.73         1023.09 
       0.251667          1149.6         979.291 
       0.257832         1136.76         943.616 
       0.263955          1082.4         913.387 
       0.270079         1053.11         885.284 
        0.27624         1010.87         856.665 
       0.282372         995.016         826.334 
        0.28843         986.001         794.404 
       0.294538         937.545         761.123 
       0.300721         912.719         727.816 
        0.30691         896.699         696.445 
       0.313033         860.056         668.435 
       0.319153         847.667         643.925 
       0.325316         834.874         622.456 
        0.33145         818.807         603.569 
       0.337538         791.049         586.228 
       0.343633         770.219         569.356 
       0.349808         753.373         552.079 
       0.355968         740.108         534.383 
       0.362074         718.044         516.539 
       0.368217         714.465         498.668 
       0.374374         702.307         481.386 
       0.380519         676.378         465.179 
       0.386598         670.005         450.453 
       0.392688         656.853         437.027 
        0.39888         639.683         424.534 
       0.405048         630.012         412.976 
       0.411186         627.194         401.978 
       0.417313         621.484         391.211 
       0.423458         602.768         380.485 
       0.429607         587.671         369.757 
       0.435692         579.671         359.237 
       0.441815         570.682         348.908 
       0.447964          560.24         338.933 
       0.454126         553.457         329.454 
       0.460267         545.127         320.602 
       0.466387         537.463         312.325 
        0.47254         529.175         304.465 
       0.478662         518.535         297.008 
       0.484765         513.935         289.828 
       0.490885         508.654          282.78 
       0.497035         499.524         275.808 
       0.503198         498.791         268.952 
       0.509342         487.048         262.267 
       0.515458         479.746         255.795 
       0.521598         472.914         249.529 
       0.527764         465.514         243.512 
       0.533884         464.066         237.814 
           0.54         457.579         232.366 
       0.546137         448.701         227.114 
       0.552299         448.139         222.029 
       0.558452         441.484         217.106 
       0.564573         436.596         212.332 
       0.570708         432.118         207.645 
       0.576825         424.362         203.078 
       0.582926         421.297         198.643 
       0.589034         415.873         194.334 
       0.595184         413.082         190.137 
       0.601379         406.245          186.05 
       0.607522         399.884         182.135 
       0.613639          397.96         178.368 
       0.619772          396.17         174.717 
       0.625918         390.262          171.17 
       0.632068         385.327         167.718 
       0.638161         381.919         164.382 
         0.6443         379.153         161.099 
       0.650464         373.991         157.884 
       0.656582         370.665         154.775 
       0.662703         368.132         151.751 
       0.668861         362.744         148.797 
       0.675024         360.541         145.927 
       0.681124         356.832         143.168 
       0.687237         353.782         140.478 
       0.693381         350.351         137.847 
       0.699536         346.721         135.279 
       0.705665         343.447         132.788 
       0.711789         341.781         130.362 
       0.717957         337.148          127.98 
        0.72409         334.283         125.671 
       0.730186         335.771         123.432 
       0.736317         329.649         121.236 
       0.742472         325.916         119.085 
       0.748622         322.424         116.989 
        0.75476         322.491         114.948 
       0.760888         318.836         112.961 
       0.767043         315.813         111.014 
       0.773185         314.208         109.118 
       0.779291         309.251         107.278 
       0.785407         308.484          105.48 
       0.791564         305.179         103.711 
       0.797719         300.911         101.985 
       0.803834         303.149          100.31 
       0.809972         299.376         98.6661 
       0.816124         295.801         97.0559 
       0.822261         292.724         95.4861 
       0.828378         292.959         93.9562 
       0.834502         288.273         92.4587 
       0.840667         288.109         90.9846 
       0.846816         283.915         89.5472 
       0.852925         283.039         88.1503 
       0.859047         280.108         86.7807 
       0.865192         280.001         85.4361 
       0.871341         276.099         84.1195 
       0.877463         273.626         82.8371 
       0.883569         273.079         81.5849 
       0.889708         270.773         80.3526 
       0.895864         268.717          79.143 
       0.902008         266.536         77.9611 
       0.908149         264.331         76.8043 
       0.914301         263.187         75.6694 
       0.920448          261.68         74.5588 
       0.926574         259.549         73.4746 
       0.932687         257.905         72.4146 
       0.938823         255.885          71.372 
       0.944975          254.32         70.3477 
       0.951105         252.097         69.3474 
       0.957225         250.452         68.3685 
       0.963368         249.479         67.4054 
       0.969511         245.735         66.4611 
       0.975621         244.909         65.5401 
       0.981748         243.326         64.6344 
       0.987916         242.213         63.7403 
        0.99406         240.196         62.8667 
        1.00019         238.772         62.0114 
        1.00632         237.987         61.1729 
        1.01246         236.173         60.3489 
        1.01859         233.748         59.5415 
        1.02471         232.002         58.7501 
        1.03085         231.286         57.9704 
        1.03698         229.362         57.2067 
        1.04314         229.032         56.4537 
        1.04929         227.433         55.7161 
        1.05541         225.591         54.9949 
        1.06154          224.16         54.2847 
        1.06769         222.027         53.5861 
        1.07382         221.849         52.9023 
        1.07993         219.617         52.2321 
        1.08607         217.834         51.5708 
        1.09222         217.002         50.9204 
        1.09836         215.815         50.2822 
        1.10449         213.756         49.6557 
        1.11063         212.625         49.0393 
        1.11677         211.792         48.4336 
         1.1229         210.011         47.8394 
        1.12903         209.393         47.2547 
        1.13518         207.834         46.6794 
        1.14131         206.726         46.1141 
        1.14745         204.796         45.5586 
        1.15359         202.952         45.0122 
        1.15973         202.624         44.4747 
        1.16584         201.792         43.9484 
        1.17197         200.391         43.4299 
        1.17811           198.5         42.9184 
        1.18424         197.574         42.4166 
        1.19038         196.344         41.9215 
        1.19652          194.77         41.4345 
        1.20267         193.993         40.9554 
        1.20881         192.545          40.484 
        1.21495         192.205         40.0209 
        1.22108         190.608         39.5651 
         1.2272         189.169         39.1176 
        1.23334          188.53          38.676 
        1.23949         187.923         38.2403 
        1.24562         186.378         37.8125 
        1.25174         184.907          37.392 
        1.25789         183.956         36.9767 
        1.26402         183.501         36.5684 
        1.27014         182.323         36.1674 
        1.27628         180.149         35.7712 
        1.28244         179.792         35.3803 
        1.28858         178.672         34.9957 
        1.29471         177.642         34.6178 
        1.30084         176.529         34.2459 
        1.30697         175.643         33.8789 
        1.31312         174.495         33.5168 
        1.31925         173.069         33.1612 
        1.32537         172.775         32.8112 
        1.33151         171.624          32.465 
        1.33765         169.992          32.124 
        1.34378         169.963         31.7887 
        1.34992          169.04         31.4579 
        1.35606         167.777         31.1312 
         1.3622         167.239         30.8097 
        1.36833         165.362         30.4936 
        1.37445         165.228         30.1821 
        1.38059         163.928         29.8741 
        1.38675         163.088         29.5696 
        1.39288         162.002         29.2706 
        1.39901         160.994          28.976 
        1.40515         160.319         28.6847 
         1.4113         159.543         28.3976 
        1.41742         158.188         28.1156 
        1.42355         158.028         27.8369 
         1.4297         156.639         27.5612 
        1.43585         155.656         27.2893 
        1.44198         154.406         27.0222 
        1.44809         153.452         26.7592 
        1.45423         153.306         26.4987 
        1.46036         152.114         26.2423 
        1.46649         151.095         25.9891 
        1.47263         150.717         25.7391 
        1.47877         149.384         25.4925 
        1.48491         148.557         25.2488 
        1.49104         147.023         25.0088 
        1.49718         147.234         24.7718 
        1.50333          146.31         24.5375 
        1.50947         145.464         24.3067 
         1.5156         144.495         24.0793 
        1.52172          143.71         23.8548 
        1.52787         142.953         23.6328 
          1.534         142.353         23.4138 
        1.54013         141.486         23.1979 
        1.54627         140.486         22.9843 
        1.55241         139.798         22.7734 
        1.55855         139.094         22.5654 
        1.56467         137.992         22.3607 
         1.5708         137.374         22.1579 
        1.57695         136.795         21.9574 
        1.58308         135.956         21.7598 
        1.58922         135.632         21.5645 
        1.59535         134.955         21.3717 
         1.6015         133.506          21.181 
        1.60764         132.783         20.9927 
        1.61376         132.196         20.8073 
        1.61989         131.582          20.624 
        1.62604         130.772         20.4425 
        1.63218         130.306         20.2633 
        1.63831         129.222         20.0866 
        1.64444         128.505         19.9121 
        1.65059         127.689         19.7392 
        1.65673         127.277         19.5685 
        1.66285          126.76         19.4004 
        1.66898         125.618         19.2342 
        1.67512         125.281         19.0696 
        1.68127         124.396         18.9069 
         1.6874         123.645         18.7464 
        1.69353         122.852         18.5878 
        1.69967         122.535         18.4308 
        1.70581         121.969         18.2756 
        1.71193         121.092         18.1229 
        1.71806         120.336         17.9715 
        1.72421         119.748         17.8216 
        1.73035         119.288         17.6736 
        1.73649         118.424         17.5273 
        1.74262          117.88         17.3828 
        1.74876         117.074         17.2399 
        1.75489         116.605         17.0988 
        1.76101         115.893         16.9594 
        1.76715          115.06         16.8214 
        1.77329         114.685         16.6847 
        1.77943         113.799         16.5495 
        1.78557         113.419         16.4161 
        1.79171         112.883          16.284 
        1.79785         111.996         16.1534 
        1.80399         111.639         16.0243 
        1.81012         110.835         15.8968 
        1.81625          110.41         15.7707 
        1.82239         109.949         15.6458 
        1.82853         109.274         15.5223 
        1.83466         108.369         15.4003 
        1.84078         107.929         15.2798 
        1.84692         107.676         15.1603 
        1.85306         106.964          15.042 
         1.8592         106.542         14.9251 
        1.86533         105.795         14.8096 
        1.87147         105.159         14.6951 
        1.87761         104.618         14.5818 
        1.88375          103.91         14.4699 
        1.88988         103.208         14.3592 
        1.89601         103.017         14.2497 
        1.90215           102.3         14.1412 
        1.90829         101.617         14.0339 
        1.91442         101.322         13.9277 
        1.92056         100.729         13.8227 
         1.9267         100.194         13.7187 
        1.93284          99.707         13.6157 
        1.93897         99.2912          13.514 
        1.94509         98.4845         13.4136 
        1.95123         98.1011         13.3139 
        1.95737         97.5282         13.2151 
        1.96349         97.0577         13.1176 
        1.96964         96.6569         13.0209 
        1.97578         95.9383          12.925 
        1.98192         95.4133         12.8304 
        1.98805         94.9656         12.7366 
        1.99419         94.4236         12.6438 
        2.00033         93.7431         12.5519 
        2.00647          93.592          12.461 
         2.0126         93.0647         12.3711 
        2.01874         92.6288         12.2819 
        2.02488         92.0418         12.1936 
        2.03101         91.6715         12.1063 
        2.03714         91.1845         12.0199 
        2.04328         90.5895         11.9343 
        2.04941         89.9697         11.8496 
        2.05554         89.7635         11.7658 
        2.06167         89.0794         11.6827 
        2.06781         88.5578         11.6004 
        2.07396         88.3085         11.5187 
        2.08009         87.8309          11.438 
        2.08622          87.368         11.3582 
        2.09237         86.9256         11.2789 
        2.09851         86.2855         11.2005 
        2.10464         86.0514         11.1229 
        2.11077         85.5311         11.0461 
        2.11691         85.2489         10.9699 
        2.12305         84.6961         10.8944 
        2.12918          84.171         10.8198 
        2.13531         83.8312         10.7459 
        2.14145         83.1351         10.6725 
         2.1476           82.89         10.5997 
        2.15372         82.5258          10.528 
        2.15985         81.9845         10.4569 
        2.16599         81.5509         10.3862 
        2.17213         81.2717         10.3163 
        2.17827         80.6272          10.247 
         2.1844         80.2823         10.1784 
        2.19054         80.0342         10.1105 
        2.19666         79.3912         10.0432 
         2.2028         79.0979         9.97653 
        2.20893         78.5967         9.91042 
        2.21508          78.187         9.84483 
        2.22122         77.7082         9.77982 
        2.22736           77.39         9.71554 
        2.23349         77.0584         9.65184 
        2.23962         76.7755         9.58869 
        2.24577         76.1952         9.52606 
         2.2519         75.8196         9.46407 
        2.25802         75.4388         9.40273 
        2.26417         74.9433         9.34177 
        2.27031         74.6002          9.2813 
        2.27644         74.3021         9.22154 
        2.28257         73.9724         9.16232 
        2.28872         73.5879          9.1035 
        2.29486         73.3169         9.04522 
        2.30099         72.6576         8.98756 
        2.30712         72.5494         8.93039 
        2.31326         72.1294         8.87362 
         2.3194         71.6298         8.81738 
        2.32553         71.3824         8.76173 
        2.33166         70.8285         8.70658 
         2.3378         70.6106         8.65183 
        2.34394          70.317         8.59754 
        2.35007         69.9306          8.5438 
        2.35619         69.5225         8.49058 
        2.36233         69.1882         8.43769 
        2.36848         68.8008         8.38514 
        2.37462         68.3935         8.33316 
        2.38075         68.1294         8.28167 
        2.38689         67.8256         8.23057 
        2.39303         67.4514         8.17992 
        2.39916         67.1886         8.12974 
        2.40529         66.7397         8.07999 
        2.41143         66.4456         8.03063 
        2.41757         66.0399         7.98165 
         2.4237         65.8785         7.93318 
        2.42983         65.3406         7.88512 
        2.43598          65.109         7.83733 
        2.44211         64.6923         7.79001 
        2.44823         64.4375          7.7432 
        2.45437         64.1277         7.69664 
        2.46052         63.7669         7.65043 
        2.46665         63.3419         7.60468 
        2.47279         63.1617         7.55932 
        2.47892         62.8547         7.51431 
        2.48507         62.4247         7.46962 
         2.4912          62.224         7.42538 
