# k  (h/Mpc)    P(k)  (Mpc/h)^3    P_linear(k)  (Mpc/h)^3
     0.00783031         6390.25         6433.03 
       0.013688         8257.35         8428.13 
       0.019231         8917.08          9022.6 
      0.0249154         8820.12         8832.02 
      0.0312784         8056.53         8135.35 
      0.0375637         7197.12         7312.22 
      0.0433917         6571.94         6619.26 
      0.0492413         5968.29         6059.98 
      0.0555754         5547.86         5600.81 
      0.0619321         5061.98         5238.52 
       0.067871         4820.39         4930.43 
      0.0738098         4526.03         4610.47 
      0.0800417         4177.92         4246.14 
      0.0862327         3788.76         3867.03 
      0.0921407         3450.78         3515.52 
      0.0982031         3165.24          3192.7 
       0.104506          2859.9         2916.56 
       0.110769         2661.36         2705.57 
       0.116806         2551.05         2551.79 
       0.122832         2398.15         2429.07 
       0.129052         2290.75         2314.54 
       0.135211         2206.24         2197.42 
       0.141259         2059.21         2071.67 
       0.147318         1905.27         1936.64 
       0.153489         1794.72         1797.75 
       0.159709         1704.67         1666.69 
       0.165845          1559.7         1554.24 
       0.171974         1517.79         1462.21 
       0.178125         1459.07         1388.96 
       0.184229         1361.45         1330.32 
        0.19034         1334.97          1279.1 
       0.196428         1293.19         1229.43 
       0.202534         1214.45         1176.92 
       0.208729         1187.61         1119.66 
       0.214876         1139.65         1060.38 
       0.220989         1067.03         1002.08 
       0.227147         1042.09          947.37 
        0.23329         1002.52         899.192 
       0.239377         983.632         858.585 
       0.245482         936.166         824.291 
       0.251667         901.576         794.317 
       0.257832          892.77         766.919 
       0.263955         847.461         740.188 
       0.270079         821.961         712.723 
        0.27624         787.382         684.082 
       0.282372         771.372         655.176 
        0.28843          764.92         627.224 
       0.294538          726.96         600.714 
       0.300721         704.778         576.343 
        0.30691         693.874         554.664 
       0.313033         666.083         535.645 
       0.319153         655.748         518.417 
       0.325316         643.203         502.132 
        0.33145         630.036         486.326 
       0.337538         608.541         470.642 
       0.343633         591.059          454.86 
       0.349808         576.695          438.96 
       0.355968         565.935         423.523 
       0.362074         550.323          408.96 
       0.368217         545.491         395.315 
       0.374374         535.282         382.701 
       0.380519         514.941         371.106 
       0.386598         508.777          360.41 
       0.392688         498.955         350.219 
        0.39888         485.895         340.187 
       0.405048         478.522         330.372 
       0.411186         475.479         320.732 
       0.417313          468.64         311.292 
       0.423458         455.226         302.086 
       0.429607         445.054          293.24 
       0.435692         437.393         284.937 
       0.441815         430.792         277.042 
       0.447964         421.204         269.555 
       0.454126         415.713         262.445 
       0.460267         409.942          255.66 
       0.466387         403.596         249.115 
        0.47254         398.219         242.708 
       0.478662         388.293         236.487 
       0.484765          384.49          230.43 
       0.490885         380.441         224.527 
       0.497035         374.577         218.799 
       0.503198          372.33         213.291 
       0.509342         362.619         208.027 
       0.515458          358.52         203.006 
       0.521598         351.679         198.173 
       0.527764         347.269           193.5 
       0.533884         346.806         189.011 
           0.54         340.419         184.649 
       0.546137         333.177         180.388 
       0.552299          332.32         176.229 
       0.558452         327.094         172.196 
       0.564573         324.066         168.302 
       0.570708         319.142         164.524 
       0.576825         314.064         160.884 
       0.582926         311.017         157.382 
       0.589034         307.374         153.994 
       0.595184         305.567         150.691 
       0.601379         299.698         147.464 
       0.607522          295.15         144.352 
       0.613639          293.16         141.338 
       0.619772         291.277         138.399 
       0.625918          288.09         135.536 
       0.632068         282.773         132.751 
       0.638161         280.109          130.07 
         0.6443          278.87         127.445 
       0.650464         274.338         124.886 
       0.656582         272.301          122.42 
       0.662703          270.37         120.023 
       0.668861         265.803         117.679 
       0.675024         265.137         115.398 
       0.681124         261.803         113.201 
       0.687237          258.93         111.055 
       0.693381         257.083         108.953 
       0.699536         253.903           106.9 
       0.705665         251.173         104.909 
       0.711789         249.119         102.971 
       0.717957         246.414          101.07 
        0.72409         244.707         99.2289 
       0.730186         244.799         97.4466 
       0.736317         240.632         95.6997 
       0.742472         237.603         93.9901 
       0.748622         234.564         92.3243 
        0.75476         235.228         90.7026 
       0.760888         232.623          89.122 
       0.767043         229.716         87.5727 
       0.773185         227.885         86.0633 
       0.779291         224.969         84.5982 
       0.785407         223.798         83.1653 
       0.791564         221.912         81.7569 
       0.797719         219.101         80.3822 
       0.803834         219.562         79.0484 
       0.809972         218.077         77.7407 
       0.816124         215.234         76.4601 
       0.822261         212.945         75.2122 
       0.828378         213.177         73.9963 
       0.834502         209.419         72.8066 
       0.840667         209.043         71.6355 
       0.846816         206.913         70.4938 
       0.852925         205.267         69.3842 
       0.859047         203.296         68.2964 
       0.865192          202.69         67.2286 
       0.871341         200.093          66.183 
       0.877463         198.724         65.1646 
       0.883569         198.491         64.1704 
       0.889708         197.021         63.1921 
       0.895864         195.098         62.2318 
       0.902008         193.515         61.2937 
       0.908149         191.386         60.3756 
       0.914301         191.443          59.475 
       0.920448         190.026         58.5938 
       0.926574         187.787         57.7337 
       0.932687         187.178         56.8929 
       0.938823          185.76         56.0659 
       0.944975         183.857         55.2536 
       0.951105         182.723         54.4604 
       0.957225         182.379         53.6842 
       0.963368         180.483         52.9206 
       0.969511         178.683          52.172 
       0.975621         177.669          51.442 
       0.981748          176.26         50.7242 
       0.987916         175.486         50.0157 
        0.99406         174.429         49.3234 
        1.00019         173.132         48.6458 
        1.00632          172.51         47.9815 
        1.01246         171.111         47.3288 
        1.01859         169.804         46.6894 
        1.02471         168.564         46.0626 
        1.03085         167.516         45.4452 
        1.03698          166.38         44.8406 
        1.04314         165.682         44.2445 
        1.04929         165.013         43.6606 
        1.05541         163.865         43.0898 
        1.06154         162.924         42.5278 
        1.06769         161.296          41.975 
        1.07382         160.492          41.434 
        1.07993          159.73         40.9038 
        1.08607          158.29         40.3808 
        1.09222         157.873         39.8664 
        1.09836         156.321         39.3617 
        1.10449         155.319         38.8664 
        1.11063         154.441         38.3791 
        1.11677         153.728         37.9004 
         1.1229         152.521         37.4308 
        1.12903         152.123         36.9687 
        1.13518         151.111         36.5141 
        1.14131         150.259         36.0675 
        1.14745         149.032         35.6286 
        1.15359         147.683         35.1971 
        1.15973         147.235         34.7725 
        1.16584         146.422         34.3569 
        1.17197         145.687         33.9475 
        1.17811         144.575         33.5435 
        1.18424           143.7         33.1474 
        1.19038         143.343         32.7565 
        1.19652         142.108         32.3721 
        1.20267         141.271          31.994 
        1.20881         140.448         31.6219 
        1.21495         140.119         31.2564 
        1.22108         138.926         30.8968 
         1.2272         137.967         30.5437 
        1.23334         137.574         30.1954 
        1.23949         136.983         29.8517 
        1.24562         135.717         29.5143 
        1.25174         134.677         29.1826 
        1.25789         134.681         28.8551 
        1.26402         133.703         28.5332 
        1.27014         132.987          28.217 
        1.27628         131.588         27.9047 
        1.28244         131.413         27.5966 
        1.28858         130.415         27.2935 
        1.29471         129.671         26.9957 
        1.30084         128.993         26.7026 
        1.30697         128.812         26.4135 
        1.31312         127.757         26.1282 
        1.31925         126.904         25.8481 
        1.32537         126.313         25.5724 
        1.33151         126.025         25.2997 
        1.33765         124.713         25.0312 
        1.34378         124.753         24.7672 
        1.34992         124.031         24.5068 
        1.35606         123.092         24.2496 
         1.3622          122.74         23.9965 
        1.36833         121.529         23.7477 
        1.37445         120.978         23.5026 
        1.38059         120.541         23.2602 
        1.38675         119.636         23.0207 
        1.39288          119.28         22.7855 
        1.39901         118.067         22.5537 
        1.40515         118.019         22.3246 
         1.4113         117.344         22.0988 
        1.41742         116.545          21.877 
        1.42355         115.949         21.6579 
         1.4297         115.312         21.4411 
        1.43585         114.522         21.2274 
        1.44198         113.968         21.0174 
        1.44809         113.289         20.8107 
        1.45423         112.755         20.6059 
        1.46036         111.902         20.4044 
        1.46649         111.487         20.2054 
        1.47263         111.079          20.009 
        1.47877         110.462         19.8152 
        1.48491         109.677         19.6238 
        1.49104         108.804         19.4352 
        1.49718         108.754          19.249 
        1.50333         108.079          19.065 
        1.50947         107.705         18.8838 
         1.5156          107.07         18.7052 
        1.52172         106.365         18.5289 
        1.52787         105.693         18.3545 
          1.534         105.503         18.1826 
        1.54013         104.942         18.0131 
        1.54627         104.043         17.8455 
        1.55241         103.517           17.68 
        1.55855         103.194         17.5168 
        1.56467         102.205         17.3561 
         1.5708         102.033          17.197 
        1.57695         101.572         17.0397 
        1.58308         101.022         16.8847 
        1.58922         100.616         16.7315 
        1.59535         100.112         16.5803 
         1.6015         99.7603         16.4308 
        1.60764         99.1166         16.2832 
        1.61376          98.445         16.1378 
        1.61989         97.7196         15.9941 
        1.62604         97.4154         15.8518 
        1.63218         97.1086         15.7113 
        1.63831         96.4595         15.5729 
        1.64444          96.038         15.4361 
        1.65059         95.5571         15.3006 
        1.65673         94.8169         15.1669 
        1.66285         94.3511         15.0352 
        1.66898         93.7589          14.905 
        1.67512         93.6585         14.7761 
        1.68127         93.0698         14.6486 
         1.6874         92.5204         14.5229 
        1.69353         92.1028         14.3987 
        1.69967         91.7949         14.2757 
        1.70581         91.2588         14.1542 
        1.71193         90.7604         14.0346 
        1.71806         90.0663         13.9161 
        1.72421          89.812         13.7987 
        1.73035         89.5994         13.6829 
        1.73649         88.9583         13.5684 
        1.74262         88.2101         13.4553 
        1.74876         88.0201         13.3434 
        1.75489         87.3128          13.233 
        1.76101         86.9561         13.1239 
        1.76715          86.809         13.0159 
        1.77329         86.0486          12.909 
        1.77943         85.8421         12.8033 
        1.78557         85.5264         12.6989 
        1.79171         84.9094         12.5956 
        1.79785         84.4983         12.4935 
        1.80399         84.0771         12.3925 
        1.81012         83.6207         12.2928 
        1.81625         83.4215         12.1942 
        1.82239         83.0792         12.0966 
        1.82853         82.4444              12 
        1.83466         82.0386         11.9047 
        1.84078         81.6302         11.8104 
        1.84692         81.3278         11.7171 
        1.85306         80.9316         11.6246 
         1.8592         80.5484         11.5333 
        1.86533         79.9745          11.443 
        1.87147         79.6236         11.3536 
        1.87761         79.1461         11.2651 
        1.88375         78.7345         11.1777 
        1.88988         78.4508         11.0912 
        1.89601         77.9509         11.0057 
        1.90215         77.6083          10.921 
        1.90829         77.3745         10.8372 
        1.91442         76.9352         10.7543 
        1.92056         76.4617         10.6723 
         1.9267         76.1582         10.5911 
        1.93284         75.9627         10.5107 
        1.93897         75.5384         10.4313 
        1.94509         75.0516         10.3529 
        1.95123          74.714         10.2751 
        1.95737         74.1747         10.1981 
        1.96349         73.8793          10.122 
        1.96964         73.5361         10.0465 
        1.97578         73.1623          9.9717 
        1.98192         72.8652         9.89784 
        1.98805         72.4504         9.82472 
        1.99419         72.0625         9.75234 
        2.00033         71.6497         9.68066 
        2.00647         71.4601         9.60972 
         2.0126         71.0204         9.53961 
        2.01874         70.7057         9.47009 
        2.02488         70.3943         9.40121 
        2.03101         70.0467         9.33314 
        2.03714         69.8486         9.26581 
        2.04328         69.4074         9.19907 
        2.04941         68.9571         9.13304 
        2.05554          68.788         9.06772 
        2.06167         68.5895         9.00294 
        2.06781         67.8847         8.93878 
        2.07396         67.6448         8.87517 
        2.08009         67.4956         8.81228 
        2.08622         67.0502         8.75007 
        2.09237          66.653         8.68835 
        2.09851         66.3285         8.62721 
        2.10464         66.0701         8.56676 
        2.11077         65.7674         8.50696 
        2.11691         65.3795          8.4476 
        2.12305         65.0571         8.38881 
        2.12918         64.7599         8.33072 
        2.13531         64.4983         8.27318 
        2.14145         64.0657         8.21605 
         2.1476         63.8225         8.15939 
        2.15372         63.6017         8.10355 
        2.15985         63.1931         8.04818 
        2.16599         62.9146         7.99317 
        2.17213         62.6772         7.93874 
        2.17827         62.3281         7.88482 
         2.1844         62.0083         7.83146 
        2.19054         61.6954         7.77857 
        2.19666         61.2853         7.72625 
         2.2028          61.142         7.67436 
        2.20893         60.7197         7.62293 
        2.21508         60.4769          7.5719 
        2.22122         60.1892         7.52133 
        2.22736          59.869         7.47133 
        2.23349         59.7341          7.4218 
        2.23962         59.2836         7.37268 
        2.24577         59.1794         7.32398 
         2.2519         58.7401         7.27577 
        2.25802         58.5292         7.22808 
        2.26417         58.2285         7.18069 
        2.27031         57.9672         7.13368 
        2.27644         57.6845         7.08722 
        2.28257         57.3376         7.04118 
        2.28872         57.2486         6.99547 
        2.29486         56.9463         6.95017 
        2.30099         56.5028         6.90537 
        2.30712          56.396         6.86094 
        2.31326         55.9776         6.81683 
         2.3194         55.7373         6.77313 
        2.32553         55.6133         6.72989 
        2.33166         55.1187         6.68705 
         2.3378         54.8622         6.64452 
        2.34394         54.7012         6.60235 
        2.35007         54.3511          6.5606 
        2.35619         54.2867         6.51927 
        2.36233         53.8384         6.47819 
        2.36848         53.6306         6.43739 
        2.37462         53.4101         6.39702 
        2.38075         53.2123         6.35704 
        2.38689         52.9588         6.31737 
        2.39303         52.7757         6.27804 
        2.39916         52.4426         6.23909 
        2.40529         52.1691         6.20048 
        2.41143         51.9187         6.16216 
        2.41757         51.6471         6.12415 
         2.4237         51.5143         6.08653 
        2.42983         51.1637         6.04923 
        2.43598         50.8776         6.01214 
        2.44211         50.7515         5.97543 
        2.44823         50.4951         5.93911 
        2.45437         50.2677         5.90299 
        2.46052         49.9073         5.86714 
        2.46665         49.7247         5.83165 
        2.47279         49.4848         5.79647 
        2.47892         49.2739         5.76155 
        2.48507         49.0508         5.72689 
         2.4912         48.7991         5.69258 
