# k  (h/Mpc)    P(k)  (Mpc/h)^3    P_linear(k)  (Mpc/h)^3
     0.00783031           13085         13289.2 
       0.013688           14870         14762.1 
       0.019231         13703.4           13657 
      0.0249154         11385.1         11557.7 
      0.0312784         9110.17          9144.4 
      0.0375637         7318.02         7263.76 
      0.0433917         6049.45         6082.22 
      0.0492413         5356.63         5343.67 
      0.0555754         4775.83         4856.83 
      0.0619321         4540.55         4491.45 
       0.067871         4077.19         4128.99 
      0.0738098         3660.14         3697.72 
      0.0800417         3153.27         3196.94 
      0.0862327         2724.64         2717.93 
      0.0921407         2390.71         2336.12 
      0.0982031         2086.93         2049.01 
       0.104506         1944.94         1857.85 
       0.110769         1815.29         1745.92 
       0.116806         1724.53         1672.87 
       0.122832         1650.53         1599.17 
       0.129052         1521.31         1499.69 
       0.135211         1407.61          1374.3 
       0.141259         1303.37         1237.59 
       0.147318         1188.86         1105.81 
       0.153489          1068.9         992.889 
       0.159709         997.458         908.472 
       0.165845         950.794         852.474 
       0.171974         902.547         815.587 
       0.178125          866.48         786.941 
       0.184229         831.276          757.15 
        0.19034         775.407         720.218 
       0.196428         749.508         675.693 
       0.202534         713.371         626.786 
       0.208729         665.837         578.283 
       0.214876         625.488         536.039 
       0.220989         597.825          502.32 
       0.227147         569.702         476.649 
        0.23329         546.097         457.245 
       0.239377         533.605         441.134 
       0.245482         497.255         425.278 
       0.251667         491.483         407.661 
       0.257832         471.048         388.059 
       0.263955         451.906         367.395 
       0.270079         430.966         346.949 
        0.27624         422.515         328.014 
       0.282372         405.557         311.692 
        0.28843         392.646         298.166 
       0.294538         372.931         286.725 
       0.300721         369.283          276.54 
        0.30691         352.167         266.897 
       0.313033         344.059         257.243 
       0.319153         331.476          247.26 
       0.325316         322.066         236.956 
        0.33145         310.697         226.822 
       0.337538         305.005         217.254 
       0.343633         294.272         208.483 
       0.349808         283.596         200.505 
       0.355968         279.682         193.404 
       0.362074         273.783         186.989 
       0.368217         265.784         180.913 
       0.374374         254.607         175.003 
       0.380519         251.836         169.143 
       0.386598         244.978         163.392 
       0.392688          241.59         157.732 
        0.39888         234.985          152.18 
       0.405048          228.81         146.959 
       0.411186         224.126         142.109 
       0.417313         219.391         137.605 
       0.423458         214.401         133.391 
       0.429607         210.166         129.399 
       0.435692         203.898         125.601 
       0.441815         201.777         121.891 
       0.447964         197.454         118.256 
       0.454126         190.483         114.702 
       0.460267         187.573         111.277 
       0.466387         185.077         108.004 
        0.47254         180.664         104.865 
       0.478662         179.983         101.896 
       0.484765         173.432         99.0848 
       0.490885           171.1         96.3953 
       0.497035         168.263         93.7978 
       0.503198         164.393          91.282 
       0.509342         162.476         88.8532 
       0.515458         159.924         86.5104 
       0.521598         156.407         84.2311 
       0.527764         154.515         82.0185 
       0.533884         152.313          79.903 
           0.54         149.635          77.873 
       0.546137         148.423         75.9172 
       0.552299         145.333         74.0276 
       0.558452         143.717         72.2082 
       0.564573         141.384         70.4584 
       0.570708         138.269         68.7612 
       0.576825         136.552         67.1228 
       0.582926         134.051         65.5393 
       0.589034         132.582         64.0024 
       0.595184         130.948         62.5035 
       0.601379         128.904          61.043 
       0.607522         126.627         59.6428 
       0.613639         125.557         58.2953 
       0.619772          123.02         56.9884 
       0.625918         121.683         55.7202 
       0.632068         120.083         54.4899 
       0.638161         119.053         53.3068 
         0.6443         117.336         52.1492 
       0.650464         116.171         51.0211 
       0.656582           114.2         49.9342 
       0.662703         113.256         48.8789 
       0.668861         111.222         47.8488 
       0.675024         109.784         46.8483 
       0.681124         109.054          45.887 
       0.687237         107.147         44.9511 
       0.693381         105.498          44.037 
       0.699536         104.804         43.1468 
       0.705665         104.214         42.2849 
       0.711789          102.23         41.4472 
       0.717957         102.022         40.6266 
        0.72409         100.216         39.8327 
       0.730186         98.8065          39.065 
       0.736317         97.9741         38.3135 
       0.742472         97.2192         37.5792 
       0.748622         96.1543         36.8651 
        0.75476         95.1875         36.1711 
       0.760888         93.9809         35.4962 
       0.767043         93.4629         34.8359 
       0.773185         92.4702         34.1938 
       0.779291         90.8328         33.5716 
       0.785407         90.3875         32.9639 
       0.791564         89.7682         32.3675 
       0.797719         87.9061         31.7862 
       0.803834          87.531         31.2229 
       0.809972         86.6435         30.6712 
       0.816124         86.1226         30.1317 
       0.822261         85.3177         29.6067 
       0.828378         84.5897         29.0958 
       0.834502         84.0463         28.5966 
       0.840667         82.7998         28.1059 
       0.846816         81.8117         27.6282 
       0.852925         81.3366         27.1646 
       0.859047         80.3222         26.7107 
       0.865192         79.7564         26.2657 
       0.871341         79.0744         25.8306 
       0.877463          78.051         25.4074 
       0.883569         77.8674         24.9947 
       0.889708         77.0401          24.589 
       0.895864         76.3716         24.1914 
       0.902008         75.7398         23.8034 
       0.908149         75.3034         23.4242 
       0.914301         74.4854         23.0526 
       0.920448         73.9022         22.6895 
       0.926574         73.2674         22.3354 
       0.932687         73.2327         21.9897 
       0.938823         72.0511         21.6501 
       0.944975         71.2872         21.3169 
       0.951105         70.8511         20.9919 
       0.957225         70.1922         20.6743 
       0.963368         69.5433         20.3622 
       0.969511         69.4266         20.0565 
       0.975621         68.9621         19.7588 
       0.981748         68.3613         19.4664 
       0.987916         67.6669          19.178 
        0.99406         67.2106         18.8966 
        1.00019         66.8442         18.6214 
        1.00632          66.189          18.352 
        1.01246          65.859         18.0875 
        1.01859         65.0505         17.8286 
        1.02471         64.6554         17.5751 
        1.03085         64.1099         17.3257 
        1.03698         63.8685         17.0817 
        1.04314         63.2598         16.8413 
        1.04929         62.8385         16.6061 
        1.05541         62.1981         16.3764 
        1.06154         62.1335         16.1505 
        1.06769         61.7146         15.9284 
        1.07382         61.2895         15.7113 
        1.07993         60.8773         15.4987 
        1.08607         60.3739         15.2892 
        1.09222         60.1808         15.0833 
        1.09836         59.5729         14.8815 
        1.10449          59.338         14.6836 
        1.11063         58.7507         14.4891 
        1.11677         58.4624         14.2981 
         1.1229         57.9073          14.111 
        1.12903         57.4206          13.927 
        1.13518         57.4606         13.7462 
        1.14131         57.0614         13.5686 
        1.14745         56.5379         13.3944 
        1.15359          56.257         13.2231 
        1.15973         55.8202         13.0548 
        1.16584         55.4043         12.8901 
        1.17197         55.1001         12.7281 
        1.17811         54.8631         12.5684 
        1.18424         54.3666         12.4118 
        1.19038         54.1051         12.2575 
        1.19652         53.8422         12.1059 
        1.20267         53.2263         11.9568 
        1.20881         53.0908         11.8103 
        1.21495         52.6548         11.6664 
        1.22108          52.595          11.525 
         1.2272         51.8845         11.3863 
        1.23334         51.6942         11.2495 
        1.23949         51.5261         11.1147 
        1.24562         51.0617         10.9824 
        1.25174         50.8638         10.8525 
        1.25789         50.6892         10.7243 
        1.26402         50.2378         10.5983 
        1.27014         49.9343         10.4748 
        1.27628         49.6237         10.3528 
        1.28244         49.3491         10.2325 
        1.28858          49.192         10.1143 
        1.29471         48.9315         9.99823 
        1.30084         48.6228         9.88408 
        1.30697         48.2924         9.77155 
        1.31312         47.9893          9.6606 
        1.31925         47.7171         9.55172 
        1.32537          47.542         9.44462 
        1.33151         47.1084         9.33878 
        1.33765         46.9505         9.23462 
        1.34378         46.6724         9.13225 
        1.34992         46.3924         9.03136 
        1.35606         46.1753         8.93178 
         1.3622         45.8466         8.83387 
        1.36833         45.6511         8.73766 
        1.37445         45.3758         8.64293 
        1.38059         45.0592         8.54932 
        1.38675         44.8447         8.45686 
        1.39288         44.6052         8.36615 
        1.39901         44.4456          8.2768 
        1.40515         44.1149         8.18856 
         1.4113         43.9376         8.10163 
        1.41742         43.8395          8.0163 
        1.42355         43.4543         7.93204 
         1.4297         43.3413         7.84874 
        1.43585         43.0951         7.76666 
        1.44198         42.7459         7.68607 
        1.44809         42.6216         7.60678 
        1.45423          42.405         7.52831 
        1.46036         42.2118         7.45109 
        1.46649         42.0172         7.37492 
        1.47263         41.7309         7.29976 
        1.47877         41.4636         7.22568 
        1.48491         41.4533         7.15251 
        1.49104         41.1188         7.08051 
        1.49718         40.7561         7.00944 
        1.50333         40.7681         6.93923 
        1.50947         40.5176         6.87013 
         1.5156         40.2774         6.80207 
        1.52172         40.1629         6.73493 
        1.52787         40.0258         6.66855 
          1.534         39.6838         6.60315 
        1.54013         39.4898          6.5387 
        1.54627         39.4121         6.47498 
        1.55241          38.993          6.4121 
        1.55855         38.9315         6.35014 
        1.56467         38.6233         6.28917 
         1.5708         38.6495         6.22882 
        1.57695         38.4289         6.16918 
        1.58308         38.1701         6.11045 
        1.58922          38.014         6.05245 
        1.59535         37.9082         5.99521 
         1.6015         37.5952         5.93864 
        1.60764         37.3991         5.88282 
        1.61376         37.2538         5.82788 
        1.61989         37.0757         5.77359 
        1.62604         36.8793         5.71987 
        1.63218         36.8712         5.66686 
        1.63831         36.5623         5.61465 
        1.64444         36.4139         5.56307 
        1.65059         36.3166         5.51202 
        1.65673         36.0613         5.46167 
        1.66285         35.8206         5.41208 
        1.66898         35.7408         5.36309 
        1.67512         35.4783         5.31462 
        1.68127         35.3593         5.26669 
         1.6874         35.1818         5.21946 
        1.69353         35.0005         5.17284 
        1.69967         34.8746         5.12668 
        1.70581         34.8049          5.0811 
        1.71193         34.6311         5.03625 
        1.71806         34.2827         4.99184 
        1.72421         34.2586         4.94788 
        1.73035         34.0952          4.9045 
        1.73649         33.8223         4.86164 
        1.74262         33.7072         4.81933 
        1.74876         33.5839         4.77749 
        1.75489         33.4548         4.73624 
        1.76101         33.3245         4.69548 
        1.76715         33.1542         4.65515 
        1.77329          33.007         4.61524 
        1.77943         32.8505         4.57577 
        1.78557         32.6716         4.53683 
        1.79171           32.56         4.49833 
        1.79785         32.3729         4.46027 
        1.80399         32.3536         4.42265 
        1.81012         32.0748         4.38552 
        1.81625          31.939         4.34883 
        1.82239         31.8395         4.31251 
        1.82853         31.6894         4.27661 
        1.83466         31.4646         4.24116 
        1.84078         31.2893         4.20615 
        1.84692         31.2239         4.17147 
        1.85306         31.0365         4.13715 
         1.8592         30.8877         4.10326 
        1.86533         30.7903         4.06977 
        1.87147         30.7075         4.03661 
        1.87761         30.5488         4.00381 
        1.88375         30.4028         3.97141 
        1.88988         30.3131          3.9394 
        1.89601         30.1592         3.90773 
        1.90215         30.0542         3.87638 
        1.90829         29.9637         3.84539 
        1.91442         29.7816         3.81473 
        1.92056         29.5834         3.78443 
         1.9267          29.526         3.75443 
        1.93284         29.2926         3.72474 
        1.93897         29.2803         3.69542 
        1.94509         29.1029         3.66649 
        1.95123         28.9801         3.63778 
        1.95737         28.8284         3.60937 
        1.96349          28.726         3.58133 
        1.96964         28.6427          3.5535 
        1.97578         28.4302         3.52596 
        1.98192         28.3498         3.49877 
        1.98805         28.2875         3.47186 
        1.99419         28.1409         3.44523 
        2.00033           27.99         3.41886 
        2.00647         27.8805         3.39278 
         2.0126         27.7017         3.36701 
        2.01874          27.683         3.34148 
        2.02488         27.5528         3.31618 
        2.03101          27.413         3.29119 
        2.03714         27.3052         3.26648 
        2.04328         27.1562         3.24199 
        2.04941         27.0497         3.21778 
        2.05554         26.9334         3.19383 
        2.06167         26.8534         3.17009 
        2.06781         26.6773         3.14658 
        2.07396         26.6246         3.12328 
        2.08009         26.5048         3.10026 
        2.08622         26.3399         3.07749 
        2.09237         26.2628         3.05491 
        2.09851         26.1537         3.03255 
        2.10464         26.0439         3.01045 
        2.11077         25.9898         2.98859 
        2.11691         25.8054         2.96691 
        2.12305         25.7051         2.94544 
        2.12918         25.5914         2.92423 
        2.13531         25.5413         2.90322 
        2.14145         25.3961         2.88238 
         2.1476         25.2915         2.86171 
        2.15372         25.1763         2.84135 
        2.15985         25.1093         2.82117 
        2.16599         25.0012         2.80113 
        2.17213         24.9465          2.7813 
        2.17827         24.7373         2.76166 
         2.1844         24.6968         2.74224 
        2.19054         24.5913         2.72299 
        2.19666         24.4715         2.70395 
         2.2028         24.3345         2.68508 
        2.20893         24.3103         2.66638 
        2.21508         24.2208         2.64784 
        2.22122         24.0464         2.62946 
        2.22736         23.9982          2.6113 
        2.23349         23.8672         2.59331 
        2.23962         23.7801         2.57548 
        2.24577         23.6683         2.55781 
         2.2519         23.5988         2.54032 
        2.25802         23.4984         2.52303 
        2.26417         23.4002         2.50584 
        2.27031         23.2843          2.4888 
        2.27644         23.1849         2.47197 
        2.28257         23.1267          2.4553 
        2.28872         23.0415         2.43874 
        2.29486         22.9398         2.42235 
        2.30099         22.8156         2.40613 
        2.30712         22.7504         2.39006 
        2.31326          22.671          2.3741 
         2.3194         22.5857         2.35831 
        2.32553         22.4995         2.34268 
        2.33166         22.3876         2.32719 
         2.3378         22.2683         2.31183 
        2.34394          22.192          2.2966 
        2.35007         22.1258         2.28153 
        2.35619         22.0259         2.26661 
        2.36233         21.9173         2.25179 
        2.36848         21.8561         2.23707 
        2.37462         21.7408         2.22251 
        2.38075         21.7073          2.2081 
        2.38689          21.595          2.1938 
        2.39303         21.4927         2.17963 
        2.39916         21.3948          2.1656 
        2.40529         21.3549         2.15169 
        2.41143         21.2607          2.1379 
        2.41757         21.1743         2.12421 
         2.4237         21.0904         2.11068 
        2.42983         20.9474         2.09726 
        2.43598         20.9061         2.08392 
        2.44211         20.8087         2.07073 
        2.44823         20.7454         2.05767 
        2.45437         20.6344         2.04469 
        2.46052         20.5262         2.03181 
        2.46665         20.4913         2.01907 
        2.47279         20.4328         2.00644 
        2.47892         20.3455          1.9939 
        2.48507         20.2147         1.98147 
         2.4912         20.1854         1.96916 
