# k  (h/Mpc)    Pcb(k)  (Mpc/h)^3    Pcb_linear(k)  (Mpc/h)^3
     0.00783031         368.075         371.673 
       0.013688          442.13         443.769 
       0.019231         431.493         431.768 
      0.0249154         379.031          380.28 
      0.0312784         310.974         310.672 
      0.0375637         252.207         251.349 
      0.0433917         212.239         211.905 
      0.0492413         186.997         186.535 
      0.0555754         170.015         170.224 
      0.0619321         159.683         159.233 
       0.067871         148.742          149.03 
      0.0738098         136.101         136.402 
      0.0800417         120.144         120.507 
      0.0862327         103.946         103.937 
      0.0921407         89.8008         89.6376 
      0.0982031         78.1532         78.0828 
       0.104506         70.3067         69.9151 
       0.110769         65.3938          65.113 
       0.116806           62.46          62.455 
       0.122832         60.5355         60.4256 
       0.129052         57.7432           57.84 
       0.135211         54.0925         54.1958 
       0.141259         49.7259         49.6527 
       0.147318         44.9248         44.7087 
       0.153489         40.1583         39.9912 
       0.159709         36.3184         36.1248 
       0.165845         33.7448         33.4043 
       0.171974         31.8163         31.6699 
       0.178125         30.7611          30.592 
       0.184229         29.9491         29.7676 
        0.19034         28.8367         28.8183 
       0.196428         27.6471         27.5328 
       0.202534         26.1335         25.8848 
       0.208729         24.1807         24.0002 
       0.214876         22.2882         22.1508 
       0.220989         20.7913         20.5382 
       0.227147         19.4132         19.2583 
        0.23329         18.4859         18.3338 
       0.239377         17.8576         17.6864 
       0.245482         17.2756         17.1796 
       0.251667         16.8561         16.6776 
       0.257832         16.2316         16.0918 
       0.263955         15.5553         15.3922 
       0.270079         14.7708            14.6 
        0.27624         14.0121         13.7774 
       0.282372         13.2509         13.0066 
        0.28843         12.5451         12.3458 
       0.294538         12.0019         11.8034 
       0.300721         11.6138         11.3684 
        0.30691         11.1972         11.0134 
       0.313033         10.8784         10.6945 
       0.319153          10.479           10.37 
       0.325316         10.2237         10.0129 
        0.33145         9.82129         9.62618 
       0.337538         9.42031         9.22422 
       0.343633         9.00097         8.82781 
       0.349808           8.656         8.45428 
       0.355968         8.32852         8.12385 
       0.362074         8.03196         7.84213 
       0.368217         7.78876         7.59626 
       0.374374         7.53741         7.37548 
       0.380519         7.34933         7.16499 
       0.386598         7.14969         6.95522 
       0.392688         6.94975         6.73898 
        0.39888         6.70841         6.51241 
       0.405048         6.48918         6.28681 
       0.411186         6.27735         6.06984 
       0.417313         6.05721         5.86637 
       0.423458         5.88331         5.68017 
       0.429607         5.69727         5.51129 
       0.435692          5.5397         5.35772 
       0.441815          5.3962         5.21288 
       0.447964         5.27588         5.07263 
       0.454126          5.1087         4.93312 
       0.460267         4.97448         4.79413 
       0.466387         4.82237          4.6568 
        0.47254         4.69795         4.52124 
       0.478662          4.5774          4.3909 
       0.484765         4.43745         4.26771 
       0.490885         4.32474         4.15201 
       0.497035         4.24293         4.04285 
       0.503198          4.1217         3.93927 
       0.509342         4.02572         3.84057 
       0.515458         3.92228          3.7456 
       0.521598         3.83073         3.65234 
       0.527764         3.72567         3.55996 
       0.533884         3.65474            3.47 
           0.54         3.55951         3.38264 
       0.546137         3.47809         3.29815 
       0.552299         3.39683         3.21681 
       0.558452          3.3045           3.139 
       0.564573         3.23975         3.06487 
       0.570708         3.16629         2.99367 
       0.576825         3.08906         2.92536 
       0.582926         3.03056         2.85933 
       0.589034         2.94617         2.79486 
       0.595184         2.88872         2.73135 
       0.601379         2.82339          2.6689 
       0.607522         2.77343         2.60875 
       0.613639         2.72289         2.55079 
       0.619772         2.64865         2.49473 
       0.625918         2.60298         2.44054 
       0.632068         2.55678         2.38812 
       0.638161         2.49588         2.33779 
         0.6443         2.44461         2.28855 
       0.650464         2.38862         2.24052 
       0.656582         2.35156         2.19417 
       0.662703         2.30451         2.14908 
       0.668861         2.26623         2.10498 
       0.675024         2.21556         2.06207 
       0.681124         2.16836         2.02078 
       0.687237         2.13438         1.98054 
       0.693381         2.09459         1.94122 
       0.699536         2.04186         1.90291 
       0.705665          2.0075         1.86582 
       0.711789         1.97471         1.82978 
       0.717957         1.93423         1.79448 
        0.72409         1.90023         1.76033 
       0.730186          1.8644         1.72728 
       0.736317         1.84305         1.69492 
       0.742472         1.80806         1.66327 
       0.748622         1.77139         1.63245 
        0.75476         1.73678         1.60249 
       0.760888         1.70626         1.57332 
       0.767043         1.68658         1.54476 
       0.773185         1.65007         1.51697 
       0.779291         1.62551         1.49003 
       0.785407         1.59702         1.46371 
       0.791564         1.57277         1.43785 
       0.797719         1.54887         1.41265 
       0.803834         1.52521          1.3882 
       0.809972         1.49874         1.36426 
       0.816124         1.47104         1.34083 
       0.822261         1.44401         1.31802 
       0.828378         1.42473         1.29582 
       0.834502         1.40685         1.27411 
       0.840667         1.37623         1.25277 
       0.846816         1.35554         1.23198 
       0.852925         1.34136         1.21179 
       0.859047         1.31987         1.19202 
       0.865192         1.29702         1.17263 
       0.871341         1.27846         1.15367 
       0.877463         1.26262         1.13521 
       0.883569         1.23918          1.1172 
       0.889708         1.22081          1.0995 
       0.895864         1.20271         1.08214 
       0.902008           1.183         1.06519 
       0.908149         1.16766         1.04861 
       0.914301         1.14464         1.03237 
       0.920448         1.13038         1.01648 
       0.926574         1.11353         1.00099 
       0.932687         1.09733        0.985853 
       0.938823         1.08671        0.970978 
       0.944975         1.07004        0.956378 
       0.951105         1.05619        0.942132 
       0.957225         1.04455        0.928202 
       0.963368         1.02841        0.914508 
       0.969511         1.01209        0.901091 
       0.975621        0.996341        0.888017 
       0.981748        0.987092        0.875171 
       0.987916        0.971785        0.862499 
        0.99406        0.956949        0.850127 
        1.00019        0.947844        0.838023 
        1.00632        0.931586        0.826167 
        1.01246        0.919767        0.814524 
        1.01859        0.909287        0.803125 
        1.02471        0.896017        0.791959 
        1.03085        0.887383        0.780968 
        1.03698        0.873426         0.77021 
        1.04314        0.863602         0.75961 
        1.04929        0.851088        0.749235 
        1.05541        0.842199        0.739097 
        1.06154        0.829898        0.729122 
        1.06769         0.81941        0.719318 
        1.07382          0.8095        0.709727 
        1.07993        0.797244        0.700334 
        1.08607        0.791747        0.691073 
        1.09222        0.779517         0.68197 
        1.09836        0.773118        0.673044 
        1.10449        0.763439        0.664288 
        1.11063        0.751095        0.655679 
        1.11677        0.741465        0.647227 
         1.1229        0.733932        0.638939 
        1.12903        0.724447         0.63079 
        1.13518        0.717429        0.622777 
        1.14131        0.707479        0.614909 
        1.14745        0.695402        0.607181 
        1.15359        0.690646        0.599586 
        1.15973        0.680135        0.592117 
        1.16584        0.676461         0.58481 
        1.17197         0.66747        0.577617 
        1.17811        0.660726        0.570523 
        1.18424        0.654525        0.563569 
        1.19038        0.644873        0.556711 
        1.19652        0.636368        0.549971 
        1.20267          0.6321        0.543342 
        1.20881         0.62304        0.536825 
        1.21495        0.617979        0.530425 
        1.22108        0.610611        0.524131 
         1.2272        0.605274        0.517954 
        1.23334        0.597257        0.511863 
        1.23949        0.590815        0.505856 
        1.24562        0.584873        0.499962 
        1.25174        0.579055        0.494171 
        1.25789        0.573182        0.488454 
        1.26402        0.565148        0.482839 
        1.27014        0.559452        0.477325 
        1.27628        0.555727        0.471881 
        1.28244        0.547021        0.466512 
        1.28858        0.542358        0.461234 
        1.29471        0.537866         0.45605 
        1.30084        0.530942        0.450951 
        1.30697        0.525463        0.445922 
        1.31312        0.518128        0.440962 
        1.31925        0.514448        0.436095 
        1.32537        0.509904        0.431305 
        1.33151        0.505578        0.426571 
        1.33765        0.499765        0.421911 
        1.34378        0.493291         0.41733 
        1.34992        0.489745        0.412814 
        1.35606        0.484129        0.408356 
         1.3622        0.479707        0.403971 
        1.36833        0.474741        0.399662 
        1.37445        0.468595        0.395418 
        1.38059        0.464733        0.391223 
        1.38675        0.462935        0.387079 
        1.39288         0.45668        0.383011 
        1.39901        0.452481        0.379004 
        1.40515        0.448445        0.375046 
         1.4113        0.443097        0.371145 
        1.41742        0.439028        0.367316 
        1.42355        0.436839        0.363533 
         1.4297        0.430836        0.359792 
        1.43585        0.426962        0.356106 
        1.44198        0.424925        0.352485 
        1.44809        0.419279        0.348922 
        1.45423        0.415636        0.345394 
        1.46036        0.411859        0.341922 
        1.46649        0.408451        0.338497 
        1.47263        0.404196        0.335116 
        1.47877        0.399973        0.331782 
        1.48491        0.396792        0.328489 
        1.49104        0.392231        0.325247 
        1.49718        0.389473        0.322047 
        1.50333        0.386242        0.318885 
        1.50947        0.382773        0.315772 
         1.5156        0.378798        0.312705 
        1.52172        0.375746        0.309679 
        1.52787        0.372045        0.306688 
          1.534        0.369036        0.303739 
        1.54013        0.365169        0.300832 
        1.54627        0.362506        0.297959 
        1.55241        0.358899        0.295122 
        1.55855         0.35547        0.292327 
        1.56467        0.354121        0.289575 
         1.5708        0.349906        0.286851 
        1.57695        0.347339        0.284158 
        1.58308        0.344158        0.281506 
        1.58922        0.341336        0.278886 
        1.59535        0.338117        0.276301 
         1.6015        0.335285        0.273745 
        1.60764        0.332822        0.271222 
        1.61376        0.329112        0.268738 
        1.61989        0.327083        0.266284 
        1.62604        0.324262        0.263854 
        1.63218         0.32205        0.261457 
        1.63831        0.319256        0.259095 
        1.64444        0.316349        0.256761 
        1.65059        0.313946        0.254451 
        1.65673        0.311129        0.252171 
        1.66285        0.309009        0.249926 
        1.66898         0.30683        0.247707 
        1.67512        0.303441        0.245512 
        1.68127        0.300807         0.24334 
         1.6874        0.299499          0.2412 
        1.69353        0.296394        0.239087 
        1.69967        0.294364        0.236994 
        1.70581        0.291614        0.234927 
        1.71193        0.289542        0.232893 
        1.71806         0.28703        0.230879 
        1.72421        0.284992        0.228884 
        1.73035          0.2823        0.226915 
        1.73649        0.280828         0.22497 
        1.74262        0.278387         0.22305 
        1.74876         0.27599         0.22115 
        1.75489        0.274052        0.219277 
        1.76101        0.271682        0.217425 
        1.76715        0.269644        0.215593 
        1.77329         0.26755         0.21378 
        1.77943         0.26525        0.211987 
        1.78557        0.263728        0.210217 
        1.79171        0.261802        0.208466 
        1.79785         0.25961        0.206736 
        1.80399        0.257635        0.205026 
        1.81012        0.255923        0.203337 
        1.81625        0.253911        0.201668 
        1.82239        0.252279        0.200015 
        1.82853        0.249647        0.198382 
        1.83466        0.248098        0.196768 
        1.84078        0.246083        0.195174 
        1.84692        0.244409        0.193596 
        1.85306         0.24313        0.192033 
         1.8592        0.241003        0.190489 
        1.86533        0.239598        0.188964 
        1.87147        0.237668        0.187453 
        1.87761         0.23616        0.185958 
        1.88375         0.23391        0.184482 
        1.88988        0.232549        0.183023 
        1.89601        0.230575        0.181579 
        1.90215        0.229313        0.180149 
        1.90829        0.227377        0.178736 
        1.91442        0.226131        0.177337 
        1.92056         0.22429        0.175955 
         1.9267        0.222598        0.174586 
        1.93284        0.221003        0.173231 
        1.93897        0.219508        0.171893 
        1.94509        0.218307        0.170572 
        1.95123        0.216436        0.169261 
        1.95737        0.215349        0.167964 
        1.96349        0.213504        0.166683 
        1.96964        0.212055        0.165412 
        1.97578        0.210486        0.164153 
        1.98192        0.209273        0.162911 
        1.98805        0.208053        0.161681 
        1.99419        0.206361        0.160463 
        2.00033        0.204955        0.159258 
        2.00647        0.204007        0.158065 
         2.0126        0.202169        0.156887 
        2.01874        0.201046        0.155718 
        2.02488        0.199781        0.154561 
        2.03101        0.198221        0.153418 
        2.03714        0.196771        0.152287 
        2.04328        0.195799        0.151166 
        2.04941        0.194396        0.150058 
        2.05554        0.193187        0.148961 
        2.06167        0.192125        0.147874 
        2.06781        0.190135        0.146798 
        2.07396        0.189128        0.145731 
        2.08009        0.187908        0.144676 
        2.08622         0.18689        0.143633 
        2.09237        0.185914        0.142598 
        2.09851         0.18462        0.141573 
        2.10464        0.183329         0.14056 
        2.11077        0.182191        0.139558 
        2.11691         0.18094        0.138564 
        2.12305        0.179813        0.137579 
        2.12918        0.178857        0.136607 
        2.13531        0.177452        0.135643 
        2.14145         0.17634        0.134687 
         2.1476         0.17541        0.133739 
        2.15372        0.174551        0.132804 
        2.15985        0.173082        0.131878 
        2.16599        0.171778        0.130958 
        2.17213         0.17112        0.130048 
        2.17827        0.170013        0.129146 
         2.1844        0.169155        0.128254 
        2.19054        0.167853         0.12737 
        2.19666        0.166459        0.126496 
         2.2028        0.165913        0.125629 
        2.20893        0.165096         0.12477 
        2.21508        0.163584        0.123917 
        2.22122        0.162479        0.123073 
        2.22736        0.161917        0.122238 
        2.23349         0.16078        0.121411 
        2.23962        0.160093        0.120591 
        2.24577        0.158751        0.119779 
         2.2519        0.158139        0.118974 
        2.25802        0.156909        0.118179 
        2.26417        0.156073        0.117388 
        2.27031        0.155056        0.116604 
        2.27644        0.154237         0.11583 
        2.28257        0.153344        0.115062 
        2.28872        0.152379          0.1143 
        2.29486         0.15156        0.113546 
        2.30099        0.150642        0.112799 
        2.30712         0.14981        0.112059 
        2.31326        0.148689        0.111324 
         2.3194        0.148526        0.110596 
        2.32553        0.147571        0.109877 
        2.33166         0.14677        0.109163 
         2.3378        0.145825        0.108455 
        2.34394        0.144628        0.107753 
        2.35007        0.143953        0.107059 
        2.35619        0.143028        0.106371 
        2.36233        0.142083        0.105688 
        2.36848        0.141549        0.105009 
        2.37462        0.140536        0.104338 
        2.38075         0.14011        0.103673 
        2.38689        0.139115        0.103014 
        2.39303        0.138708         0.10236 
        2.39916        0.137371        0.101713 
        2.40529        0.136842        0.101071 
        2.41143        0.136118        0.100434 
        2.41757        0.135318        0.099803 
         2.4237        0.134716       0.0991782 
        2.42983        0.133769       0.0985588 
        2.43598        0.133421        0.097943 
        2.44211        0.132465       0.0973336 
        2.44823        0.131987       0.0967306 
        2.45437         0.13084       0.0961312 
        2.46052        0.130372       0.0955363 
        2.46665        0.129534       0.0949475 
        2.47279        0.128881       0.0943639 
        2.47892        0.128118       0.0937847 
        2.48507         0.12732         0.09321 
         2.4912        0.126846       0.0926411 
