# k  (h/Mpc)    P(k)  (Mpc/h)^3    P_linear(k)  (Mpc/h)^3
     0.00783031         364.763         365.921 
       0.013688         438.149         436.553 
       0.019231         427.607         424.629 
      0.0249154         375.617          373.94 
      0.0312784         308.173          305.47 
      0.0375637         249.935         247.131 
      0.0433917         210.327         208.344 
      0.0492413         185.312         183.399 
      0.0555754         168.483          167.36 
      0.0619321         158.245         156.554 
       0.067871         147.402         146.521 
      0.0738098         134.875         134.106 
      0.0800417         119.061         118.478 
      0.0862327          103.01         102.187 
      0.0921407         88.9918         88.1278 
      0.0982031         77.4491         76.7675 
       0.104506         69.6733         68.7372 
       0.110769         64.8046         64.0159 
       0.116806         61.8972         61.4026 
       0.122832         59.9901         59.4075 
       0.129052          57.223         56.8654 
       0.135211         53.6051         53.2826 
       0.141259         49.2779         48.8161 
       0.147318           44.52         43.9553 
       0.153489         39.7965         39.3173 
       0.159709         35.9912         35.5159 
       0.165845         33.4408         32.8413 
       0.171974         31.5296         31.1361 
       0.178125          30.484         30.0765 
       0.184229         29.6792          29.266 
        0.19034         28.5769         28.3326 
       0.196428          27.398         27.0687 
       0.202534         25.8981         25.4486 
       0.208729         23.9629         23.5957 
       0.214876         22.0874         21.7775 
       0.220989         20.6039          20.192 
       0.227147         19.2383         18.9338 
        0.23329         18.3194         18.0248 
       0.239377         17.6967         17.3882 
       0.245482           17.12         16.8901 
       0.251667         16.7042         16.3965 
       0.257832         16.0854         15.8206 
       0.263955         15.4151         15.1329 
       0.270079         14.6377          14.354 
        0.27624         13.8859         13.5452 
       0.282372         13.1315         12.7874 
        0.28843         12.4321         12.1376 
       0.294538         11.8938         11.6045 
       0.300721         11.5091         11.1768 
        0.30691         11.0963         10.8277 
       0.313033         10.7803         10.5142 
       0.319153         10.3845         10.1953 
       0.325316         10.1316         9.84406 
        0.33145         9.73281         9.46394 
       0.337538         9.33544         9.06874 
       0.343633         8.91988         8.67899 
       0.349808         8.57801         8.31177 
       0.355968         8.25348         7.98693 
       0.362074         7.95959         7.70997 
       0.368217         7.71859          7.4682 
       0.374374          7.4695         7.25117 
       0.380519         7.28311         7.04422 
       0.386598         7.08528         6.83797 
       0.392688         6.88714         6.62546 
        0.39888         6.64797         6.40261 
       0.405048         6.43071         6.18084 
       0.411186          6.2208         5.96751 
       0.417313         6.00264          5.7675 
       0.423458         5.83031          5.5844 
       0.429607         5.64594         5.41838 
       0.435692         5.48979         5.26741 
       0.441815         5.34759           5.125 
       0.447964         5.22834         4.98712 
       0.454126         5.06267         4.84997 
       0.460267         4.92966         4.71331 
       0.466387         4.77893          4.5783 
        0.47254         4.65562         4.44501 
       0.478662         4.53616         4.31689 
       0.484765         4.39748         4.19573 
       0.490885         4.28577         4.08203 
       0.497035         4.20471         3.97469 
       0.503198         4.08456         3.87286 
       0.509342         3.98945         3.77583 
       0.515458         3.88694         3.68246 
       0.521598         3.79622         3.59077 
       0.527764         3.69211         3.49994 
       0.533884         3.62181          3.4115 
           0.54         3.52744         3.32561 
       0.546137         3.44676         3.24255 
       0.552299         3.36622         3.16258 
       0.558452         3.27473         3.08609 
       0.564573         3.21056          3.0132 
       0.570708         3.13776         2.94322 
       0.576825         3.06123         2.87604 
       0.582926         3.00325         2.81113 
       0.589034         2.91962         2.74776 
       0.595184         2.86269          2.6853 
       0.601379         2.79795         2.62392 
       0.607522         2.74845         2.56477 
       0.613639         2.69836         2.50778 
       0.619772         2.62479         2.45268 
       0.625918         2.57953          2.3994 
       0.632068         2.53375         2.34786 
       0.638161          2.4734         2.29838 
         0.6443         2.42258         2.24998 
       0.650464          2.3671         2.20275 
       0.656582         2.33037         2.15718 
       0.662703         2.28375         2.11285 
       0.668861         2.24581          2.0695 
       0.675024          2.1956         2.02731 
       0.681124         2.14882         1.98672 
       0.687237         2.11515         1.94716 
       0.693381         2.07572         1.90849 
       0.699536         2.02347         1.87083 
       0.705665         1.98941         1.83437 
       0.711789         1.95692         1.79894 
       0.717957          1.9168         1.76423 
        0.72409         1.88311         1.73065 
       0.730186         1.84761         1.69816 
       0.736317         1.82644         1.66634 
       0.742472         1.79177         1.63523 
       0.748622         1.75543         1.60494 
        0.75476         1.72113         1.57547 
       0.760888         1.69089          1.5468 
       0.767043         1.67138         1.51872 
       0.773185         1.63521          1.4914 
       0.779291         1.61087         1.46491 
       0.785407         1.58263         1.43903 
       0.791564          1.5586         1.41362 
       0.797719         1.53492         1.38883 
       0.803834         1.51147          1.3648 
       0.809972         1.48524         1.34126 
       0.816124         1.45779         1.31823 
       0.822261           1.431          1.2958 
       0.828378         1.41189         1.27397 
       0.834502         1.39418         1.25263 
       0.840667         1.36383         1.23165 
       0.846816         1.34332         1.21121 
       0.852925         1.32927         1.19136 
       0.859047         1.30798         1.17193 
       0.865192         1.28533         1.15287 
       0.871341         1.26694         1.13422 
       0.877463         1.25125         1.11607 
       0.883569         1.22802         1.09837 
       0.889708         1.20981         1.08097 
       0.895864         1.19188         1.06389 
       0.902008         1.17234         1.04723 
       0.908149         1.15714         1.03094 
       0.914301         1.13433         1.01496 
       0.920448         1.12019        0.999346 
       0.926574          1.1035        0.984115 
       0.932687         1.08744        0.969234 
       0.938823         1.07691         0.95461 
       0.944975          1.0604        0.940256 
       0.951105         1.04667         0.92625 
       0.957225         1.03514        0.912555 
       0.963368         1.01915        0.899092 
       0.969511         1.00297        0.885901 
       0.975621        0.987364        0.873048 
       0.981748        0.978198        0.860418 
       0.987916         0.96303        0.847959 
        0.99406        0.948328        0.835796 
        1.00019        0.939304        0.823896 
        1.00632        0.923193         0.81224 
        1.01246        0.911481        0.800793 
        1.01859        0.901095        0.789586 
        1.02471        0.887944        0.778609 
        1.03085        0.879389        0.767803 
        1.03698        0.865557        0.757226 
        1.04314        0.855821        0.746805 
        1.04929         0.84342        0.736605 
        1.05541        0.834611        0.726638 
        1.06154        0.822421        0.716832 
        1.06769        0.812028        0.707192 
        1.07382        0.802207        0.697763 
        1.07993        0.790061        0.688528 
        1.08607        0.784614        0.679423 
        1.09222        0.772494        0.670474 
        1.09836        0.766153        0.661698 
        1.10449        0.756561         0.65309 
        1.11063        0.744328        0.644627 
        1.11677        0.734785        0.636317 
         1.1229        0.727319        0.628169 
        1.12903        0.717921        0.620157 
        1.13518        0.710965        0.612279 
        1.14131        0.701105        0.604543 
        1.14745        0.689137        0.596946 
        1.15359        0.684424        0.589478 
        1.15973        0.674007        0.582136 
        1.16584        0.670366        0.574952 
        1.17197        0.661457         0.56788 
        1.17811        0.654773        0.560905 
        1.18424        0.648629        0.554068 
        1.19038        0.639063        0.547326 
        1.19652        0.630634        0.540699 
        1.20267        0.626405        0.534183 
        1.20881        0.617427        0.527775 
        1.21495        0.612411        0.521483 
        1.22108         0.60511        0.515295 
         1.2272        0.599821        0.509223 
        1.23334        0.591876        0.503234 
        1.23949        0.585492        0.497328 
        1.24562        0.579604        0.491534 
        1.25174        0.573838         0.48584 
        1.25789        0.568018         0.48022 
        1.26402        0.560056        0.474699 
        1.27014        0.554412        0.469278 
        1.27628        0.550721        0.463926 
        1.28244        0.542093        0.458648 
        1.28858        0.537472        0.453459 
        1.29471        0.533021        0.448362 
        1.30084        0.526158        0.443348 
        1.30697        0.520729        0.438404 
        1.31312         0.51346        0.433529 
        1.31925        0.509813        0.428743 
        1.32537         0.50531        0.424034 
        1.33151        0.501023         0.41938 
        1.33765        0.495262        0.414799 
        1.34378        0.488847        0.410295 
        1.34992        0.485332        0.405855 
        1.35606        0.479767        0.401472 
         1.3622        0.475385        0.397161 
        1.36833        0.470464        0.392924 
        1.37445        0.464373        0.388752 
        1.38059        0.460546        0.384627 
        1.38675        0.458765        0.380553 
        1.39288        0.452565        0.376554 
        1.39901        0.448404        0.372615 
        1.40515        0.444405        0.368723 
         1.4113        0.439105        0.364889 
        1.41742        0.435072        0.361123 
        1.42355        0.432903        0.357405 
         1.4297        0.426954        0.353727 
        1.43585        0.423115        0.350103 
        1.44198        0.421097        0.346543 
        1.44809        0.415502         0.34304 
        1.45423        0.411892        0.339572 
        1.46036        0.408148        0.336158 
        1.46649        0.404771         0.33279 
        1.47263        0.400555        0.329466 
        1.47877        0.396369        0.326189 
        1.48491        0.393217        0.322951 
        1.49104        0.388697        0.319764 
        1.49718        0.385964        0.316618 
        1.50333        0.382762        0.313509 
        1.50947        0.379325        0.310449 
         1.5156        0.375385        0.307434 
        1.52172        0.372361        0.304459 
        1.52787        0.368693        0.301518 
          1.534        0.365711        0.298619 
        1.54013        0.361879        0.295761 
        1.54627         0.35924        0.292936 
        1.55241        0.355665        0.290147 
        1.55855        0.352267        0.287399 
        1.56467         0.35093        0.284693 
         1.5708        0.346754        0.282015 
        1.57695         0.34421        0.279368 
        1.58308        0.341057        0.276761 
        1.58922         0.33826        0.274185 
        1.59535         0.33507        0.271643 
         1.6015        0.332265         0.26913 
        1.60764        0.329824         0.26665 
        1.61376        0.326146        0.264208 
        1.61989        0.324136        0.261795 
        1.62604         0.32134        0.259407 
        1.63218        0.319149         0.25705 
        1.63831        0.316379        0.254727 
        1.64444        0.313499        0.252433 
        1.65059        0.311117        0.250161 
        1.65673        0.308326         0.24792 
        1.66285        0.306225        0.245713 
        1.66898        0.304066        0.243532 
        1.67512        0.300707        0.241373 
        1.68127        0.298097        0.239238 
         1.6874        0.296801        0.237134 
        1.69353        0.293723        0.235057 
        1.69967        0.291712        0.232999 
        1.70581        0.288987        0.230967 
        1.71193        0.286934        0.228967 
        1.71806        0.284444        0.226987 
        1.72421        0.282425        0.225026 
        1.73035        0.279757         0.22309 
        1.73649        0.278298        0.221178 
        1.74262        0.275879         0.21929 
        1.74876        0.273503        0.217422 
        1.75489        0.271582         0.21558 
        1.76101        0.269235         0.21376 
        1.76715        0.267215        0.211959 
        1.77329        0.265139        0.210176 
        1.77943        0.262861        0.208413 
        1.78557        0.261352        0.206673 
        1.79171        0.259443        0.204952 
        1.79785        0.257271        0.203251 
        1.80399        0.255314        0.201569 
        1.81012        0.253617        0.199909 
        1.81625        0.251624        0.198268 
        1.82239        0.250006        0.196643 
        1.82853        0.247398        0.195038 
        1.83466        0.245863        0.193451 
        1.84078        0.243866        0.191884 
        1.84692        0.242207        0.190332 
        1.85306         0.24094        0.188795 
         1.8592        0.238832        0.187278 
        1.86533        0.237439        0.185778 
        1.87147        0.235527        0.184293 
        1.87761        0.234032        0.182824 
        1.88375        0.231802        0.181372 
        1.88988        0.230454        0.179937 
        1.89601        0.228498        0.178518 
        1.90215        0.227247        0.177112 
        1.90829        0.225328        0.175723 
        1.91442        0.224093        0.174348 
        1.92056        0.222269        0.172989 
         1.9267        0.220592        0.171643 
        1.93284        0.219012        0.170311 
        1.93897        0.217531        0.168995 
        1.94509         0.21634        0.167697 
        1.95123        0.214486        0.166408 
        1.95737        0.213409        0.165132 
        1.96349        0.211581        0.163873 
        1.96964        0.210145        0.162623 
        1.97578        0.208589        0.161386 
        1.98192        0.207388        0.160164 
        1.98805        0.206179        0.158955 
        1.99419        0.204502        0.157758 
        2.00033        0.203109        0.156573 
        2.00647        0.202169          0.1554 
         2.0126        0.200347        0.154242 
        2.01874        0.199234        0.153093 
        2.02488        0.197981        0.151955 
        2.03101        0.196436        0.150831 
        2.03714        0.194998         0.14972 
        2.04328        0.194035        0.148618 
        2.04941        0.192645        0.147528 
        2.05554        0.191446         0.14645 
        2.06167        0.190394        0.145381 
        2.06781        0.188422        0.144323 
        2.07396        0.187424        0.143274 
        2.08009        0.186215        0.142237 
        2.08622        0.185207        0.141212 
        2.09237        0.184239        0.140194 
        2.09851        0.182957        0.139187 
        2.10464        0.181677        0.138191 
        2.11077        0.180549        0.137206 
        2.11691         0.17931        0.136228 
        2.12305        0.178193         0.13526 
        2.12918        0.177245        0.134304 
        2.13531        0.175854        0.133357 
        2.14145        0.174752        0.132416 
         2.1476        0.173829        0.131484 
        2.15372        0.172979        0.130566 
        2.15985        0.171523        0.129655 
        2.16599         0.17023         0.12875 
        2.17213        0.169578        0.127855 
        2.17827        0.168482        0.126969 
         2.1844        0.167631        0.126092 
        2.19054        0.166341        0.125223 
        2.19666        0.164959        0.124363 
         2.2028        0.164418        0.123511 
        2.20893        0.163608        0.122666 
        2.21508        0.162111        0.121829 
        2.22122        0.161015        0.120998 
        2.22736        0.160458        0.120178 
        2.23349        0.159331        0.119365 
        2.23962         0.15865        0.118559 
        2.24577        0.157321         0.11776 
         2.2519        0.156715        0.116969 
        2.25802        0.155496        0.116187 
        2.26417        0.154667         0.11541 
        2.27031        0.153659        0.114639 
        2.27644        0.152847        0.113877 
        2.28257        0.151962        0.113123 
        2.28872        0.151006        0.112374 
        2.29486        0.150195        0.111632 
        2.30099        0.149285        0.110898 
        2.30712        0.148461         0.11017 
        2.31326         0.14735        0.109448 
         2.3194        0.147188        0.108732 
        2.32553        0.146241        0.108024 
        2.33166        0.145448        0.107323 
         2.3378        0.144511        0.106627 
        2.34394        0.143325        0.105937 
        2.35007        0.142656        0.105254 
        2.35619        0.141739        0.104578 
        2.36233        0.140803        0.103906 
        2.36848        0.140273        0.103239 
        2.37462         0.13927        0.102579 
        2.38075        0.138848        0.101926 
        2.38689        0.137862        0.101277 
        2.39303        0.137459        0.100635 
        2.39916        0.136133       0.0999981 
        2.40529        0.135609       0.0993672 
        2.41143        0.134891       0.0987414 
        2.41757        0.134099       0.0981206 
         2.4237        0.133502       0.0975063 
        2.42983        0.132564       0.0968973 
        2.43598        0.132219       0.0962919 
        2.44211        0.131272       0.0956927 
        2.44823        0.130797          0.0951 
        2.45437        0.129661       0.0945106 
        2.46052        0.129197       0.0939257 
        2.46665        0.128367       0.0933469 
        2.47279         0.12772       0.0927731 
        2.47892        0.126964       0.0922037 
        2.48507        0.126173       0.0916386 
         2.4912        0.125703       0.0910793 
