# k  (h/Mpc)    Pcb(k)  (Mpc/h)^3    Pcb_linear(k)  (Mpc/h)^3
     0.00783031         10772.4         10920.7 
       0.013688           12805         12719.2 
       0.019231         12186.7         12150.5 
      0.0249154         10431.3           10583 
      0.0312784          8612.1         8649.02 
      0.0375637         7140.19         7102.73 
      0.0433917         6072.71         6120.65 
      0.0492413         5489.88         5494.89 
      0.0555754         4955.66         5051.82 
      0.0619321         4703.31         4671.78 
       0.067871         4207.76         4270.23 
      0.0738098         3756.53         3803.83 
      0.0800417          3236.9         3291.51 
      0.0862327         2825.26         2830.72 
      0.0921407         2521.24         2484.08 
      0.0982031         2254.04         2236.08 
       0.104506         2139.57         2074.23 
       0.110769         2016.56         1970.04 
       0.116806         1909.94         1881.81 
       0.122832         1812.28         1776.61 
       0.129052         1651.96         1640.03 
       0.135211          1515.3         1486.57 
       0.141259         1401.72         1337.95 
       0.147318         1289.35         1209.42 
       0.153489          1176.9         1109.36 
       0.159709         1116.04         1039.54 
       0.165845         1078.08         992.582 
       0.171974         1026.41         955.332 
       0.178125         982.753         916.562 
       0.184229         937.587         870.385 
        0.19034         867.391         816.155 
       0.196428         835.088         758.504 
       0.202534         794.663         703.177 
       0.208729         745.801         654.731 
       0.214876         705.575         616.569 
       0.220989         681.464          587.62 
       0.227147         651.425         564.592 
        0.23329         626.871         544.076 
       0.239377         612.275         523.182 
       0.245482         570.022          500.15 
       0.251667          561.16          474.88 
       0.257832         537.325         449.213 
       0.263955         515.632         425.039 
       0.270079         493.811         403.542 
        0.27624         485.538         385.194 
       0.282372         466.901         369.831 
        0.28843         453.726         356.632 
       0.294538         431.884         344.225 
       0.300721         428.199          331.74 
        0.30691         408.021         318.871 
       0.313033         398.463         305.863 
       0.319153         384.226         292.978 
       0.325316         373.169         280.641 
        0.33145         360.705         269.362 
       0.337538         354.835         259.315 
       0.343633         342.928         250.273 
       0.349808         331.133         241.906 
       0.355968         327.094         234.005 
       0.362074          320.01          226.37 
       0.368217         310.883         218.762 
       0.374374         298.217         211.202 
       0.380519         294.994         203.849 
       0.386598         287.174          196.88 
       0.392688         283.683         190.307 
        0.39888         275.977         184.095 
       0.405048         269.119          178.33 
       0.411186         263.743          172.94 
       0.417313         258.465         167.815 
       0.423458         253.002         162.841 
       0.429607          247.87         157.988 
       0.435692         240.723         153.313 
       0.441815         238.525         148.746 
       0.447964         233.726         144.331 
       0.454126         225.196         140.113 
       0.460267         222.199         136.123 
       0.466387         219.519         132.341 
        0.47254         214.308         128.713 
       0.478662         213.504         125.253 
       0.484765         206.229         121.925 
       0.490885         203.512         118.688 
       0.497035         200.385         115.532 
       0.503198         195.637         112.473 
       0.509342         193.476         109.531 
       0.515458         190.685         106.712 
       0.521598         186.893          103.99 
       0.527764         184.358         101.365 
       0.533884         181.888         98.8603 
           0.54          178.92         96.4488 
       0.546137         177.608         94.1089 
       0.552299         173.984         91.8317 
       0.558452          172.06         89.6283 
       0.564573         169.296         87.5053 
       0.570708         165.796         85.4466 
       0.576825         163.724          83.462 
       0.582926         161.028          81.548 
       0.589034         159.222         79.6941 
       0.595184         157.372         77.8878 
       0.601379          155.32         76.1274 
       0.607522         152.328         74.4369 
       0.613639         151.291         72.8055 
       0.619772         148.149         71.2191 
       0.625918         146.644         69.6764 
       0.632068         144.837         68.1779 
       0.638161         143.687         66.7366 
         0.6443         141.625         65.3269 
       0.650464         140.225         63.9535 
       0.656582         138.215         62.6305 
       0.662703         136.853         61.3457 
       0.668861         134.567         60.0905 
       0.675024         132.928         58.8702 
       0.681124         132.143         57.6965 
       0.687237         129.859         56.5526 
       0.693381         127.962         55.4344 
       0.699536         127.135         54.3446 
       0.705665         126.674         53.2889 
       0.711789         124.082         52.2623 
       0.717957         123.781         51.2561 
        0.72409          121.83         50.2822 
       0.730186         120.061         49.3398 
       0.736317         119.199         48.4168 
       0.742472         118.351         47.5143 
       0.748622         117.131         46.6359 
        0.75476         116.029         45.7819 
       0.760888         114.502         44.9507 
       0.767043          113.94          44.137 
       0.773185         112.719         43.3453 
       0.779291         110.871         42.5777 
       0.785407         110.312         41.8277 
       0.791564         109.438         41.0913 
       0.797719         107.478         40.3731 
       0.803834         107.016         39.6767 
       0.809972         105.849         38.9944 
       0.816124         105.407         38.3269 
       0.822261         104.339         37.6769 
       0.828378         103.395          37.044 
       0.834502          102.88         36.4253 
       0.840667         101.405         35.8169 
       0.846816         100.246         35.2242 
       0.852925         99.7173         34.6487 
       0.859047         98.4705         34.0851 
       0.865192         97.8222         33.5322 
       0.871341         96.9863         32.9914 
       0.877463         95.8621          32.465 
       0.883569         95.4685         31.9516 
       0.889708         94.6278         31.4467 
       0.895864         93.7859         30.9516 
       0.902008          93.063         30.4682 
       0.908149         92.5338         29.9956 
       0.914301         91.5542         29.5323 
       0.920448         90.8708         29.0793 
       0.926574         90.1735         28.6374 
       0.932687         90.1017         28.2058 
       0.938823         88.6195         27.7816 
       0.944975          87.752         27.3651 
       0.951105         87.2811         26.9588 
       0.957225         86.3705         26.5615 
       0.963368         85.7317         26.1709 
       0.969511         85.5623         25.7882 
       0.975621          85.042         25.4153 
       0.981748         84.3246         25.0488 
       0.987916         83.4834         24.6873 
        0.99406         82.9098         24.3343 
        1.00019         82.4127          23.989 
        1.00632         81.7671         23.6507 
        1.01246         81.2752         23.3185 
        1.01859         80.2136         22.9932 
        1.02471         79.9934         22.6746 
        1.03085         79.2434          22.361 
        1.03698         78.9155          22.054 
        1.04314         78.1232         21.7515 
        1.04929         77.6617         21.4554 
        1.05541         76.9851          21.166 
        1.06154         76.7815         20.8814 
        1.06769         76.3683         20.6015 
        1.07382         75.8727         20.3278 
        1.07993         75.3119         20.0596 
        1.08607         74.7323         19.7953 
        1.09222         74.4581         19.5355 
        1.09836         73.7992         19.2806 
        1.10449         73.4432         19.0307 
        1.11063         72.7905         18.7849 
        1.11677         72.4694         18.5436 
         1.1229         71.7226          18.307 
        1.12903         71.1033         18.0743 
        1.13518         71.2613         17.8455 
        1.14131         70.7442         17.6209 
        1.14745         70.0108         17.4002 
        1.15359         69.7365         17.1833 
        1.15973         69.2735         16.9701 
        1.16584         68.7621         16.7614 
        1.17197         68.4096          16.556 
        1.17811          68.036         16.3534 
        1.18424         67.5219         16.1548 
        1.19038         67.0987         15.9589 
        1.19652         66.8114         15.7664 
        1.20267         66.1622         15.5771 
        1.20881         65.9099         15.3909 
        1.21495         65.4209         15.2081 
        1.22108         65.2268         15.0283 
         1.2272         64.4764         14.8518 
        1.23334         64.2824         14.6778 
        1.23949         63.9879         14.5062 
        1.24562         63.5089         14.3378 
        1.25174         63.2084         14.1723 
        1.25789         62.9897         14.0089 
        1.26402         62.5408         13.8485 
        1.27014         61.9973         13.6909 
        1.27628         61.7487         13.5354 
        1.28244         61.3272         13.3819 
        1.28858         61.1704         13.2311 
        1.29471         60.8323          13.083 
        1.30084         60.4458         12.9372 
        1.30697         60.0644         12.7935 
        1.31312         59.6958         12.6518 
        1.31925          59.419         12.5126 
        1.32537         59.2009         12.3757 
        1.33151         58.5951         12.2404 
        1.33765         58.3834         12.1072 
        1.34378         58.0376         11.9763 
        1.34992         57.7861         11.8472 
        1.35606         57.4827         11.7197 
         1.3622         57.0096         11.5944 
        1.36833         56.8143         11.4712 
        1.37445         56.5167         11.3498 
        1.38059         56.1044         11.2299 
        1.38675         55.8331         11.1114 
        1.39288         55.5052         10.9951 
        1.39901         55.3405         10.8805 
        1.40515         54.9877         10.7673 
         1.4113         54.7505         10.6558 
        1.41742         54.6085         10.5462 
        1.42355         54.0976         10.4381 
         1.4297         53.9649         10.3311 
        1.43585         53.5732         10.2256 
        1.44198         53.2574         10.1221 
        1.44809         53.0844         10.0201 
        1.45423          52.813         9.91924 
        1.46036         52.6155         9.81992 
        1.46649         52.3288         9.72193 
        1.47263         51.9504         9.62521 
        1.47877         51.7269         9.52985 
        1.48491         51.6414         9.43564 
        1.49104         51.2293         9.34291 
        1.49718         50.7891         9.25135 
        1.50333         50.6924         9.16089 
        1.50947         50.4886         9.07182 
         1.5156         50.1526         8.98408 
        1.52172         50.0161          8.8975 
        1.52787         49.8727         8.81189 
          1.534         49.4819         8.72751 
        1.54013         49.2021         8.64433 
        1.54627          49.083         8.56209 
        1.55241         48.6035         8.48091 
        1.55855         48.4717          8.4009 
        1.56467         48.1012         8.32215 
         1.5708         48.1416         8.24419 
        1.57695          47.865         8.16712 
        1.58308         47.5145         8.09121 
        1.58922         47.4567         8.01622 
        1.59535         47.2781         7.94221 
         1.6015         46.8243         7.86904 
        1.60764         46.6384         7.79682 
        1.61376         46.4433         7.72572 
        1.61989         46.1696         7.65544 
        1.62604         46.0245         7.58589 
        1.63218         45.9338         7.51725 
        1.63831         45.6101         7.44961 
        1.64444         45.3817         7.38279 
        1.65059         45.1592         7.31663 
        1.65673         44.9626         7.25135 
        1.66285          44.649         7.18706 
        1.66898         44.5089         7.12352 
        1.67512         44.2091         7.06064 
        1.68127         44.0184         6.99846 
         1.6874          43.877         6.93716 
        1.69353         43.6206         6.87665 
        1.69967         43.4479         6.81671 
        1.70581         43.3681         6.75752 
        1.71193         43.1576         6.69925 
        1.71806         42.7239         6.64155 
        1.72421         42.6587         6.58442 
        1.73035         42.4758         6.52803 
        1.73649         42.0996         6.47231 
        1.74262         42.0576         6.41729 
        1.74876         41.8854         6.36287 
        1.75489         41.6749          6.3092 
        1.76101         41.5103         6.25617 
        1.76715         41.2678         6.20367 
        1.77329         41.0924         6.15172 
        1.77943         40.8956         6.10034 
        1.78557         40.7316         6.04962 
        1.79171         40.5316         5.99947 
        1.79785         40.3135         5.94988 
        1.80399         40.2616         5.90087 
        1.81012         39.9767         5.85247 
        1.81625         39.7052         5.80465 
        1.82239          39.649         5.75728 
        1.82853         39.3742         5.71047 
        1.83466         39.2052         5.66423 
        1.84078         38.9548         5.61855 
        1.84692         38.8256          5.5733 
        1.85306         38.6263         5.52849 
         1.8592         38.3917         5.48425 
        1.86533         38.3198         5.44052 
        1.87147          38.196         5.39722 
        1.87761         38.0303         5.35437 
        1.88375         37.8084         5.31204 
        1.88988         37.7421         5.27021 
        1.89601         37.5096         5.22881 
        1.90215         37.3581         5.18782 
        1.90829         37.2791         5.14729 
        1.91442         37.0248          5.1072 
        1.92056         36.8054         5.06757 
         1.9267         36.6477         5.02831 
        1.93284         36.4826         4.98945 
        1.93897         36.3983         4.95108 
        1.94509         36.1438          4.9132 
        1.95123         36.0578         4.87561 
        1.95737         35.8387          4.8384 
        1.96349         35.6764         4.80167 
        1.96964         35.6298         4.76521 
        1.97578           35.35         4.72912 
        1.98192         35.2375         4.69347 
        1.98805         35.1393          4.6582 
        1.99419         34.9279         4.62328 
        2.00033         34.7695          4.5887 
        2.00647         34.5984         4.55449 
         2.0126         34.4208         4.52069 
        2.01874         34.3693         4.48718 
        2.02488         34.2153         4.45398 
        2.03101          34.029         4.42117 
        2.03714         33.8668         4.38873 
        2.04328         33.7156         4.35658 
        2.04941         33.5512         4.32478 
        2.05554         33.3967         4.29332 
        2.06167         33.3277         4.26213 
        2.06781         33.0997         4.23124 
        2.07396         33.0182         4.20062 
        2.08009         32.8981         4.17036 
        2.08622         32.6654         4.14043 
        2.09237         32.5484         4.11073 
        2.09851         32.4105         4.08133 
        2.10464         32.2909         4.05226 
        2.11077         32.2051          4.0235 
        2.11691         31.9854         3.99497 
        2.12305          31.862         3.96671 
        2.12918         31.7342         3.93879 
        2.13531          31.593         3.91114 
        2.14145         31.4822          3.8837 
         2.1476         31.3371         3.85648 
        2.15372         31.1667         3.82966 
        2.15985         31.0536         3.80307 
        2.16599         31.0111         3.77666 
        2.17213          30.881         3.75053 
        2.17827         30.6112         3.72465 
         2.1844          30.552         3.69904 
        2.19054         30.4311         3.67366 
        2.19666         30.2984         3.64856 
         2.2028         30.1132         3.62366 
        2.20893         30.0623         3.59899 
        2.21508         29.9544         3.57453 
        2.22122         29.7318         3.55028 
        2.22736         29.6802          3.5263 
        2.23349         29.5462         3.50256 
        2.23962         29.3798         3.47902 
        2.24577         29.2578         3.45568 
         2.2519         29.1579         3.43258 
        2.25802         29.0233         3.40974 
        2.26417         28.9277         3.38703 
        2.27031         28.8213         3.36452 
        2.27644         28.6309         3.34227 
        2.28257         28.5694         3.32023 
        2.28872          28.428         3.29835 
        2.29486         28.3657         3.27666 
        2.30099          28.186         3.25522 
        2.30712         28.1108         3.23396 
        2.31326         28.0148         3.21286 
         2.3194         27.8996         3.19195 
        2.32553         27.7547         3.17127 
        2.33166         27.6585         3.15078 
         2.3378          27.454         3.13044 
        2.34394         27.3779         3.11028 
        2.35007         27.2894         3.09032 
        2.35619         27.1771         3.07056 
        2.36233         27.0891         3.05093 
        2.36848         26.9541         3.03143 
        2.37462          26.834         3.01214 
        2.38075         26.7731         2.99304 
        2.38689         26.6674         2.97409 
        2.39303          26.509          2.9553 
        2.39916         26.3696          2.9367 
        2.40529          26.256         2.91826 
        2.41143         26.2022         2.89997 
        2.41757         26.1193         2.88182 
         2.4237         25.9752         2.86386 
        2.42983         25.8194         2.84606 
        2.43598         25.7463         2.82836 
        2.44211         25.6381         2.81085 
        2.44823         25.5442         2.79352 
        2.45437         25.4227         2.77629 
        2.46052         25.2776         2.75919 
        2.46665         25.2588         2.74226 
        2.47279          25.142         2.72549 
        2.47892         25.0274         2.70884 
        2.48507         24.9027         2.69232 
         2.4912         24.8547         2.67596 
