# k  (h/Mpc)    P(k)  (Mpc/h)^3    P_linear(k)  (Mpc/h)^3
     0.00783031         3838.46         3868.16 
       0.013688         4957.06         5042.38 
       0.019231         5306.74         5354.82 
      0.0249154         5189.88         5191.92 
      0.0312784          4697.2         4724.44 
      0.0375637         4149.03         4190.15 
      0.0433917         3737.08         3746.05 
      0.0492413          3364.7         3392.11 
      0.0555754         3102.17         3109.17 
      0.0619321         2835.75         2897.49 
       0.067871         2696.79         2728.06 
      0.0738098         2534.97         2557.32 
      0.0800417         2347.05         2361.52 
      0.0862327         2130.11         2151.82 
      0.0921407         1932.68          1950.6 
      0.0982031         1757.85         1759.62 
       0.104506         1575.55         1591.66 
       0.110769         1451.56         1461.55 
       0.116806         1378.11         1368.24 
       0.122832         1294.04         1298.22 
       0.129052         1239.27         1238.85 
       0.135211          1193.5         1182.25 
       0.141259         1122.35         1121.84 
       0.147318         1044.18         1054.43 
       0.153489         981.147         981.022 
       0.159709         922.568         907.466 
       0.165845         841.714         840.842 
       0.171974         808.923         784.082 
       0.178125         767.641         738.295 
       0.184229         718.806         702.825 
        0.19034         700.581         674.443 
       0.196428          677.06         649.743 
       0.202534         638.729         625.352 
       0.208729         624.118         598.858 
       0.214876         600.332         570.232 
       0.220989         559.671         540.245 
       0.227147         544.279         510.148 
        0.23329         520.748         481.995 
       0.239377         503.826         457.251 
       0.245482         477.862         436.127 
       0.251667         457.996         418.245 
       0.257832         452.026         403.094 
       0.263955         428.964         389.577 
       0.270079           415.3         376.503 
        0.27624         398.115         363.077 
       0.282372         387.568         349.154 
        0.28843         383.624         335.002 
       0.294538         365.126         320.792 
       0.300721          350.33         307.011 
        0.30691         344.048         294.299 
       0.313033          329.68         283.011 
       0.319153         323.691         273.023 
       0.325316         313.575         264.028 
        0.33145         305.462         255.816 
       0.337538         295.943         248.037 
       0.343633         287.182         240.368 
       0.349808         279.187         232.568 
       0.355968         272.512         224.763 
       0.362074         266.505         217.106 
       0.368217         261.358         209.637 
       0.374374         255.496         202.546 
       0.380519         244.859         195.946 
       0.386598         240.216         189.922 
       0.392688         234.338         184.337 
        0.39888         229.503         179.025 
       0.405048         225.065         173.995 
       0.411186          221.78         169.144 
       0.417313         216.687         164.392 
       0.423458         211.243         159.702 
       0.429607         207.285          155.09 
       0.435692         203.463         150.651 
       0.441815         198.416         146.354 
       0.447964         192.932         142.238 
       0.454126         189.533         138.331 
       0.460267         187.926         134.654 
       0.466387         183.956         131.172 
        0.47254         181.886         127.822 
       0.478662          176.03          124.61 
       0.484765          173.69         121.502 
       0.490885          170.39         118.458 
       0.497035         169.118         115.473 
       0.503198          165.53         112.565 
       0.509342         161.369         109.757 
       0.515458         159.776          107.06 
       0.521598         155.981         104.456 
       0.527764         154.329         101.951 
       0.533884          153.46         99.5642 
           0.54         149.529         97.2672 
       0.546137         146.098         95.0395 
       0.552299         144.478         92.8725 
       0.558452         141.893          90.772 
       0.564573         141.348          88.738 
       0.570708         137.465         86.7529 
       0.576825          135.98         84.8298 
       0.582926         134.534         82.9702 
       0.589034         132.508         81.1683 
       0.595184         131.073         79.4132 
       0.601379         127.828         77.7028 
       0.607522         126.143         76.0606 
       0.613639         125.047         74.4761 
       0.619772         123.175         72.9347 
       0.625918         121.947         71.4344 
       0.632068         119.902         69.9741 
       0.638161         117.983         68.5651 
         0.6443         117.378         67.1827 
       0.650464          115.18         65.8326 
       0.656582          114.69         64.5297 
       0.662703         113.323         63.2634 
       0.668861         110.931         62.0261 
       0.675024         110.858         60.8225 
       0.681124         109.105         59.6643 
       0.687237         107.007         58.5345 
       0.693381         106.551         57.4288 
       0.699536         105.319         56.3497 
       0.705665         103.672          55.303 
       0.711789         102.386         54.2839 
       0.717957         101.247         53.2837 
        0.72409         100.556         52.3146 
       0.730186         99.8147         51.3758 
       0.736317         98.0319         50.4553 
       0.742472         97.0622         49.5543 
       0.748622         95.6498         48.6764 
        0.75476         94.8764          47.822 
       0.760888         94.4983         46.9898 
       0.767043         92.8206         46.1744 
       0.773185          91.879         45.3803 
       0.779291         90.8607         44.6097 
       0.785407         89.6192         43.8562 
       0.791564         89.6707         43.1155 
       0.797719         88.6151         42.3926 
       0.803834          87.676          41.691 
       0.809972          87.036         41.0029 
       0.816124         86.1013         40.3291 
       0.822261         85.0023         39.6724 
       0.828378         84.7314         39.0325 
       0.834502         83.4987         38.4063 
       0.840667         83.0529         37.7899 
       0.846816         82.0761          37.189 
       0.852925         81.4759         36.6051 
       0.859047          81.102         36.0326 
       0.865192          79.836         35.4706 
       0.871341         79.0267         34.9204 
       0.877463         78.5905         34.3845 
       0.883569         78.3025         33.8613 
       0.889708         77.5694         33.3465 
       0.895864         76.8188         32.8411 
       0.902008         76.1218         32.3474 
       0.908149          75.431         31.8643 
       0.914301         75.0305         31.3903 
       0.920448         74.5796         30.9266 
       0.926574         73.2365         30.4739 
       0.932687         72.9532         30.0314 
       0.938823         72.3251         29.5962 
       0.944975         71.6005         29.1686 
       0.951105         71.0212         28.7512 
       0.957225         70.8929         28.3427 
       0.963368         70.1442         27.9409 
       0.969511         69.5366         27.5469 
       0.975621         69.0632         27.1627 
       0.981748         68.3568          26.785 
       0.987916         67.9001         26.4121 
        0.99406           67.45         26.0478 
        1.00019         66.8447         25.6912 
        1.00632         66.4083         25.3417 
        1.01246         65.9191         24.9982 
        1.01859         65.5473         24.6617 
        1.02471         64.7909         24.3319 
        1.03085         64.5441          24.007 
        1.03698         64.0738         23.6888 
        1.04314         63.6947         23.3751 
        1.04929         63.0807         23.0678 
        1.05541         62.7396         22.7674 
        1.06154         62.4624         22.4717 
        1.06769         61.6006         22.1808 
        1.07382         61.4169          21.896 
        1.07993         60.9863          21.617 
        1.08607         60.5252         21.3417 
        1.09222         60.2727         21.0709 
        1.09836         59.7552         20.8052 
        1.10449         59.4248         20.5445 
        1.11063         58.9228         20.2879 
        1.11677         58.8905         20.0359 
         1.1229         58.2237         19.7886 
        1.12903         58.0502         19.5453 
        1.13518         57.8544          19.306 
        1.14131          57.217         19.0708 
        1.14745         56.6554         18.8397 
        1.15359         56.2331         18.6125 
        1.15973         56.0649         18.3889 
        1.16584         55.7202           18.17 
        1.17197         55.0737         17.9544 
        1.17811         54.9003         17.7417 
        1.18424         54.2652          17.533 
        1.19038         54.1615         17.3272 
        1.19652         53.9357         17.1248 
        1.20267         53.5914         16.9256 
        1.20881         53.2164         16.7297 
        1.21495         52.9792         16.5372 
        1.22108         52.7601         16.3477 
         1.2272         52.3868         16.1618 
        1.23334         52.0506         15.9783 
        1.23949         51.7379         15.7973 
        1.24562          51.294         15.6196 
        1.25174         51.0347         15.4449 
        1.25789         51.0218         15.2723 
        1.26402         50.5934         15.1028 
        1.27014         50.2668         14.9363 
        1.27628         49.8366         14.7717 
        1.28244         49.7421         14.6094 
        1.28858         49.3473         14.4498 
        1.29471         49.1868         14.2929 
        1.30084         48.7597         14.1385 
        1.30697         48.6072         13.9862 
        1.31312         48.1972         13.8359 
        1.31925         47.8796         13.6883 
        1.32537         47.6886          13.543 
        1.33151         47.3806         13.3993 
        1.33765         47.2226         13.2579 
        1.34378         47.0091         13.1187 
        1.34992         46.6959         12.9815 
        1.35606         46.4353         12.8459 
         1.3622         46.0885         12.7125 
        1.36833         45.8557         12.5814 
        1.37445         45.5824         12.4522 
        1.38059         45.4084         12.3244 
        1.38675         44.9744         12.1981 
        1.39288         44.9462         12.0741 
        1.39901         44.6206         11.9519 
        1.40515         44.4331         11.8312 
         1.4113          44.394         11.7121 
        1.41742         44.1015         11.5952 
        1.42355         43.6834         11.4796 
         1.4297         43.4555         11.3653 
        1.43585         43.1743         11.2526 
        1.44198         43.0236         11.1419 
        1.44809         42.8114         11.0329 
        1.45423         42.6535         10.9249 
        1.46036         42.4211         10.8186 
        1.46649         42.2076         10.7137 
        1.47263         41.9175         10.6101 
        1.47877          41.798         10.5079 
        1.48491         41.6455         10.4069 
        1.49104         41.3126         10.3075 
        1.49718         41.1539         10.2093 
        1.50333         41.0454         10.1123 
        1.50947         40.7285         10.0167 
         1.5156          40.562         9.92248 
        1.52172         40.2354          9.8295 
        1.52787         40.0847         9.73753 
          1.534         39.9167         9.64685 
        1.54013          39.771         9.55743 
        1.54627          39.439         9.46899 
        1.55241         39.3248         9.38165 
        1.55855         39.1577         9.29555 
        1.56467         39.0485         9.21078 
         1.5708          38.824         9.12683 
        1.57695         38.6044          9.0438 
        1.58308         38.2915         8.96201 
        1.58922         38.1167         8.88117 
        1.59535         38.0159         8.80137 
         1.6015          37.867         8.72245 
        1.60764         37.7152         8.64454 
        1.61376         37.4836          8.5678 
        1.61989         37.2379         8.49194 
        1.62604         37.1141         8.41683 
        1.63218         36.9205         8.34268 
        1.63831         36.8268          8.2696 
        1.64444         36.6119         8.19738 
        1.65059         36.4294         8.12585 
        1.65673         36.2633         8.05526 
        1.66285         36.1406          7.9857 
        1.66898         35.9056         7.91696 
        1.67512         35.8244         7.84889 
        1.68127         35.6145         7.78156 
         1.6874         35.4575         7.71518 
        1.69353         35.3241         7.64962 
        1.69967         35.1502         7.58467 
        1.70581         34.8614         7.52051 
        1.71193         34.6834         7.45734 
        1.71806         34.6359         7.39476 
        1.72421         34.5341         7.33278 
        1.73035         34.2963         7.27159 
        1.73649         34.0886         7.21111 
        1.74262         33.9163         7.15137 
        1.74876         33.7587         7.09228 
        1.75489         33.6622         7.03397 
        1.76101         33.5525         6.97635 
        1.76715         33.3825         6.91929 
        1.77329         33.1914         6.86281 
        1.77943          33.123         6.80693 
        1.78557         32.9362         6.75176 
        1.79171         32.7809          6.6972 
        1.79785         32.6276         6.64323 
        1.80399         32.5138         6.58988 
        1.81012         32.3949         6.53718 
        1.81625         32.1541         6.48508 
        1.82239         32.0611         6.43348 
        1.82853         31.9227         6.38247 
        1.83466         31.7683         6.33206 
        1.84078         31.6068         6.28226 
        1.84692         31.5252         6.23291 
        1.85306         31.3251         6.18404 
         1.8592         31.2356         6.13576 
        1.86533         31.0376         6.08804 
        1.87147         30.9152         6.04077 
        1.87761          30.802         5.99398 
        1.88375         30.7449         5.94775 
        1.88988         30.4905         5.90206 
        1.89601         30.3838         5.85682 
        1.90215          30.263         5.81203 
        1.90829         30.1796         5.76773 
        1.91442         29.9309         5.72389 
        1.92056         29.8949         5.68054 
         1.9267         29.7608          5.6376 
        1.93284         29.6778         5.59509 
        1.93897         29.5166         5.55309 
        1.94509         29.3976         5.51162 
        1.95123         29.2312         5.47047 
        1.95737         29.1588         5.42971 
        1.96349         28.9767         5.38947 
        1.96964         28.9811         5.34953 
        1.97578         28.7582         5.30998 
        1.98192         28.6319         5.27091 
        1.98805         28.4246         5.23223 
        1.99419         28.4372         5.19394 
        2.00033         28.2767         5.15601 
        2.00647         28.1649         5.11848 
         2.0126         28.0174         5.08138 
        2.01874         27.8799          5.0446 
        2.02488         27.7715         5.00815 
        2.03101         27.6386         4.97213 
        2.03714         27.5188          4.9365 
        2.04328          27.438         4.90119 
        2.04941          27.301         4.86624 
        2.05554         27.2677         4.83167 
        2.06167          27.111         4.79738 
        2.06781         26.9903         4.76343 
        2.07396         26.9303         4.72975 
        2.08009         26.7779         4.69646 
        2.08622          26.652         4.66353 
        2.09237         26.5796         4.63086 
        2.09851         26.3674         4.59849 
        2.10464         26.3132         4.56649 
        2.11077         26.2874         4.53483 
        2.11691         26.1089          4.5034 
        2.12305         26.0246         4.47227 
        2.12918         25.9002         4.44151 
        2.13531         25.8191         4.41104 
        2.14145         25.6462         4.38079 
         2.1476         25.5219         4.35079 
        2.15372         25.4507         4.32122 
        2.15985         25.3764         4.29189 
        2.16599         25.2663         4.26276 
        2.17213         25.1956         4.23393 
        2.17827         25.0091         4.20537 
         2.1844         24.9495          4.1771 
        2.19054          24.891         4.14909 
        2.19666         24.7603         4.12137 
         2.2028         24.6897         4.09389 
        2.20893         24.4939         4.06664 
        2.21508         24.4333         4.03961 
        2.22122         24.3237         4.01281 
        2.22736         24.2765         3.98632 
        2.23349          24.167         3.96007 
        2.23962         24.1158         3.93405 
        2.24577         23.9732         3.90824 
         2.2519         23.8828          3.8827 
        2.25802         23.7053         3.85743 
        2.26417          23.668         3.83231 
        2.27031         23.5964          3.8074 
        2.27644         23.5546         3.78278 
        2.28257         23.3926         3.75838 
        2.28872         23.3499         3.73415 
        2.29486         23.2428         3.71014 
        2.30099         23.0908         3.68639 
        2.30712         23.0242         3.66284 
        2.31326         22.9351         3.63946 
         2.3194         22.8583         3.61629 
        2.32553         22.7668         3.59337 
        2.33166         22.6365         3.57066 
         2.3378         22.6113         3.54811 
        2.34394         22.4883         3.52575 
        2.35007         22.3869         3.50362 
        2.35619         22.3103          3.4817 
        2.36233         22.2252         3.45992 
        2.36848         22.1363         3.43828 
        2.37462         22.0302         3.41688 
        2.38075         21.9377         3.39568 
        2.38689         21.8634         3.37464 
        2.39303          21.781         3.35378 
        2.39916         21.6945         3.33312 
        2.40529         21.6015         3.31264 
        2.41143          21.528         3.29231 
        2.41757         21.4177         3.27215 
         2.4237         21.3465          3.2522 
        2.42983         21.2863         3.23241 
        2.43598         21.1969         3.21274 
        2.44211         21.0875         3.19326 
        2.44823         21.0594         3.17399 
        2.45437         20.9719         3.15483 
        2.46052         20.8522         3.13581 
        2.46665         20.8045         3.11698 
        2.47279         20.6708         3.09831 
        2.47892         20.6224         3.07978 
        2.48507         20.5408         3.06139 
         2.4912         20.4707         3.04318 
