# k  (h/Mpc)    P(k)  (Mpc/h)^3    P_linear(k)  (Mpc/h)^3
     0.00783031         370.062         373.627 
       0.013688          440.79         444.747 
       0.019231         431.632         432.977 
      0.0249154         383.236         383.061 
      0.0312784         316.004         315.578 
      0.0375637         257.913          257.67 
      0.0433917         219.428         218.656 
      0.0492413         193.318         193.027 
      0.0555754         176.608         175.978 
      0.0619321         163.598         164.123 
       0.067871         153.274         153.273 
      0.0738098          140.34         140.299 
      0.0800417         124.615         124.342 
      0.0862327         108.001         107.853 
      0.0921407         93.7659         93.5961 
      0.0982031         82.3499         81.9462 
       0.104506         73.5695         73.5135 
       0.110769         68.4001         68.3258 
       0.116806         65.5037         65.2545 
       0.122832         62.8625         62.8535 
       0.129052         60.1261         60.0018 
       0.135211         56.4521         56.2422 
       0.141259         51.7951         51.6998 
       0.147318         46.8113         46.8017 
       0.153489         42.2446         42.1045 
       0.159709         38.4047         38.1859 
       0.165845         35.3597         35.3357 
       0.171974         33.6663         33.4142 
       0.178125         32.3192         32.1281 
       0.184229         31.2123          31.119 
        0.19034         30.2462         30.0423 
       0.196428         28.8642         28.7021 
       0.202534          27.074         27.0608 
       0.208729         25.3737          25.213 
       0.214876         23.6396         23.3927 
       0.220989         21.8961         21.7745 
       0.227147         20.7095         20.4454 
        0.23329         19.7031         19.4348 
       0.239377         18.9542         18.6823 
       0.245482         18.3243         18.0725 
       0.251667         17.6583         17.4895 
       0.257832         17.1164         16.8575 
       0.263955           16.33          16.146 
       0.270079         15.5519         15.3649 
        0.27624         14.7084         14.5582 
       0.282372         13.9603         13.7938 
        0.28843         13.3704         13.1198 
       0.294538         12.7771         12.5443 
       0.300721         12.2378         12.0608 
        0.30691         11.8904         11.6515 
       0.313033         11.4993         11.2846 
       0.319153         11.2084         10.9249 
       0.325316         10.7281         10.5484 
        0.33145         10.3295         10.1559 
       0.337538         9.95063         9.75589 
       0.343633          9.5891          9.3617 
       0.349808         9.18987         8.98421 
       0.355968         8.83915         8.64191 
       0.362074         8.57413         8.33925 
       0.368217         8.28662         8.06798 
       0.374374          8.0764         7.82051 
       0.380519         7.79657         7.58666 
       0.386598         7.54945         7.36035 
       0.392688         7.30899         7.13325 
        0.39888         7.10165         6.90137 
       0.405048         6.88149         6.67303 
       0.411186         6.65385         6.45242 
       0.417313         6.44688         6.24333 
       0.423458         6.22519         6.04802 
       0.429607         6.07877         5.86655 
       0.435692         5.92064         5.69947 
       0.441815         5.73643         5.54115 
       0.447964         5.56194         5.38857 
       0.454126         5.43702         5.23945 
       0.460267         5.31295         5.09384 
       0.466387         5.15681         4.95137 
        0.47254         5.02772         4.81136 
       0.478662         4.88186         4.67678 
       0.484765         4.75669         4.54857 
       0.490885         4.61849         4.42627 
       0.497035         4.48679         4.30941 
       0.503198         4.39547         4.19808 
       0.509342         4.26893         4.09195 
       0.515458         4.18048         3.99002 
       0.521598         4.08285          3.8905 
       0.527764          3.9988         3.79312 
       0.533884         3.87437         3.69913 
           0.54         3.79522         3.60798 
       0.546137         3.69177         3.51942 
       0.552299         3.61207         3.43359 
       0.558452         3.52697         3.35117 
       0.564573         3.45279         3.27246 
       0.570708         3.37636         3.19657 
       0.576825         3.30258         3.12351 
       0.582926         3.22309         3.05289 
       0.589034         3.16445         2.98416 
       0.595184         3.10388         2.91693 
       0.601379         3.02537          2.8512 
       0.607522         2.95668         2.78795 
       0.613639         2.88803         2.72687 
       0.619772          2.8399         2.66749 
       0.625918         2.77978         2.60983 
       0.632068         2.72478         2.55394 
       0.638161         2.66806         2.50031 
         0.6443         2.61137         2.44794 
       0.650464         2.55989         2.39694 
       0.656582         2.51979         2.34777 
       0.662703         2.46824         2.29993 
       0.668861         2.40716          2.2531 
       0.675024         2.36373         2.20749 
       0.681124         2.34242         2.16358 
       0.687237         2.28535         2.12078 
       0.693381         2.23007         2.07897 
       0.699536           2.203         2.03826 
       0.705665         2.16121         1.99887 
       0.711789         2.11216          1.9606 
       0.717957         2.07536         1.92309 
        0.72409         2.03955         1.88678 
       0.730186         2.01403         1.85163 
       0.736317          1.9674         1.81718 
       0.742472         1.93997         1.78347 
       0.748622         1.90842         1.75064 
        0.75476         1.86535         1.71872 
       0.760888         1.84165         1.68764 
       0.767043         1.79328         1.65722 
       0.773185         1.77103         1.62762 
       0.779291         1.75249         1.59893 
       0.785407         1.71755          1.5709 
       0.791564         1.68783         1.54338 
       0.797719         1.65921         1.51654 
       0.803834         1.63267         1.49052 
       0.809972         1.60605         1.46502 
       0.816124         1.58077         1.44007 
       0.822261         1.55685         1.41577 
       0.828378         1.53056         1.39211 
       0.834502         1.50559         1.36897 
       0.840667         1.48647         1.34621 
       0.846816         1.46022         1.32404 
       0.852925         1.43513         1.30251 
       0.859047         1.41375         1.28142 
       0.865192         1.39368         1.26073 
       0.871341         1.37486         1.24048 
       0.877463         1.34865         1.22078 
       0.883569          1.3308         1.20156 
       0.889708          1.3142         1.18266 
       0.895864         1.29465         1.16412 
       0.902008         1.27157         1.14602 
       0.908149         1.25546         1.12832 
       0.914301         1.23969         1.11097 
       0.920448         1.22313           1.094 
       0.926574         1.20873         1.07745 
       0.932687         1.19011         1.06128 
       0.938823         1.16739         1.04539 
       0.944975         1.15579         1.02978 
       0.951105         1.13312         1.01456 
       0.957225          1.1207        0.999672 
       0.963368         1.10774        0.985035 
       0.969511         1.09411        0.970694 
       0.975621         1.07569        0.956717 
       0.981748         1.05677        0.942983 
       0.987916         1.04535        0.929433 
        0.99406          1.0345        0.916203 
        1.00019         1.01958        0.903259 
        1.00632         1.00966        0.890579 
        1.01246        0.995069        0.878125 
        1.01859        0.982724        0.865932 
        1.02471        0.965928        0.853987 
        1.03085        0.953148        0.842228 
        1.03698        0.944106        0.830716 
        1.04314        0.931462        0.819373 
        1.04929        0.922342         0.80827 
        1.05541         0.90637        0.797418 
        1.06154        0.897889         0.78674 
        1.06769        0.887627        0.776242 
        1.07382        0.875491        0.765972 
        1.07993        0.864657        0.755912 
        1.08607        0.855114        0.745993 
        1.09222        0.842775        0.736243 
        1.09836        0.834807         0.72668 
        1.10449        0.821735        0.717299 
        1.11063        0.812051        0.708074 
        1.11677         0.80447        0.699016 
         1.1229        0.791775        0.690134 
        1.12903        0.785417        0.681399 
        1.13518        0.774729        0.672808 
        1.14131        0.767169        0.664372 
        1.14745        0.759825        0.656086 
        1.15359        0.749189        0.647941 
        1.15973        0.741425        0.639931 
        1.16584        0.731838        0.632094 
        1.17197        0.722665        0.624378 
        1.17811        0.714319        0.616768 
        1.18424        0.706685        0.609308 
        1.19038         0.69766         0.60195 
        1.19652         0.69245        0.594718 
        1.20267        0.685776        0.587605 
        1.20881        0.674702        0.580611 
        1.21495        0.668911        0.573743 
        1.22108        0.662155        0.566987 
         1.2272        0.652964        0.560357 
        1.23334        0.646908        0.553818 
        1.23949        0.641115        0.547369 
        1.24562         0.63377        0.541041 
        1.25174        0.627544        0.534823 
        1.25789        0.618619        0.528685 
        1.26402         0.61335        0.522655 
        1.27014        0.604892        0.516734 
        1.27628        0.600892        0.510887 
        1.28244        0.594339         0.50512 
        1.28858        0.586744        0.499451 
        1.29471        0.581066        0.493881 
        1.30084        0.575587        0.488402 
        1.30697        0.571361        0.482999 
        1.31312        0.564868        0.477669 
        1.31925        0.558713        0.472437 
        1.32537        0.553477        0.467289 
        1.33151        0.547361          0.4622 
        1.33765        0.541963        0.457189 
        1.34378        0.535788        0.452264 
        1.34992        0.532522        0.447408 
        1.35606        0.525697        0.442613 
         1.3622        0.521247        0.437897 
        1.36833        0.516793        0.433262 
        1.37445        0.511534        0.428696 
        1.38059        0.506504        0.424183 
        1.38675        0.501103        0.419724 
        1.39288         0.49575        0.415348 
        1.39901        0.491898        0.411036 
        1.40515        0.486744        0.406776 
         1.4113        0.483907        0.402578 
        1.41742         0.47839        0.398456 
        1.42355        0.472034        0.394384 
         1.4297        0.469727        0.390358 
        1.43585        0.464169        0.386389 
        1.44198        0.460704        0.382491 
        1.44809        0.455715        0.378655 
        1.45423        0.452095        0.374857 
        1.46036        0.447807        0.371118 
        1.46649        0.443465         0.36743 
        1.47263        0.438673        0.363788 
        1.47877        0.437409        0.360198 
        1.48491        0.430593        0.356651 
        1.49104        0.429124         0.35316 
        1.49718        0.423718        0.349713 
        1.50333        0.420724        0.346306 
        1.50947        0.417376        0.342952 
         1.5156        0.413233        0.339648 
        1.52172        0.409899        0.336387 
        1.52787        0.405199        0.333163 
          1.534         0.40298        0.329985 
        1.54013        0.399203        0.326852 
        1.54627        0.396002        0.323754 
        1.55241        0.392228        0.320696 
        1.55855         0.38891        0.317682 
        1.56467        0.385868        0.314715 
         1.5708        0.382087        0.311778 
        1.57695        0.378769        0.308874 
        1.58308        0.374675        0.306014 
        1.58922        0.372808        0.303189 
        1.59535        0.368954          0.3004 
         1.6015        0.366145        0.297642 
        1.60764        0.362865        0.294921 
        1.61376         0.35997        0.292241 
        1.61989        0.356928        0.289593 
        1.62604        0.353501        0.286972 
        1.63218        0.351647        0.284385 
        1.63831        0.348095        0.281835 
        1.64444        0.345805        0.279317 
        1.65059        0.342268        0.276823 
        1.65673        0.339709        0.274362 
        1.66285        0.337319        0.271939 
        1.66898        0.334526        0.269544 
        1.67512        0.331272        0.267173 
        1.68127        0.328586        0.264829 
         1.6874        0.326587        0.262518 
        1.69353        0.323608        0.260237 
        1.69967        0.321132        0.257977 
        1.70581        0.319103        0.255745 
        1.71193        0.316788        0.253548 
        1.71806        0.314128        0.251372 
        1.72421        0.311328        0.249218 
        1.73035        0.308512        0.247091 
        1.73649        0.307249         0.24499 
        1.74262        0.303798        0.242915 
        1.74876        0.302113        0.240863 
        1.75489        0.300013        0.238838 
        1.76101        0.297281        0.236838 
        1.76715        0.295229        0.234858 
        1.77329        0.292853        0.232898 
        1.77943        0.290489         0.23096 
        1.78557        0.289151        0.229047 
        1.79171        0.286888        0.227155 
        1.79785        0.284227        0.225284 
        1.80399        0.281481        0.223435 
        1.81012        0.280319        0.221609 
        1.81625        0.278576        0.219804 
        1.82239        0.276798        0.218017 
        1.82853        0.273889        0.216251 
        1.83466        0.271885        0.214506 
        1.84078        0.269914        0.212782 
        1.84692        0.268184        0.211075 
        1.85306        0.266474        0.209384 
         1.8592        0.264465        0.207714 
        1.86533        0.262856        0.206064 
        1.87147        0.260218         0.20443 
        1.87761        0.258549        0.202813 
        1.88375        0.256807        0.201215 
        1.88988        0.254576        0.199636 
        1.89601        0.252504        0.198073 
        1.90215        0.251329        0.196526 
        1.90829        0.249087        0.194997 
        1.91442        0.248049        0.193483 
        1.92056        0.246579        0.191987 
         1.9267        0.244334        0.190505 
        1.93284        0.242343        0.189038 
        1.93897         0.24102         0.18759 
        1.94509        0.239638        0.186159 
        1.95123        0.237315         0.18474 
        1.95737        0.235915        0.183335 
        1.96349        0.234275        0.181948 
        1.96964        0.232642        0.180572 
        1.97578        0.230929        0.179209 
        1.98192        0.229925        0.177863 
        1.98805        0.228304        0.176531 
        1.99419        0.227114        0.175213 
        2.00033        0.225172        0.173907 
        2.00647         0.22378        0.172615 
         2.0126        0.222297        0.171338 
        2.01874        0.220882        0.170072 
        2.02488        0.219383        0.168818 
        2.03101        0.217692         0.16758 
        2.03714        0.217121        0.166354 
        2.04328        0.214857         0.16514 
        2.04941        0.214045        0.163938 
        2.05554        0.212536         0.16275 
        2.06167        0.211051        0.161572 
        2.06781        0.209073        0.160405 
        2.07396        0.208441        0.159248 
        2.08009        0.206846        0.158105 
        2.08622        0.205775        0.156974 
        2.09237        0.204432        0.155852 
        2.09851        0.202737        0.154741 
        2.10464        0.201721        0.153643 
        2.11077        0.200081        0.152556 
        2.11691        0.199132        0.151478 
        2.12305        0.197816         0.15041 
        2.12918        0.196406        0.149355 
        2.13531        0.195376         0.14831 
        2.14145        0.194054        0.147273 
         2.1476        0.192952        0.146245 
        2.15372        0.192041        0.145231 
        2.15985        0.190358        0.144226 
        2.16599        0.189341        0.143228 
        2.17213        0.188375         0.14224 
        2.17827        0.187037        0.141262 
         2.1844        0.186195        0.140294 
        2.19054        0.185025        0.139335 
        2.19666        0.183891        0.138386 
         2.2028        0.182221        0.137445 
        2.20893        0.181536        0.136512 
        2.21508        0.180547        0.135588 
        2.22122        0.179594        0.134671 
        2.22736        0.178063        0.133765 
        2.23349        0.176879        0.132867 
        2.23962        0.176058        0.131977 
        2.24577        0.175184        0.131095 
         2.2519         0.17417        0.130222 
        2.25802        0.172962        0.129358 
        2.26417        0.172229        0.128499 
        2.27031        0.171031        0.127648 
        2.27644        0.170613        0.126807 
        2.28257        0.169138        0.125974 
        2.28872        0.168233        0.125146 
        2.29486        0.167301        0.124326 
        2.30099        0.166111        0.123515 
        2.30712        0.165296        0.122711 
        2.31326        0.164184        0.121913 
         2.3194        0.163447        0.121123 
        2.32553        0.162506        0.120341 
        2.33166        0.161608        0.119566 
         2.3378        0.160669        0.118796 
        2.34394        0.159762        0.118034 
        2.35007         0.15885        0.117279 
        2.35619        0.157929        0.116532 
        2.36233        0.157077        0.115789 
        2.36848        0.156193        0.115052 
        2.37462        0.155629        0.114322 
        2.38075        0.154676        0.113599 
        2.38689        0.153828        0.112882 
        2.39303        0.152944        0.112172 
        2.39916        0.152022        0.111468 
        2.40529        0.151167        0.110771 
        2.41143        0.150146        0.110079 
        2.41757         0.14949        0.109392 
         2.4237        0.148682        0.108713 
        2.42983        0.148103        0.108039 
        2.43598        0.147165         0.10737 
        2.44211          0.1459        0.106707 
        2.44823        0.145713        0.106051 
        2.45437        0.144898        0.105399 
        2.46052        0.144015        0.104752 
        2.46665         0.14327        0.104112 
        2.47279        0.142416        0.103477 
        2.47892        0.141995        0.102847 
        2.48507         0.14087        0.102222 
         2.4912        0.140318        0.101603 
