# k  (h/Mpc)    P(k)  (Mpc/h)^3    P_linear(k)  (Mpc/h)^3
     0.00783031         17618.8         17880.5 
       0.013688         20154.3         19951.8 
       0.019231         18597.1         18518.9 
      0.0249154         15465.9           15744 
      0.0312784         12502.7         12573.6 
      0.0375637         10207.2         10134.6 
      0.0433917         8544.72         8619.41 
      0.0492413         7668.67         7666.85 
      0.0555754         6842.13         6999.79 
      0.0619321         6497.82         6435.75 
       0.067871         5751.25          5848.3 
      0.0738098         5110.95         5173.58 
      0.0800417         4372.12         4439.47 
      0.0862327         3802.03         3785.13 
      0.0921407         3392.83         3296.99 
      0.0982031         3015.38         2950.63 
       0.104506         2865.29         2726.74 
       0.110769          2689.1         2584.25 
       0.116806         2547.97         2464.48 
       0.122832         2407.91         2321.67 
       0.129052         2184.58         2136.06 
       0.135211         2005.39         1927.63 
       0.141259         1863.13         1726.27 
       0.147318         1716.41         1552.73 
       0.153489         1562.24         1418.26 
       0.159709         1481.36         1325.04 
       0.165845         1429.33         1262.94 
       0.171974         1362.71         1214.16 
       0.178125         1299.88         1163.57 
       0.184229         1235.58          1103.2 
        0.19034         1148.88         1032.13 
       0.196428         1107.42         956.507 
       0.202534          1053.7          883.95 
       0.208729         991.861         820.509 
       0.214876         943.744          770.67 
       0.220989         908.817         733.034 
       0.227147          872.77         703.295 
        0.23329         837.437         676.968 
       0.239377         819.064         650.242 
       0.245482         762.076         620.801 
       0.251667         753.399         588.463 
       0.257832          719.53         555.587 
       0.263955         692.173         524.623 
       0.270079         663.145         497.092 
        0.27624         653.394         473.637 
       0.282372         627.593         454.056 
        0.28843         614.844         437.294 
       0.294538         582.577         421.609 
       0.300721         578.341         405.869 
        0.30691         552.543         389.675 
       0.313033         540.276         373.301 
       0.319153         524.501         357.092 
       0.325316         508.591         341.561 
        0.33145         493.297         327.369 
       0.337538         484.089         314.738 
       0.343633         469.626         303.392 
       0.349808         451.968         292.916 
       0.355968         447.856          283.05 
       0.362074         441.025         273.545 
       0.368217         427.668          264.08 
       0.374374         408.731         254.692 
       0.380519         406.928         245.561 
       0.386598         395.429         236.906 
       0.392688         392.102         228.752 
        0.39888         380.705         221.046 
       0.405048         372.647         213.901 
       0.411186         366.452         207.237 
       0.417313         358.751         200.909 
       0.423458         350.741         194.775 
       0.429607         345.677         188.804 
       0.435692         336.342         183.057 
       0.441815         332.713         177.443 
       0.447964         325.569         172.022 
       0.454126         318.297         166.847 
       0.460267         312.021         161.951 
       0.466387         307.853         157.313 
        0.47254         302.318         152.873 
       0.478662         300.919         148.644 
       0.484765         289.773         144.579 
       0.490885         286.941         140.628 
       0.497035         281.478         136.782 
       0.503198          277.29         133.059 
       0.509342         275.308         129.479 
       0.515458         271.465         126.049 
       0.521598         264.355          122.74 
       0.527764         261.048         119.552 
       0.533884         258.278         116.514 
           0.54         254.397          113.59 
       0.546137         252.931         110.755 
       0.552299         247.671         107.998 
       0.558452         246.304         105.334 
       0.564573         242.804          102.77 
       0.570708         237.517         100.285 
       0.576825          233.51           97.89 
       0.582926         231.201         95.5811 
       0.589034         228.877          93.346 
       0.595184         226.929         91.1706 
       0.601379         222.898         89.0526 
       0.607522          219.98         87.0205 
       0.613639         218.217         85.0606 
       0.619772         214.001         83.1557 
       0.625918         212.752          81.304 
       0.632068         209.194         79.5065 
       0.638161          208.09         77.7788 
         0.6443         204.751         76.0903 
       0.650464         202.798         74.4465 
       0.656582         200.112         72.8643 
       0.662703         199.885         71.3287 
       0.668861          196.47         69.8294 
       0.675024         193.762         68.3725 
       0.681124         192.347          66.972 
       0.687237          190.12         65.6077 
       0.693381         187.081         64.2748 
       0.699536         185.544         62.9765 
       0.705665          183.76         61.7196 
       0.711789         182.211         60.4983 
       0.717957         181.504         59.3018 
        0.72409          179.22         58.1445 
       0.730186         177.021         57.0254 
       0.736317         174.954         55.9299 
       0.742472         173.723         54.8594 
       0.748622         172.263          53.818 
        0.75476          170.48          52.806 
       0.760888         168.695         51.8216 
       0.767043         168.204         50.8584 
       0.773185         166.706         49.9217 
       0.779291         163.475          49.014 
       0.785407         162.979         48.1276 
       0.791564         161.543         47.2575 
       0.797719         158.946         46.4095 
       0.803834         158.077         45.5877 
       0.809972         157.413         44.7829 
       0.816124         156.453         43.9959 
       0.822261         155.219         43.2299 
       0.828378         153.463         42.4845 
       0.834502         152.766         41.7562 
       0.840667         150.817         41.0402 
       0.846816         149.487         40.3431 
       0.852925         148.707         39.6667 
       0.859047         147.455         39.0044 
       0.865192         145.647         38.3551 
       0.871341         144.513         37.7201 
       0.877463         143.488         37.1025 
       0.883569         143.154         36.5003 
       0.889708           141.4         35.9084 
       0.895864          140.15         35.3282 
       0.902008         139.124         34.7621 
       0.908149         138.746         34.2087 
       0.914301         136.841         33.6665 
       0.920448         136.039         33.1366 
       0.926574         134.962           32.62 
       0.932687         134.974         32.1155 
       0.938823         133.023         31.6199 
       0.944975         132.306         31.1336 
       0.951105         131.344         30.6593 
       0.957225         130.483         30.1958 
       0.963368         128.575         29.7402 
       0.969511           128.3         29.2941 
       0.975621         127.206         28.8595 
       0.981748         127.089         28.4326 
       0.987916         125.763         28.0116 
        0.99406         124.725         27.6008 
        1.00019         124.493          27.199 
        1.00632         123.174         26.8056 
        1.01246          122.48         26.4194 
        1.01859          122.01         26.0414 
        1.02471          120.46         25.6713 
        1.03085         119.437         25.3071 
        1.03698         118.998         24.9508 
        1.04314         117.737         24.5998 
        1.04929         117.451         24.2564 
        1.05541          116.74         23.9209 
        1.06154         115.932         23.5909 
        1.06769         115.653         23.2667 
        1.07382          114.48         22.9496 
        1.07993         113.753         22.6392 
        1.08607         113.048         22.3332 
        1.09222         112.659         22.0326 
        1.09836         111.666         21.7379 
        1.10449         110.615         21.4489 
        1.11063         109.952         21.1648 
        1.11677         109.368         20.8861 
         1.1229         108.621         20.6128 
        1.12903         108.249         20.3442 
        1.13518         107.731         20.0801 
        1.14131         106.645         19.8209 
        1.14745         106.415         19.5664 
        1.15359         105.504         19.3163 
        1.15973         105.051         19.0705 
        1.16584         104.068         18.8301 
        1.17197         103.558         18.5935 
        1.17811         102.955         18.3602 
        1.18424         102.609         18.1316 
        1.19038         102.311         17.9063 
        1.19652         101.383         17.6848 
        1.20267         100.732         17.4671 
        1.20881          100.25         17.2531 
        1.21495         99.3396         17.0431 
        1.22108         99.0167         16.8365 
         1.2272         98.1333         16.6339 
        1.23334         97.7676         16.4341 
        1.23949         97.2602         16.2371 
        1.24562         96.6107         16.0439 
        1.25174         96.1997         15.8541 
        1.25789         95.6562         15.6668 
        1.26402         94.5355         15.4828 
        1.27014          94.236         15.3023 
        1.27628         93.9349         15.1241 
        1.28244         93.6008         14.9484 
        1.28858          93.095         14.7757 
        1.29471         92.2736         14.6061 
        1.30084         92.1464         14.4394 
        1.30697         91.1959          14.275 
        1.31312          90.793         14.1129 
        1.31925         90.1982         13.9538 
        1.32537         89.8508         13.7974 
        1.33151          89.171         13.6428 
        1.33765          88.707         13.4906 
        1.34378         88.3295         13.3411 
        1.34992         88.0482         13.1937 
        1.35606         87.5468         13.0482 
         1.3622         86.8041         12.9052 
        1.36833         86.4168         12.7647 
        1.37445         86.0196         12.6263 
        1.38059         85.3187         12.4896 
        1.38675         84.8195         12.3545 
        1.39288         84.7781          12.222 
        1.39901         84.2187         12.0915 
        1.40515         83.5637         11.9626 
         1.4113         83.2877         11.8356 
        1.41742         82.7481          11.711 
        1.42355          82.365         11.5879 
         1.4297         82.0383         11.4662 
        1.43585         81.4399         11.3463 
        1.44198         80.9897         11.2285 
        1.44809         80.7185         11.1127 
        1.45423         80.4483         10.9981 
        1.46036          79.883         10.8852 
        1.46649         79.3457          10.774 
        1.47263         78.8275         10.6641 
        1.47877         78.5795         10.5559 
        1.48491         78.0549          10.449 
        1.49104         77.8709         10.3438 
        1.49718         77.4713           10.24 
        1.50333         77.0679         10.1374 
        1.50947         76.5435         10.0364 
         1.5156         76.3036         9.93695 
        1.52172         75.8517         9.83884 
        1.52787         75.4328         9.74186 
          1.534         74.9771          9.6463 
        1.54013         74.6082         9.55212 
        1.54627         74.3564         9.45902 
        1.55241         73.9017         9.36715 
        1.55855         73.5069         9.27662 
        1.56467         73.2775         9.18754 
         1.5708         72.7526         9.09937 
        1.57695         72.6637         9.01223 
        1.58308         72.1747         8.92643 
        1.58922          71.859         8.84168 
        1.59535         71.5369         8.75806 
         1.6015          71.097          8.6754 
        1.60764          70.788         8.59385 
        1.61376         70.4862         8.51357 
        1.61989         70.1135         8.43425 
        1.62604         69.7313         8.35576 
        1.63218            69.6         8.27831 
        1.63831          68.851         8.20203 
        1.64444         68.5718         8.12667 
        1.65059         68.3675         8.05208 
        1.65673         67.8923          7.9785 
        1.66285         67.6739         7.90605 
        1.66898         67.4423         7.83447 
        1.67512         66.8444         7.76364 
        1.68127         66.7324         7.69361 
         1.6874         66.2218         7.62461 
        1.69353         65.9257         7.55649 
        1.69967         65.7493         7.48904 
        1.70581         65.4037         7.42244 
        1.71193         65.0771          7.3569 
        1.71806         64.7621         7.29201 
        1.72421          64.475         7.22777 
        1.73035          64.152         7.16438 
        1.73649         63.8947         7.10176 
        1.74262         63.4696         7.03993 
        1.74876         63.2742          6.9788 
        1.75489         62.8948         6.91852 
        1.76101          62.652         6.85896 
        1.76715         62.1752         6.80002 
        1.77329         61.9939          6.7417 
        1.77943         61.6648         6.68404 
        1.78557         61.4899         6.62713 
        1.79171         60.9982         6.57088 
        1.79785         60.6604         6.51526 
        1.80399         60.5089          6.4603 
        1.81012         60.2809         6.40605 
        1.81625         59.9737         6.35244 
        1.82239         59.6646         6.29936 
        1.82853         59.4331         6.24691 
        1.83466         59.1796         6.19511 
        1.84078         58.7119         6.14395 
        1.84692         58.5712         6.09329 
        1.85306         58.2577         6.04313 
         1.8592         58.0667         5.99361 
        1.86533          57.713         5.94467 
        1.87147         57.3069         5.89622 
        1.87761         57.2031         5.84829 
        1.88375         56.9616         5.80095 
        1.88988         56.5233         5.75418 
        1.89601         56.4338          5.7079 
        1.90215         55.9212         5.66208 
        1.90829         55.7316          5.6168 
        1.91442         55.5791           5.572 
        1.92056         55.2955         5.52773 
         1.9267         55.0192         5.48389 
        1.93284         54.7196          5.4405 
        1.93897         54.5068         5.39767 
        1.94509         54.3427         5.35538 
        1.95123         54.0096         5.31344 
        1.95737         53.7223         5.27192 
        1.96349         53.4541         5.23094 
        1.96964         53.1847         5.19029 
        1.97578         52.9302         5.15004 
        1.98192         52.9195          5.1103 
        1.98805         52.4474         5.07098 
        1.99419         52.2606         5.03206 
        2.00033          52.058         4.99354 
        2.00647          51.817         4.95543 
         2.0126         51.4672         4.91777 
        2.01874         51.2133         4.88045 
        2.02488         51.0931         4.84349 
        2.03101         50.8297         4.80697 
        2.03714         50.5231         4.77086 
        2.04328         50.3291         4.73508 
        2.04941         50.0942          4.6997 
        2.05554         49.9328          4.6647 
        2.06167         49.7402         4.63001 
        2.06781          49.364         4.59567 
        2.07396         49.2081         4.56163 
        2.08009         49.0424         4.52798 
        2.08622         48.6869         4.49472 
        2.09237         48.5438         4.46172 
        2.09851          48.417         4.42905 
        2.10464         48.0721         4.39675 
        2.11077          47.884         4.36482 
        2.11691         47.5994         4.33313 
        2.12305         47.4625         4.30176 
        2.12918         47.2737         4.27077 
        2.13531         46.9085         4.24008 
        2.14145         46.7407         4.20962 
         2.1476         46.5304         4.17943 
        2.15372         46.3529         4.14968 
        2.15985         46.1547         4.12019 
        2.16599         45.9359          4.0909 
        2.17213          45.774         4.06192 
        2.17827         45.5235         4.03324 
         2.1844         45.2664         4.00485 
        2.19054         45.0412         3.97672 
        2.19666         44.8874         3.94891 
         2.2028         44.7922         3.92133 
        2.20893         44.4922         3.89401 
        2.21508         44.3612         3.86691 
        2.22122         44.1428         3.84006 
        2.22736         43.8855         3.81352 
        2.23349         43.7319         3.78724 
        2.23962          43.488         3.76119 
        2.24577         43.2216         3.73536 
         2.2519         43.0994         3.70981 
        2.25802         42.9423         3.68454 
        2.26417         42.7063         3.65943 
        2.27031         42.5723         3.63454 
        2.27644         42.3169         3.60994 
        2.28257         42.1205         3.58558 
        2.28872         41.8875         3.56139 
        2.29486         41.7643         3.53743 
        2.30099         41.5866         3.51374 
        2.30712          41.401         3.49025 
        2.31326         41.1513         3.46694 
         2.3194         40.9845         3.44385 
        2.32553         40.7997         3.42101 
        2.33166         40.5639         3.39839 
         2.3378         40.4396         3.37594 
        2.34394         40.2682         3.35369 
        2.35007         40.0936         3.33167 
        2.35619         39.8912         3.30987 
        2.36233          39.696         3.28821 
        2.36848         39.5829          3.2667 
        2.37462         39.3473         3.24543 
        2.38075         39.2604         3.22437 
        2.38689          39.052         3.20347 
        2.39303         38.8067         3.18277 
        2.39916         38.6499         3.16227 
        2.40529         38.5652         3.14195 
        2.41143         38.3797         3.12179 
        2.41757         38.1868          3.1018 
         2.4237         37.9946         3.08202 
        2.42983          37.849         3.06242 
        2.43598         37.6931         3.04293 
        2.44211         37.5104         3.02365 
        2.44823           37.37         3.00457 
        2.45437         37.1618         2.98561 
        2.46052           37.01         2.96679 
        2.46665         36.8768         2.94817 
        2.47279         36.6014         2.92972 
        2.47892         36.5213         2.91141 
        2.48507         36.3647         2.89323 
         2.4912         36.2372         2.87525 
