# k  (h/Mpc)    P(k)  (Mpc/h)^3    P_linear(k)  (Mpc/h)^3
     0.00783031         10203.4         10358.5 
       0.013688         11627.2         11562.2 
       0.019231         10763.9         10733.6 
      0.0249154         9007.13         9126.25 
      0.0312784         7268.83         7289.07 
      0.0375637         5914.02         5875.48 
      0.0433917         4971.09         4997.21 
      0.0492413          4450.4         4445.08 
      0.0555754         3994.85         4058.42 
      0.0619321         3766.25         3731.46 
       0.067871          3354.2          3390.9 
      0.0738098         2975.02         2999.72 
      0.0800417         2545.07          2574.1 
      0.0862327          2201.4         2194.71 
      0.0921407         1948.09         1911.69 
      0.0982031         1731.34         1710.87 
       0.104506          1636.2         1581.06 
       0.110769         1539.32         1498.44 
       0.116806         1455.85            1429 
       0.122832         1378.79          1346.2 
       0.129052         1253.41         1238.58 
       0.135211         1144.21         1117.73 
       0.141259         1051.59         1000.97 
       0.147318         961.702         900.343 
       0.153489         874.682         822.376 
       0.159709         826.389          768.32 
       0.165845         795.504         732.314 
       0.171974         756.384         704.029 
       0.178125         724.548         674.694 
       0.184229         689.932          639.69 
        0.19034         636.481         598.483 
       0.196428          609.86         554.632 
       0.202534          578.46          512.56 
       0.208729         540.378         475.774 
       0.214876         509.398         446.875 
       0.220989         490.349         425.052 
       0.227147         468.301         407.808 
        0.23329         449.916         392.542 
       0.239377         438.385         377.046 
       0.245482         407.589         359.974 
       0.251667         400.017         341.223 
       0.257832         382.518          322.16 
       0.263955         365.864         304.205 
       0.270079          349.15         288.242 
        0.27624         342.178         274.641 
       0.282372         329.307         263.287 
        0.28843         318.185         253.568 
       0.294538         303.163         244.473 
       0.300721         299.522         235.345 
        0.30691         285.068         225.955 
       0.313033         277.673         216.461 
       0.319153         266.392         207.062 
       0.325316         259.003         198.057 
        0.33145         249.432         189.827 
       0.337538         244.919         182.503 
       0.343633         236.178         175.924 
       0.349808         228.032          169.85 
       0.355968         224.434         164.129 
       0.362074         218.847         158.617 
       0.368217         212.355         153.129 
       0.374374         204.074         147.685 
       0.380519         201.022         142.391 
       0.386598         195.502         137.372 
       0.392688         192.319         132.644 
        0.39888         187.124         128.175 
       0.405048         182.059         124.032 
       0.411186          178.08         120.168 
       0.417313         174.164         116.499 
       0.423458         170.243         112.942 
       0.429607         166.424          109.48 
       0.435692         161.126         106.147 
       0.441815          159.52         102.892 
       0.447964         156.288         99.7484 
       0.454126         149.834         96.7475 
       0.460267         147.919         93.9084 
       0.466387         145.885         91.2193 
        0.47254         142.274         88.6447 
       0.478662         141.415         86.1922 
       0.484765         136.556         83.8353 
       0.490885         134.452         81.5445 
       0.497035          132.48         79.3144 
       0.503198         128.889         77.1553 
       0.509342         126.959         75.0795 
       0.515458         124.961         73.0904 
       0.521598         122.564         71.1716 
       0.527764         120.932         69.3233 
       0.533884         119.088         67.5617 
           0.54         116.798         65.8663 
       0.546137          115.69         64.2221 
       0.552299          113.47         62.6237 
       0.558452         111.618          61.079 
       0.564573         109.721         59.5922 
       0.570708         107.551         58.1511 
       0.576825          106.25         56.7624 
       0.582926         104.041         55.4235 
       0.589034         102.674         54.1275 
       0.595184         101.295         52.8661 
       0.601379         99.7726          51.638 
       0.607522         97.7134         50.4596 
       0.613639         97.0449         49.3232 
       0.619772         95.0518         48.2186 
       0.625918         93.7863         47.1449 
       0.632068         92.7192         46.1026 
       0.638161         91.7309         45.1008 
         0.6443         90.4822         44.1216 
       0.650464         89.5272         43.1685 
       0.656582          87.929          42.251 
       0.662703         86.6965         41.3606 
       0.668861         85.3475         40.4912 
       0.675024         84.3648         39.6464 
       0.681124         83.5891         38.8343 
       0.687237         81.9735         38.0432 
       0.693381         80.8656         37.2704 
       0.699536         80.1756         36.5175 
       0.705665         80.0216         35.7887 
       0.711789         78.1352         35.0805 
       0.717957         77.7477         34.3867 
        0.72409         76.4221         33.7157 
       0.730186         75.2486         33.0667 
       0.736317         74.8821         32.4315 
       0.742472         74.1392         31.8107 
       0.748622         73.2388         31.2069 
        0.75476         72.4807           30.62 
       0.760888         71.4691         30.0492 
       0.767043         70.9214         29.4907 
       0.773185          70.078         28.9476 
       0.779291         69.1444         28.4212 
       0.785407         68.6378         27.9072 
       0.791564         68.0807         27.4027 
       0.797719         66.7508          26.911 
       0.803834         66.4515         26.4345 
       0.809972         65.4554         25.9678 
       0.816124         65.0717         25.5114 
       0.822261         64.5083         25.0673 
       0.828378         63.9973         24.6351 
       0.834502         63.3569         24.2127 
       0.840667         62.5728         23.7976 
       0.846816          61.745         23.3934 
       0.852925         61.3126         23.0011 
       0.859047         60.4867         22.6171 
       0.865192         60.1215         22.2406 
       0.871341         59.6653         21.8724 
       0.877463         58.7394         21.5143 
       0.883569         58.4511         21.1651 
       0.889708         57.9497         20.8219 
       0.895864         57.5081         20.4854 
       0.902008         56.9389         20.1571 
       0.908149         56.5165         19.8363 
       0.914301         55.9526         19.5219 
       0.920448         55.5349         19.2146 
       0.926574         54.9232          18.915 
       0.932687         54.8325         18.6225 
       0.938823         53.9388         18.3351 
       0.944975         53.4672         18.0531 
       0.951105         53.0332         17.7781 
       0.957225         52.4544         17.5093 
       0.963368         52.2533         17.2452 
       0.969511         51.9394         16.9865 
       0.975621         51.6071         16.7345 
       0.981748         51.0105         16.4869 
       0.987916          50.545         16.2428 
        0.99406         50.2388         16.0046 
        1.00019         49.7875         15.7716 
        1.00632         49.4481         15.5435 
        1.01246         49.1199         15.3195 
        1.01859          48.416         15.1004 
        1.02471         48.3198         14.8858 
        1.03085         47.8915         14.6746 
        1.03698         47.5295         14.4679 
        1.04314         47.1127         14.2644 
        1.04929         46.7717         14.0653 
        1.05541         46.2964         13.8708 
        1.06154         46.2884         13.6794 
        1.06769          45.836         13.4914 
        1.07382         45.5947         13.3076 
        1.07993         45.2641         13.1276 
        1.08607         44.9175         12.9501 
        1.09222         44.6513         12.7758 
        1.09836         44.2525         12.6049 
        1.10449         44.0359         12.4373 
        1.11063         43.5657         12.2726 
        1.11677         43.3215          12.111 
         1.1229         42.9615         11.9525 
        1.12903         42.4483         11.7968 
        1.13518         42.6184         11.6436 
        1.14131         42.2845         11.4933 
        1.14745          41.762         11.3458 
        1.15359         41.6691         11.2008 
        1.15973         41.2001         11.0582 
        1.16584         41.0007         10.9188 
        1.17197         40.7399         10.7816 
        1.17811         40.5755         10.6464 
        1.18424         40.1791         10.5138 
        1.19038         39.8859         10.3831 
        1.19652         39.8089         10.2547 
        1.20267         39.4059         10.1285 
        1.20881         39.2473         10.0044 
        1.21495         38.8784          9.8826 
        1.22108         38.7797         9.76282 
         1.2272         38.3086         9.64531 
        1.23334         38.1596         9.52946 
        1.23949         38.1249         9.41524 
        1.24562         37.6608          9.3032 
        1.25174         37.5589         9.19315 
        1.25789         37.4046         9.08455 
        1.26402         37.0528         8.97789 
        1.27014         36.7386          8.8732 
        1.27628         36.5472         8.76987 
        1.28244         36.3844         8.66798 
        1.28858         36.2221         8.56785 
        1.29471         36.0478         8.46952 
        1.30084         35.8399         8.37283 
        1.30697         35.5813          8.2775 
        1.31312         35.3262         8.18351 
        1.31925         35.1656         8.09128 
        1.32537         35.0102         8.00056 
        1.33151         34.6926          7.9109 
        1.33765         34.5834         7.82267 
        1.34378         34.3529         7.73597 
        1.34992         34.1534         7.65051 
        1.35606         33.9671         7.56616 
         1.3622         33.7717         7.48323 
        1.36833         33.5352         7.40174 
        1.37445         33.4195         7.32151 
        1.38059         33.2032         7.24222 
        1.38675         32.9429         7.16391 
        1.39288         32.8768         7.08707 
        1.39901           32.67         7.01139 
        1.40515         32.4778         6.93665 
         1.4113         32.3325         6.86302 
        1.41742         32.1727         6.79073 
        1.42355         31.9295         6.71936 
         1.4297         31.8209         6.64879 
        1.43585         31.7034         6.57926 
        1.44198         31.3848         6.51099 
        1.44809         31.3313         6.44381 
        1.45423         31.1403         6.37734 
        1.46036         31.0471         6.31192 
        1.46649         30.8416         6.24739 
        1.47263         30.6388         6.18371 
        1.47877         30.5209         6.12095 
        1.48491         30.5213         6.05896 
        1.49104          30.198         5.99795 
        1.49718         29.9057         5.93774 
        1.50333         29.9403         5.87826 
        1.50947         29.8035         5.81971 
         1.5156         29.5896         5.76204 
        1.52172         29.5006         5.70516 
        1.52787         29.3763         5.64892 
          1.534         29.2136         5.59351 
        1.54013         28.9962          5.5389 
        1.54627         28.9218         5.48491 
        1.55241         28.6361         5.43164 
        1.55855         28.6114         5.37915 
        1.56467         28.3199         5.32749 
         1.5708         28.4119         5.27637 
        1.57695         28.1483         5.22584 
        1.58308          28.004         5.17608 
        1.58922         27.9652         5.12694 
        1.59535         27.8205         5.07845 
         1.6015         27.5989         5.03052 
        1.60764         27.4275         4.98323 
        1.61376         27.3278         4.93668 
        1.61989         27.1875         4.89069 
        1.62604         27.0945         4.84517 
        1.63218         27.0362         4.80027 
        1.63831         26.8415         4.75603 
        1.64444         26.7197         4.71233 
        1.65059         26.5968         4.66908 
        1.65673         26.4274         4.62642 
        1.66285         26.3368         4.58441 
        1.66898         26.1989          4.5429 
        1.67512         26.0735         4.50183 
        1.68127         25.9342         4.46122 
         1.6874         25.8119         4.42121 
        1.69353         25.7124         4.38171 
        1.69967         25.5799          4.3426 
        1.70581         25.5134         4.30398 
        1.71193         25.4114         4.26598 
        1.71806         25.1836         4.22835 
        1.72421         25.0935          4.1911 
        1.73035         24.9695         4.15434 
        1.73649         24.8436         4.11803 
        1.74262         24.7615         4.08218 
        1.74876          24.715         4.04673 
        1.75489         24.5691         4.01178 
        1.76101         24.4328         3.97724 
        1.76715         24.3606         3.94307 
        1.77329         24.2921         3.90925 
        1.77943         24.1731         3.87581 
        1.78557         23.9761         3.84281 
        1.79171         23.8906         3.81019 
        1.79785         23.7736         3.77794 
        1.80399         23.7466         3.74607 
        1.81012         23.5933         3.71461 
        1.81625         23.5083         3.68353 
        1.82239         23.3906         3.65275 
        1.82853         23.2844         3.62234 
        1.83466         23.1959          3.5923 
        1.84078          23.001         3.56264 
        1.84692         22.9457         3.53326 
        1.85306          22.844         3.50417 
         1.8592         22.7344         3.47546 
        1.86533         22.6497         3.44708 
        1.87147          22.592         3.41899 
        1.87761         22.4955         3.39119 
        1.88375         22.3971         3.36374 
        1.88988          22.313         3.33662 
        1.89601          22.202         3.30978 
        1.90215         22.0942         3.28322 
        1.90829         22.0398         3.25696 
        1.91442         21.9289         3.23098 
        1.92056         21.8404         3.20531 
         1.9267         21.7376         3.17989 
        1.93284         21.5821         3.15473 
        1.93897          21.572         3.12989 
        1.94509         21.4525         3.10537 
        1.95123         21.3723         3.08105 
        1.95737         21.2462         3.05698 
        1.96349         21.1927         3.03322 
        1.96964         21.1021         3.00964 
        1.97578          20.966         2.98631 
        1.98192         20.9024         2.96326 
        1.98805         20.8504         2.94046 
        1.99419         20.7466          2.9179 
        2.00033         20.6453         2.89556 
        2.00647         20.5607         2.87346 
         2.0126         20.4844         2.85162 
        2.01874         20.3956         2.82998 
        2.02488         20.3377         2.80855 
        2.03101         20.2413         2.78737 
        2.03714         20.1545         2.76644 
        2.04328          20.054         2.74569 
        2.04941          19.969         2.72517 
        2.05554         19.9136         2.70488 
        2.06167         19.8273         2.68476 
        2.06781         19.7359         2.66485 
        2.07396         19.6836         2.64511 
        2.08009         19.6246          2.6256 
        2.08622         19.4673         2.60631 
        2.09237         19.4268         2.58718 
        2.09851          19.355         2.56823 
        2.10464          19.257         2.54951 
        2.11077         19.1749         2.53099 
        2.11691         19.1266         2.51262 
        2.12305         19.0787         2.49442 
        2.12918         18.9736         2.47645 
        2.13531         18.9189         2.45866 
        2.14145          18.866           2.441 
         2.1476         18.7607         2.42349 
        2.15372         18.6622         2.40624 
        2.15985         18.5722         2.38914 
        2.16599         18.5498         2.37215 
        2.17213         18.4705         2.35535 
        2.17827          18.355         2.33872 
         2.1844         18.2702         2.32226 
        2.19054          18.236         2.30595 
        2.19666         18.1624         2.28982 
         2.2028         18.0793         2.27383 
        2.20893         18.0255         2.25798 
        2.21508         17.9584         2.24227 
        2.22122         17.8182          2.2267 
        2.22736         17.8105         2.21131 
        2.23349         17.7279         2.19607 
        2.23962         17.6616         2.18097 
        2.24577         17.5781         2.16599 
         2.2519         17.5423         2.15118 
        2.25802         17.4248         2.13652 
        2.26417         17.4182         2.12196 
        2.27031         17.3156         2.10753 
        2.27644         17.2489         2.09326 
        2.28257           17.17         2.07914 
        2.28872         17.0956         2.06511 
        2.29486         17.0641         2.05122 
        2.30099          16.971         2.03748 
        2.30712         16.9283         2.02386 
        2.31326         16.8873         2.01034 
         2.3194         16.8152         1.99696 
        2.32553         16.7249         1.98371 
        2.33166         16.6408          1.9706 
         2.3378         16.5959         1.95758 
        2.34394         16.5295         1.94467 
        2.35007         16.4772          1.9319 
        2.35619         16.3952         1.91926 
        2.36233         16.3393          1.9067 
        2.36848         16.2825         1.89423 
        2.37462         16.2025          1.8819 
        2.38075         16.1566         1.86969 
        2.38689         16.1088         1.85757 
        2.39303         16.0279         1.84556 
        2.39916         15.9634         1.83368 
        2.40529         15.9215         1.82189 
        2.41143         15.8428         1.81021 
        2.41757          15.804         1.79861 
         2.4237         15.7183         1.78715 
        2.42983         15.6381         1.77578 
        2.43598         15.6213         1.76448 
        2.44211         15.5553          1.7533 
        2.44823         15.5052         1.74224 
        2.45437         15.4162         1.73124 
        2.46052         15.3851         1.72033 
        2.46665         15.3466         1.70953 
        2.47279          15.251         1.69883 
        2.47892         15.2148         1.68821 
        2.48507         15.1451         1.67767 
         2.4912         15.1245         1.66725 
