# k  (h/Mpc)    Pcb(k)  (Mpc/h)^3    Pcb_linear(k)  (Mpc/h)^3
     0.00783031         9264.13         9385.35 
       0.013688         10646.6           10579 
       0.019231         9994.31         9961.49 
      0.0249154         8504.19         8611.01 
      0.0312784         6955.09         6975.48 
      0.0375637         5670.63         5636.58 
      0.0433917         4726.03         4749.33 
      0.0492413         4169.49         4161.52 
      0.0555754         3703.04         3754.68 
      0.0619321         3491.95          3456.8 
       0.067871         3154.55         3186.96 
      0.0738098         2856.43         2882.99 
      0.0800417         2496.82         2531.21 
      0.0862327         2181.68         2184.31 
      0.0921407          1920.4          1893.6 
      0.0982031         1676.14         1660.21 
       0.104506         1543.61         1491.25 
       0.110769         1426.92         1383.55 
       0.116806         1344.48         1313.75 
       0.122832         1287.32         1254.02 
       0.129052         1196.32         1184.42 
       0.135211          1116.8         1099.72 
       0.141259         1040.44         1004.53 
       0.147318          953.47         907.212 
       0.153489         858.696         817.251 
       0.159709         795.532         743.721 
       0.165845         751.365         690.118 
       0.171974         706.428         652.515 
       0.178125         676.596         624.922 
       0.184229         650.155         601.041 
        0.19034         608.437           575.4 
       0.196428         590.777         545.582 
       0.202534         565.003         511.749 
       0.208729         527.954         475.934 
       0.214876         494.045         442.125 
       0.220989         470.997         412.742 
       0.227147          445.09         388.594 
        0.23329         425.237         369.656 
       0.239377         413.931         354.612 
       0.245482          386.65         341.449 
       0.251667         381.565         328.423 
       0.257832         367.106         314.687 
       0.263955         352.357         300.069 
       0.270079           336.4         284.933 
        0.27624         328.843         269.987 
       0.282372         315.144         256.195 
        0.28843           303.1         244.118 
       0.294538         288.418         233.613 
       0.300721         284.561         224.448 
        0.30691         271.146         216.278 
       0.313033         264.472         208.689 
       0.319153         253.836         201.205 
       0.325316          247.29         193.588 
        0.33145         238.131         185.939 
       0.337538          233.69         178.447 
       0.343633         225.079         171.255 
       0.349808         217.231          164.46 
       0.355968         213.373         158.271 
       0.362074         207.771          152.69 
       0.368217          201.63         147.548 
       0.374374         194.168         142.721 
       0.380519         191.055         138.103 
       0.386598          185.81         133.646 
       0.392688         182.748         129.251 
        0.39888          177.78         124.878 
       0.405048         172.969         120.658 
       0.411186          169.02         116.642 
       0.417313         165.223         112.858 
       0.423458         161.428         109.293 
       0.429607         157.666         105.941 
       0.435692         152.629         102.809 
       0.441815         151.144         99.8011 
       0.447964         148.096         96.8879 
       0.454126         141.812         94.0591 
       0.460267         140.016         91.3231 
       0.466387         137.993         88.6777 
        0.47254          134.67         86.1113 
       0.478662         133.685         83.6629 
       0.484765         129.178         81.3301 
       0.490885         127.101         79.0949 
       0.497035         125.244         76.9489 
       0.503198         121.791         74.8899 
       0.509342         119.816         72.9153 
       0.515458         117.935         71.0158 
       0.521598         115.765         69.1692 
       0.527764          114.16         67.3746 
       0.533884         112.375         65.6519 
           0.54          110.15         63.9886 
       0.546137         109.078         62.3777 
       0.552299         107.053         60.8194 
       0.558452          105.08          59.322 
       0.564573          103.26         57.8868 
       0.570708          101.34         56.4979 
       0.576825         100.087         55.1587 
       0.582926         97.9787         53.8651 
       0.589034         96.5721         52.6103 
       0.595184         95.2307         51.3863 
       0.601379         93.8236         50.1923 
       0.607522         91.8002         49.0454 
       0.613639         91.2543          47.939 
       0.619772         89.3391         46.8646 
       0.625918         88.1475          45.822 
       0.632068         87.1354         44.8117 
       0.638161         86.1548         43.8417 
         0.6443         84.9825         42.8939 
       0.650464         84.0067         41.9707 
       0.656582           82.56         41.0809 
       0.662703         81.2717         40.2162 
       0.668861         80.0642         39.3712 
       0.675024         79.1514         38.5497 
       0.681124         78.3392         37.7601 
       0.687237         76.8014         36.9913 
       0.693381         75.8204         36.2407 
       0.699536         75.0689         35.5099 
       0.705665         75.0404         34.8027 
       0.711789         73.1614         34.1155 
       0.717957         72.7241         33.4422 
        0.72409         71.5277         32.7907 
       0.730186          70.397         32.1605 
       0.736317         70.0995         31.5435 
       0.742472          69.349         30.9404 
       0.748622         68.4964         30.3536 
        0.75476         67.7733         29.7835 
       0.760888         66.7806         29.2289 
       0.767043         66.2257         28.6864 
       0.773185         65.4065         28.1589 
       0.779291         64.6539         27.6477 
       0.785407         64.1419         27.1486 
       0.791564         63.5397         26.6586 
       0.797719          62.342         26.1811 
       0.803834         62.0595         25.7183 
       0.809972         61.0513         25.2651 
       0.816124         60.6701         24.8218 
       0.822261         60.1498         24.3904 
       0.828378         59.6848         23.9705 
       0.834502         59.0412         23.5602 
       0.840667         58.3462         23.1569 
       0.846816         57.5521         22.7642 
       0.852925         57.1336         22.3831 
       0.859047         56.3488         22.0099 
       0.865192         55.9942          21.644 
       0.871341         55.6139         21.2862 
       0.877463         54.6956         20.9382 
       0.883569         54.3777         20.5988 
       0.889708          53.951         20.2652 
       0.895864         53.5089         19.9382 
       0.902008          52.968         19.6191 
       0.908149         52.5675         19.3071 
       0.914301          52.061         19.0014 
       0.920448         51.6547         18.7027 
       0.926574         51.0626         18.4114 
       0.932687         50.9179          18.127 
       0.938823         50.0911         17.8475 
       0.944975         49.7093         17.5734 
       0.951105         49.2799         17.3059 
       0.957225         48.7124         17.0445 
       0.963368         48.5881         16.7877 
       0.969511         48.2297         16.5361 
       0.975621         47.9084          16.291 
       0.981748         47.3316         16.0503 
       0.987916         46.9143          15.813 
        0.99406         46.6373         15.5814 
        1.00019         46.1726         15.3548 
        1.00632         45.8763          15.133 
        1.01246           45.55         14.9153 
        1.01859         44.9096         14.7022 
        1.02471         44.8343         14.4935 
        1.03085         44.4285         14.2882 
        1.03698         44.0469         14.0872 
        1.04314          43.677         13.8893 
        1.04929         43.3437         13.6957 
        1.05541         42.8991         13.5066 
        1.06154         42.8863         13.3205 
        1.06769         42.4426         13.1377 
        1.07382         42.2246         12.9589 
        1.07993         41.9307         12.7839 
        1.08607         41.5805         12.6113 
        1.09222         41.3275         12.4418 
        1.09836         40.9725         12.2756 
        1.10449         40.7256         12.1126 
        1.11063          40.285         11.9524 
        1.11677          40.058         11.7952 
         1.1229         39.7574          11.641 
        1.12903           39.25         11.4895 
        1.13518         39.4221         11.3405 
        1.14131         39.0992         11.1943 
        1.14745         38.5895         11.0507 
        1.15359         38.5239         10.9096 
        1.15973         38.0649         10.7709 
        1.16584          37.886         10.6352 
        1.17197         37.6425         10.5017 
        1.17811         37.4723         10.3701 
        1.18424         37.1036         10.2411 
        1.19038          36.863         10.1139 
        1.19652         36.7913         9.98895 
        1.20267          36.425          9.8661 
        1.20881         36.2311         9.74534 
        1.21495         35.9057         9.62679 
        1.22108         35.7742         9.51024 
         1.2272          35.358         9.39588 
        1.23334         35.2298         9.28315 
        1.23949         35.2012           9.172 
        1.24562         34.7597         9.06298 
        1.25174         34.6742          8.9559 
        1.25789         34.4943         8.85022 
        1.26402         34.1735         8.74643 
        1.27014         33.8825         8.64457 
        1.27628         33.7196         8.54402 
        1.28244          33.552         8.44487 
        1.28858         33.3879         8.34743 
        1.29471         33.2459         8.25175 
        1.30084         33.0509         8.15765 
        1.30697         32.8039         8.06488 
        1.31312         32.5533         7.97341 
        1.31925          32.409         7.88366 
        1.32537         32.2523         7.79537 
        1.33151         31.9663         7.70812 
        1.33765         31.8822         7.62225 
        1.34378         31.6651         7.53786 
        1.34992         31.4512         7.45468 
        1.35606         31.2767         7.37258 
         1.3622         31.1117         7.29186 
        1.36833         30.8796         7.21253 
        1.37445         30.8024         7.13443 
        1.38059         30.5887         7.05723 
        1.38675         30.3199           6.981 
        1.39288         30.2956         6.90618 
        1.39901         30.0621          6.8325 
        1.40515          29.886         6.75973 
         1.4113         29.7611         6.68804 
        1.41742         29.5736         6.61766 
        1.42355         29.3994         6.54816 
         1.4297         29.2689         6.47945 
        1.43585         29.1751         6.41175 
        1.44198         28.8702         6.34528 
        1.44809         28.8088         6.27987 
        1.45423         28.6426         6.21514 
        1.46036         28.5623         6.15144 
        1.46649         28.3487         6.08861 
        1.47263         28.1787         6.02661 
        1.47877         28.0866          5.9655 
        1.48491         28.0557         5.90514 
        1.49104         27.7658         5.84574 
        1.49718         27.5038         5.78711 
        1.50333         27.5195         5.72919 
        1.50947           27.39         5.67218 
         1.5156         27.2097         5.61604 
        1.52172         27.0928         5.56065 
        1.52787         26.9981         5.50589 
          1.534         26.8384         5.45194 
        1.54013         26.6325         5.39877 
        1.54627         26.5656         5.34621 
        1.55241          26.314         5.29434 
        1.55855         26.2808         5.24323 
        1.56467         26.0271         5.19293 
         1.5708           26.09         5.14315 
        1.57695         25.8375         5.09394 
        1.58308          25.728         5.04549 
        1.58922         25.6739         4.99763 
        1.59535         25.5243         4.95041 
         1.6015         25.3328         4.90374 
        1.60764         25.2005         4.85768 
        1.61376         25.0678         4.81234 
        1.61989         24.9438         4.76755 
        1.62604         24.8853         4.72322 
        1.63218         24.7989         4.67948 
        1.63831         24.6246         4.63639 
        1.64444         24.5239         4.59383 
        1.65059         24.3855          4.5517 
        1.65673         24.2309         4.51015 
        1.66285         24.1717         4.46922 
        1.66898         24.0337          4.4288 
        1.67512         23.9381         4.38879 
        1.68127         23.7855         4.34924 
         1.6874         23.6775         4.31026 
        1.69353         23.5946         4.27178 
        1.69967         23.4615         4.23369 
        1.70581         23.3773         4.19607 
        1.71193         23.2989         4.15905 
        1.71806         23.1081         4.12239 
        1.72421         23.0062         4.08611 
        1.73035         22.8906          4.0503 
        1.73649          22.817         4.01493 
        1.74262          22.705         3.98001 
        1.74876         22.6712         3.94547 
        1.75489         22.5328         3.91142 
        1.76101         22.4027         3.87778 
        1.76715         22.3342         3.84449 
        1.77329         22.2684         3.81155 
        1.77943         22.1476         3.77898 
        1.78557           21.98         3.74684 
        1.79171         21.9033         3.71506 
        1.79785         21.7949         3.68365 
        1.80399         21.7548          3.6526 
        1.81012         21.6308         3.62195 
        1.81625         21.5571         3.59167 
        1.82239         21.4533         3.56169 
        1.82853         21.3336         3.53206 
        1.83466         21.2624         3.50279 
        1.84078          21.088         3.47389 
        1.84692         21.0352         3.44527 
        1.85306         20.9542         3.41693 
         1.8592         20.8394         3.38895 
        1.86533         20.7565         3.36131 
        1.87147         20.6903         3.33393 
        1.87761         20.6226         3.30685 
        1.88375          20.544         3.28011 
        1.88988          20.438         3.25368 
        1.89601          20.328         3.22753 
        1.90215         20.2508         3.20165 
        1.90829         20.2063         3.17606 
        1.91442         20.0836         3.15075 
        1.92056         20.0139         3.12574 
         1.9267         19.9073         3.10097 
        1.93284         19.7766         3.07646 
        1.93897         19.7613         3.05225 
        1.94509         19.6508         3.02836 
        1.95123          19.588         3.00466 
        1.95737         19.4665          2.9812 
        1.96349         19.4133         2.95805 
        1.96964          19.327         2.93508 
        1.97578         19.2237         2.91234 
        1.98192          19.147         2.88988 
        1.98805         19.1002         2.86766 
        1.99419         19.0073         2.84567 
        2.00033         18.8908         2.82391 
        2.00647         18.8299         2.80237 
         2.0126         18.7623         2.78109 
        2.01874         18.6747         2.76001 
        2.02488         18.6298         2.73912 
        2.03101         18.5235         2.71848 
        2.03714         18.4599         2.69808 
        2.04328         18.3658         2.67786 
        2.04941         18.2862         2.65787 
        2.05554         18.2366         2.63809 
        2.06167         18.1672         2.61849 
        2.06781         18.0823         2.59908 
        2.07396         18.0405         2.57985 
        2.08009         17.9774         2.56084 
        2.08622         17.8207         2.54204 
        2.09237         17.7945         2.52339 
        2.09851         17.7284         2.50493 
        2.10464         17.6447         2.48668 
        2.11077         17.5592         2.46863 
        2.11691         17.5127         2.45072 
        2.12305         17.4631         2.43299 
        2.12918         17.3856         2.41548 
        2.13531         17.3078         2.39813 
        2.14145         17.2786         2.38092 
         2.1476         17.1752         2.36385 
        2.15372         17.0911         2.34704 
        2.15985         16.9906         2.33037 
        2.16599         16.9798         2.31382 
        2.17213          16.914         2.29744 
        2.17827         16.8044         2.28123 
         2.1844          16.721         2.26518 
        2.19054          16.699         2.24929 
        2.19666         16.6353         2.23357 
         2.2028         16.5628         2.21798 
        2.20893         16.5039         2.20254 
        2.21508         16.4231         2.18722 
        2.22122         16.3116         2.17205 
        2.22736         16.3138         2.15705 
        2.23349         16.2281         2.14219 
        2.23962         16.1662         2.12747 
        2.24577         16.0865         2.11287 
         2.2519         16.0579         2.09843 
        2.25802         15.9623         2.08414 
        2.26417         15.9519         2.06995 
        2.27031         15.8544         2.05588 
        2.27644         15.8004         2.04198 
        2.28257         15.7207         2.02821 
        2.28872         15.6475         2.01453 
        2.29486         15.6136         2.00099 
        2.30099         15.5393          1.9876 
        2.30712         15.4963         1.97432 
        2.31326         15.4457         1.96114 
         2.3194         15.3979          1.9481 
        2.32553         15.3146         1.93519 
        2.33166         15.2339          1.9224 
         2.3378         15.1933         1.90971 
        2.34394         15.1424         1.89713 
        2.35007         15.0824         1.88468 
        2.35619         15.0008         1.87236 
        2.36233         14.9618         1.86012 
        2.36848         14.9056         1.84796 
        2.37462         14.8402         1.83594 
        2.38075         14.7832         1.82403 
        2.38689         14.7554         1.81222 
        2.39303         14.6771         1.80052 
        2.39916         14.6196         1.78893 
        2.40529          14.573         1.77744 
        2.41143         14.5076         1.76605 
        2.41757         14.4739         1.75475 
         2.4237         14.4011         1.74357 
        2.42983         14.3326         1.73248 
        2.43598         14.3176         1.72147 
        2.44211          14.248         1.71057 
        2.44823         14.2016         1.69978 
        2.45437         14.1279         1.68906 
        2.46052         14.0917         1.67842 
        2.46665           14.06          1.6679 
        2.47279         13.9662         1.65746 
        2.47892         13.9367         1.64711 
        2.48507         13.8817         1.63684 
         2.4912         13.8543         1.62667 
