# k  (h/Mpc)    P(k)  (Mpc/h)^3    P_linear(k)  (Mpc/h)^3
     0.00783031         301.754         304.802 
       0.013688         374.518         375.928 
       0.019231         378.271         378.544 
      0.0249154         345.752          346.94 
      0.0312784         297.153         297.064 
      0.0375637         251.272         250.603 
      0.0433917         217.363         217.166 
      0.0492413          194.11         193.705 
      0.0555754         176.746         176.932 
      0.0619321         165.292         164.787 
       0.067871         153.897         154.103 
      0.0738098         141.784          142.03 
      0.0800417           127.2         127.561 
      0.0862327         112.516         112.544 
      0.0921407         99.3512         99.2349 
      0.0982031         87.9343         87.9176 
       0.104506         79.5997         79.2365 
       0.110769         73.7242         73.4515 
       0.116806         69.7266         69.7383 
       0.122832         66.9717         66.8471 
       0.129052         63.6841         63.7725 
       0.135211         59.9563         60.0668 
       0.141259         55.7823         55.7241 
       0.147318         51.2167         51.0115 
       0.153489         46.5025         46.3672 
       0.159709         42.4862         42.3241 
       0.165845         39.5582         39.2118 
       0.171974         37.1032         36.9654 
       0.178125         35.5352         35.3689 
       0.184229         34.3261         34.1273 
        0.19034         32.9369         32.9194 
       0.196428         31.6595         31.5379 
       0.202534         30.1666         29.9025 
       0.208729         28.2375         28.0566 
       0.214876         26.3145         26.1952 
       0.220989         24.7506         24.4808 
       0.227147         23.1488         23.0098 
        0.23329         21.9825         21.8385 
       0.239377         21.1077         20.9363 
       0.245482         20.3038          20.206 
       0.251667         19.7348         19.5393 
       0.257832         19.0116         18.8597 
       0.263955         18.2932         18.1201 
       0.270079         17.4924         17.3119 
        0.27624         16.7217          16.466 
       0.282372         15.9019         15.6425 
        0.28843         15.1026         14.8948 
       0.294538         14.4478         14.2359 
       0.300721         13.9417         13.6709 
        0.30691         13.3923          13.191 
       0.313033         12.9767         12.7694 
       0.319153         12.4857         12.3692 
       0.325316         12.2016         11.9624 
        0.33145         11.7614         11.5426 
       0.337538         11.3306         11.1132 
       0.343633         10.8746         10.6831 
       0.349808         10.4866         10.2636 
       0.355968         10.1014         9.87446 
       0.362074         9.73859         9.52623 
       0.368217         9.43086         9.21169 
       0.374374         9.10965          8.9269 
       0.380519         8.87474         8.66238 
       0.386598         8.63446         8.40999 
       0.392688         8.40225         8.16036 
        0.39888         8.13118         7.90574 
       0.405048         7.88696         7.65319 
       0.411186         7.64741         7.40701 
       0.417313         7.38787         7.17049 
       0.423458         7.18099         6.94675 
       0.429607          6.9524         6.73842 
       0.435692         6.75693         6.54628 
       0.441815         6.58044         6.36512 
       0.447964         6.43403         6.19243 
       0.454126         6.23167         6.02512 
       0.460267         6.07234         5.86186 
       0.466387         5.89559         5.70235 
        0.47254         5.75284         5.54511 
       0.478662         5.61118         5.39268 
       0.484765         5.44701         5.24623 
       0.490885         5.30882         5.10614 
       0.497035         5.20926         4.97221 
       0.503198         5.06191         4.84446 
       0.509342         4.94454         4.72297 
       0.515458         4.81769         4.60694 
       0.521598         4.70814         4.49427 
       0.527764         4.58369         4.38402 
       0.533884         4.49803         4.27726 
           0.54         4.38595         4.17349 
       0.546137         4.28974         4.07247 
       0.552299         4.19133         3.97436 
       0.558452         4.07828         3.87984 
       0.564573         4.00066         3.78929 
       0.570708         3.91186         3.70206 
       0.576825         3.81684         3.61833 
       0.582926         3.74628         3.53763 
       0.589034          3.6425         3.45923 
       0.595184         3.57356         3.38242 
       0.601379         3.49524         3.30716 
       0.607522         3.43538         3.23465 
       0.613639         3.37595         3.16455 
       0.619772         3.28551         3.09641 
       0.625918         3.22936         3.03021 
       0.632068         3.17322           2.966 
       0.638161         3.09893         2.90431 
         0.6443         3.03574         2.84404 
       0.650464         2.96769         2.78535 
       0.656582         2.92295          2.7288 
       0.662703         2.86626         2.67382 
       0.668861         2.81956         2.62004 
       0.675024         2.75748         2.56764 
       0.681124          2.6997         2.51715 
       0.687237         2.65905         2.46789 
       0.693381         2.61074         2.41971 
       0.699536         2.54502         2.37276 
       0.705665         2.50356         2.32729 
       0.711789         2.46358         2.28311 
       0.717957         2.41427         2.23982 
        0.72409         2.37313         2.19793 
       0.730186         2.32966         2.15738 
       0.736317         2.30313         2.11765 
       0.742472         2.26036         2.07877 
       0.748622         2.21573         2.04089 
        0.75476         2.17204         2.00404 
       0.760888         2.13555         1.96814 
       0.767043         2.11152         1.93298 
       0.773185         2.06666         1.89876 
       0.779291         2.03652         1.86557 
       0.785407         2.00199         1.83314 
       0.791564         1.97127         1.80129 
       0.797719         1.94232         1.77023 
       0.803834         1.91315          1.7401 
       0.809972         1.88111         1.71058 
       0.816124         1.84686         1.68169 
       0.822261         1.81391         1.65355 
       0.828378         1.79045         1.62614 
       0.834502         1.76823         1.59934 
       0.840667         1.73051         1.57297 
       0.846816         1.70489         1.54727 
       0.852925         1.68735         1.52232 
       0.859047         1.66105         1.49787 
       0.865192         1.63352         1.47388 
       0.871341         1.61003          1.4504 
       0.877463         1.59118         1.42755 
       0.883569         1.56189         1.40525 
       0.889708         1.53856         1.38331 
       0.895864         1.51724         1.36179 
       0.902008         1.49218         1.34078 
       0.908149         1.47294         1.32023 
       0.914301         1.44454         1.30008 
       0.920448         1.42728         1.28037 
       0.926574         1.40624         1.26115 
       0.932687         1.38677         1.24236 
       0.938823         1.37358         1.22389 
       0.944975         1.35261         1.20576 
       0.951105         1.33563         1.18806 
       0.957225         1.32142         1.17075 
       0.963368         1.30141         1.15373 
       0.969511         1.28113         1.13705 
       0.975621         1.26118         1.12079 
       0.981748         1.25005         1.10481 
       0.987916         1.23147         1.08905 
        0.99406          1.2127         1.07365 
        1.00019         1.20141         1.05858 
        1.00632          1.1813         1.04382 
        1.01246         1.16657         1.02932 
        1.01859         1.15375         1.01512 
        1.02471         1.13718         1.00121 
        1.03085         1.12657        0.987512 
        1.03698         1.10907        0.974101 
        1.04314         1.09696        0.960885 
        1.04929         1.08124        0.947945 
        1.05541         1.07017        0.935298 
        1.06154         1.05512        0.922852 
        1.06769         1.04178        0.910616 
        1.07382         1.02991        0.898642 
        1.07993         1.01421        0.886913 
        1.08607         1.00766        0.875346 
        1.09222        0.992328        0.863974 
        1.09836         0.98464         0.85282 
        1.10449        0.972341        0.841876 
        1.11063         0.95728        0.831114 
        1.11677         0.94503        0.820545 
         1.1229        0.935556         0.81018 
        1.12903        0.923444        0.799986 
        1.13518         0.91527         0.78996 
        1.14131        0.902607        0.780112 
        1.14745        0.887341        0.770439 
        1.15359        0.881801         0.76093 
        1.15973        0.868299        0.751578 
        1.16584        0.864119        0.742426 
        1.17197         0.85259        0.733414 
        1.17811        0.843997        0.724526 
        1.18424        0.836822        0.715811 
        1.19038        0.824629        0.707216 
        1.19652        0.813837        0.698766 
        1.20267        0.808565        0.690454 
        1.20881        0.796933        0.682281 
        1.21495        0.790945        0.674253 
        1.22108        0.781822        0.666357 
         1.2272        0.775098        0.658606 
        1.23334        0.765108        0.650961 
        1.23949        0.756844         0.64342 
        1.24562        0.749497         0.63602 
        1.25174        0.742076        0.628748 
        1.25789        0.734784        0.621568 
        1.26402         0.72456        0.614513 
        1.27014        0.717547        0.607586 
        1.27628        0.712911        0.600745 
        1.28244        0.701983        0.593997 
        1.28858        0.696041        0.587363 
        1.29471        0.690567        0.580845 
        1.30084        0.681798        0.574432 
        1.30697        0.675076        0.568107 
        1.31312        0.665595        0.561869 
        1.31925        0.661126        0.555744 
        1.32537        0.655478        0.549717 
        1.33151        0.649907        0.543759 
        1.33765        0.642661        0.537893 
        1.34378        0.634397        0.532125 
        1.34992        0.630332        0.526438 
        1.35606        0.622969        0.520823 
         1.3622        0.617527          0.5153 
        1.36833        0.611288         0.50987 
        1.37445        0.603457        0.504522 
        1.38059        0.598451        0.499235 
        1.38675        0.596703        0.494011 
        1.39288        0.588485        0.488883 
        1.39901          0.5832        0.483831 
        1.40515         0.57817        0.478839 
         1.4113        0.571425         0.47392 
        1.41742        0.566273        0.469089 
        1.42355        0.563663        0.464316 
         1.4297        0.555997        0.459596 
        1.43585        0.551235        0.454943 
        1.44198        0.548706        0.450373 
        1.44809        0.541339        0.445875 
        1.45423        0.536808        0.441422 
        1.46036        0.532009        0.437038 
        1.46649        0.527763        0.432712 
        1.47263         0.52228        0.428441 
        1.47877        0.516896        0.424231 
        1.48491        0.512951         0.42007 
        1.49104        0.507258        0.415974 
        1.49718        0.503938         0.41193 
        1.50333        0.499705        0.407934 
        1.50947        0.495429        0.403999 
         1.5156        0.490368        0.400122 
        1.52172        0.486442        0.396296 
        1.52787         0.48181        0.392513 
          1.534        0.478178        0.388783 
        1.54013        0.472956        0.385106 
        1.54627        0.469686         0.38147 
        1.55241        0.465125        0.377881 
        1.55855        0.460646        0.374343 
        1.56467        0.459113         0.37086 
         1.5708        0.453761        0.367412 
        1.57695        0.450556        0.364003 
        1.58308         0.44646        0.360645 
        1.58922        0.442901        0.357327 
        1.59535        0.438824        0.354052 
         1.6015        0.435352        0.350814 
        1.60764        0.432148        0.347619 
        1.61376        0.427304        0.344471 
        1.61989         0.42496        0.341361 
        1.62604        0.421342        0.338282 
        1.63218         0.41851        0.335243 
        1.63831         0.41488        0.332249 
        1.64444         0.41117         0.32929 
        1.65059        0.408214         0.32636 
        1.65673        0.404586         0.32347 
        1.66285        0.401812        0.320622 
        1.66898        0.399101        0.317808 
        1.67512        0.394836        0.315023 
        1.68127        0.391491        0.312268 
         1.6874        0.389818        0.309552 
        1.69353        0.385879        0.306871 
        1.69967        0.383361        0.304215 
        1.70581        0.379819        0.301592 
        1.71193        0.377187         0.29901 
        1.71806         0.37394        0.296452 
        1.72421        0.371482         0.29392 
        1.73035        0.368065         0.29142 
        1.73649        0.366153         0.28895 
        1.74262        0.363107        0.286511 
        1.74876        0.360016        0.284098 
        1.75489         0.35753        0.281718 
        1.76101        0.354402        0.279366 
        1.76715        0.351887        0.277038 
        1.77329        0.349186        0.274733 
        1.77943         0.34642        0.272454 
        1.78557        0.344428        0.270204 
        1.79171        0.341884        0.267979 
        1.79785        0.339139        0.265779 
        1.80399         0.33654        0.263604 
        1.81012        0.334496        0.261456 
        1.81625        0.331801        0.259334 
        1.82239         0.32981        0.257232 
        1.82853         0.32633        0.255154 
        1.83466        0.324538        0.253101 
        1.84078        0.321848        0.251073 
        1.84692        0.319898        0.249064 
        1.85306        0.318046        0.247075 
         1.8592        0.315516         0.24511 
        1.86533        0.313598        0.243168 
        1.87147        0.311182        0.241245 
        1.87761        0.309344        0.239342 
        1.88375        0.306259        0.237462 
        1.88988          0.3046        0.235604 
        1.89601        0.302154        0.233765 
        1.90215        0.300429        0.231944 
        1.90829        0.298007        0.230143 
        1.91442        0.296381        0.228362 
        1.92056        0.294032        0.226601 
         1.9267          0.2918        0.224857 
        1.93284        0.289876         0.22313 
        1.93897        0.288056        0.221424 
        1.94509        0.286404        0.219741 
        1.95123        0.283929         0.21807 
        1.95737        0.282606        0.216416 
        1.96349        0.280312        0.214783 
        1.96964        0.278323        0.213162 
        1.97578         0.27637        0.211558 
        1.98192        0.275031        0.209973 
        1.98805         0.27328        0.208404 
        1.99419        0.271045        0.206851 
        2.00033        0.269397        0.205314 
        2.00647        0.268047        0.203792 
         2.0126        0.265772        0.202289 
        2.01874        0.264355        0.200798 
        2.02488        0.262747        0.199322 
        2.03101        0.260667        0.197862 
        2.03714        0.258939        0.196419 
        2.04328        0.257549        0.194989 
        2.04941        0.255796        0.193574 
        2.05554        0.254273        0.192174 
        2.06167        0.252912        0.190786 
        2.06781        0.250326        0.189412 
        2.07396        0.248953        0.188049 
        2.08009         0.24743        0.186702 
        2.08622        0.246162         0.18537 
        2.09237        0.245018        0.184048 
        2.09851        0.243392        0.182739 
        2.10464        0.241721        0.181445 
        2.11077        0.240061        0.180165 
        2.11691         0.23854        0.178894 
        2.12305        0.237112        0.177636 
        2.12918        0.235778        0.176393 
        2.13531        0.234107        0.175162 
        2.14145        0.232653        0.173939 
         2.1476        0.231413        0.172727 
        2.15372        0.230354        0.171533 
        2.15985         0.22849        0.170349 
        2.16599        0.226831        0.169172 
        2.17213         0.22595        0.168008 
        2.17827        0.224536        0.166855 
         2.1844        0.223379        0.165714 
        2.19054        0.221822        0.164584 
        2.19666        0.220001        0.163465 
         2.2028        0.219254        0.162356 
        2.20893        0.218176        0.161257 
        2.21508        0.216261        0.160166 
        2.22122        0.214962        0.159086 
        2.22736        0.214069        0.158017 
        2.23349        0.212728        0.156959 
        2.23962        0.211778         0.15591 
        2.24577        0.210025        0.154869 
         2.2519        0.209298         0.15384 
        2.25802        0.207682        0.152822 
        2.26417        0.206571        0.151809 
        2.27031        0.205265        0.150806 
        2.27644        0.204253        0.149814 
        2.28257        0.203032        0.148831 
        2.28872          0.2019        0.147855 
        2.29486        0.200748        0.146888 
        2.30099        0.199688        0.145932 
        2.30712        0.198603        0.144984 
        2.31326        0.197057        0.144043 
         2.3194        0.196934        0.143111 
        2.32553        0.195718        0.142188 
        2.33166        0.194578        0.141274 
         2.3378        0.193412        0.140367 
        2.34394        0.191959        0.139468 
        2.35007        0.191079        0.138577 
        2.35619        0.189827        0.137696 
        2.36233        0.188575         0.13682 
        2.36848        0.187904         0.13595 
        2.37462        0.186607        0.135089 
        2.38075        0.186064        0.134237 
        2.38689        0.184794        0.133391 
        2.39303        0.184253        0.132553 
        2.39916        0.182575        0.131723 
        2.40529        0.181835          0.1309 
        2.41143        0.180929        0.130084 
        2.41757        0.179836        0.129274 
         2.4237        0.179011        0.128472 
        2.42983        0.177893        0.127678 
        2.43598        0.177432        0.126888 
        2.44211        0.176226        0.126106 
        2.44823        0.175615        0.125332 
        2.45437        0.174103        0.124563 
        2.46052        0.173516        0.123799 
        2.46665         0.17248        0.123044 
        2.47279        0.171521        0.122295 
        2.47892        0.170588        0.121551 
        2.48507        0.169602        0.120814 
         2.4912         0.16899        0.120083 
