# k  (h/Mpc)    Pcb(k)  (Mpc/h)^3    Pcb_linear(k)  (Mpc/h)^3
     0.00783031         8271.23         8314.01 
       0.013688         10356.5         10575.9 
       0.019231         10818.7         10946.3 
      0.0249154         10339.1         10330.5 
      0.0312784         9075.81         9149.42 
      0.0375637         7850.87         7964.86 
      0.0433917         7031.68         7066.45 
      0.0492413         6321.67         6401.05 
      0.0555754         5853.84         5890.68 
      0.0619321         5319.77         5493.16 
       0.067871         5036.95         5136.61 
      0.0738098         4680.46         4745.42 
      0.0800417         4250.94         4293.44 
      0.0862327         3786.78         3835.44 
      0.0921407         3404.66         3432.82 
      0.0982031         3101.32         3088.09 
       0.104506         2794.78         2816.64 
       0.110769          2613.8         2625.22 
       0.116806         2516.88         2490.73 
       0.122832         2371.72         2377.35 
       0.129052         2255.48         2257.29 
       0.135211         2158.54         2121.78 
       0.141259         1991.38          1972.9 
       0.147318         1824.86         1818.35 
       0.153489         1704.95         1669.72 
       0.159709         1616.92         1541.03 
       0.165845         1481.41         1440.23 
       0.171974         1447.78         1363.91 
       0.178125          1396.7         1304.98 
       0.184229         1304.24         1255.01 
        0.19034         1277.57         1205.28 
       0.196428          1233.3         1151.01 
       0.202534         1149.96         1090.85 
       0.208729         1120.57         1026.62 
       0.214876         1068.98         964.181 
       0.220989         1000.17         907.635 
       0.227147         975.732         858.911 
        0.23329         939.156         818.971 
       0.239377         924.872         786.462 
       0.245482         880.304         758.284 
       0.251667         847.339         731.397 
       0.257832          837.35         704.104 
       0.263955         792.852         675.551 
       0.270079           766.1         645.829 
        0.27624         732.802         615.932 
       0.282372         717.205         587.554 
        0.28843         710.229             562 
       0.294538         674.479          539.22 
       0.300721         654.996         519.101 
        0.30691         644.204         501.232 
       0.313033         617.061         484.907 
       0.319153         607.476         469.101 
       0.325316             596         453.175 
        0.33145         582.613         437.152 
       0.337538         561.798         421.274 
       0.343633         545.362         405.757 
       0.349808         531.936         390.854 
       0.355968         521.715         377.055 
       0.362074         505.855         364.545 
       0.368217          501.96         353.004 
       0.374374         492.295         342.255 
       0.380519         473.046         332.069 
       0.386598         467.461         322.273 
       0.392688         457.148         312.628 
        0.39888         445.189         302.958 
       0.405048         437.541         293.523 
       0.411186         435.148         284.458 
       0.417313         428.811         275.823 
       0.423458         416.464         267.639 
       0.429607         406.085         259.949 
       0.435692         399.424         252.767 
       0.441815         392.944          245.89 
       0.447964         383.936         239.261 
       0.454126         379.044         232.825 
       0.460267         373.328         226.565 
       0.466387         366.874         220.487 
        0.47254         361.845         214.555 
       0.478662         352.975         208.852 
       0.484765         349.095         203.385 
       0.490885         345.234         198.144 
       0.497035         339.304         193.111 
       0.503198         337.577         188.281 
       0.509342         328.909         183.648 
       0.515458         324.454         179.196 
       0.521598         318.359         174.867 
       0.527764         314.296         170.643 
       0.533884         313.305         166.566 
           0.54         307.653         162.614 
       0.546137         300.926         158.777 
       0.552299         299.863         155.058 
       0.558452         294.891         151.476 
       0.564573         292.358         148.035 
       0.570708         287.442         144.703 
       0.576825         282.763         141.492 
       0.582926         280.169         138.389 
       0.589034         276.392         135.375 
       0.595184         274.579         132.425 
       0.601379         269.632         129.538 
       0.607522         264.731         126.756 
       0.613639         263.175         124.068 
       0.619772         261.477         121.456 
       0.625918         258.214         118.918 
       0.632068         253.642         116.456 
       0.638161         251.521         114.087 
         0.6443         249.783         111.769 
       0.650464         245.489         109.508 
       0.656582         243.606         107.325 
       0.662703         241.812         105.201 
       0.668861         237.416         103.123 
       0.675024         236.827           101.1 
       0.681124         233.787         99.1526 
       0.687237         231.343         97.2529 
       0.693381         228.985         95.3949 
       0.699536         226.637         93.5828 
       0.705665         224.223         91.8265 
       0.711789         222.031         90.1176 
       0.717957         219.643         88.4414 
        0.72409         217.515         86.8179 
       0.730186         218.123         85.2456 
       0.736317         214.347         83.7043 
       0.742472         211.583         82.1958 
       0.748622         208.661         80.7264 
        0.75476         209.382         79.2964 
       0.760888         206.765         77.9035 
       0.767043         203.841         76.5389 
       0.773185         202.341         75.2103 
       0.779291         199.613          73.921 
       0.785407         198.699         72.6606 
       0.791564         196.893         71.4219 
       0.797719         194.037          70.213 
       0.803834         194.762         69.0402 
       0.809972         192.931         67.8903 
       0.816124         190.094         66.7644 
       0.822261         188.498         65.6674 
       0.828378         188.389         64.5987 
       0.834502          185.37         63.5532 
       0.840667         185.014         62.5243 
       0.846816         182.627         61.5214 
       0.852925         181.343          60.547 
       0.859047         179.573          59.592 
       0.865192         179.066         58.6547 
       0.871341         176.768         57.7372 
       0.877463         175.365         56.8437 
       0.883569         175.234         55.9717 
       0.889708         173.637         55.1136 
       0.895864         172.003         54.2715 
       0.902008         170.347          53.449 
       0.908149         168.558         52.6443 
       0.914301         168.349          51.855 
       0.920448         167.541         51.0827 
       0.926574         165.114         50.3291 
       0.932687          164.75         49.5925 
       0.938823         163.475         48.8681 
       0.944975         161.985         48.1567 
       0.951105         160.669         47.4622 
       0.957225         160.152         46.7827 
       0.963368         158.624         46.1143 
       0.969511         157.021         45.4591 
       0.975621         155.855         44.8203 
       0.981748         154.769         44.1922 
       0.987916         154.087         43.5724 
        0.99406         153.096         42.9669 
        1.00019         151.909         42.3742 
        1.00632         151.094         41.7933 
        1.01246         149.972         41.2226 
        1.01859         148.888         40.6635 
        1.02471         147.791         40.1156 
        1.03085         146.692          39.576 
        1.03698         145.628         39.0476 
        1.04314         145.102         38.5266 
        1.04929         144.449         38.0165 
        1.05541         143.365         37.5177 
        1.06154         142.339         37.0268 
        1.06769         141.214          36.544 
        1.07382          140.47         36.0714 
        1.07993          139.56         35.6084 
        1.08607         138.491         35.1516 
        1.09222         137.865         34.7025 
        1.09836         136.715         34.2619 
        1.10449         135.759         33.8294 
        1.11063         134.957         33.4041 
        1.11677         134.233         32.9862 
         1.1229         133.156         32.5763 
        1.12903          132.62         32.1731 
        1.13518         131.716         31.7765 
        1.14131         130.937         31.3868 
        1.14745         130.112         31.0039 
        1.15359         128.749         30.6274 
        1.15973         128.405         30.2571 
        1.16584         127.645         29.8946 
        1.17197          126.96         29.5376 
        1.17811         125.859         29.1853 
        1.18424         125.223         28.8399 
        1.19038         124.721         28.4991 
        1.19652         123.771          28.164 
        1.20267         122.981         27.8344 
        1.20881         122.208         27.5101 
        1.21495         121.749         27.1916 
        1.22108         120.937         26.8782 
         1.2272          119.96         26.5705 
        1.23334         119.682         26.2669 
        1.23949         119.046         25.9675 
        1.24562         118.053         25.6735 
        1.25174         117.221         25.3846 
        1.25789         116.811         25.0992 
        1.26402         116.225         24.8188 
        1.27014          115.51         24.5434 
        1.27628         114.307         24.2714 
        1.28244         114.209          24.003 
        1.28858         113.202         23.7391 
        1.29471         112.587         23.4797 
        1.30084         111.888         23.2245 
        1.30697         111.598         22.9727 
        1.31312         110.744         22.7244 
        1.31925         109.973         22.4805 
        1.32537         109.557         22.2404 
        1.33151         109.252         22.0031 
        1.33765         108.128         21.7693 
        1.34378         107.961         21.5395 
        1.34992         107.499         21.3128 
        1.35606         106.632          21.089 
         1.3622         106.438         20.8688 
        1.36833         105.241         20.6522 
        1.37445         104.896         20.4389 
        1.38059         104.457          20.228 
        1.38675          103.57         20.0195 
        1.39288         103.163         19.8149 
        1.39901         102.284         19.6132 
        1.40515         102.059         19.4139 
         1.4113         101.516         19.2175 
        1.41742         100.776         19.0245 
        1.42355          100.44         18.8339 
         1.4297         99.7252         18.6453 
        1.43585         99.0863         18.4594 
        1.44198           98.57         18.2768 
        1.44809         97.8989          18.097 
        1.45423         97.6231         17.9189 
        1.46036         96.8419         17.7436 
        1.46649         96.3028         17.5706 
        1.47263          96.006         17.3997 
        1.47877         95.3954         17.2313 
        1.48491         94.8463         17.0648 
        1.49104         93.9795         16.9009 
        1.49718         93.9137          16.739 
        1.50333         93.3562          16.579 
        1.50947         93.0242         16.4214 
         1.5156         92.5488         16.2661 
        1.52172         91.8292         16.1129 
        1.52787         91.3146         15.9613 
          1.534         90.9305         15.8119 
        1.54013          90.587         15.6646 
        1.54627         89.7873         15.5188 
        1.55241         89.4233          15.375 
        1.55855         88.9489         15.2331 
        1.56467         88.1453         15.0935 
         1.5708          87.925         14.9552 
        1.57695         87.5624         14.8184 
        1.58308         87.0621         14.6837 
        1.58922         86.7999         14.5506 
        1.59535          86.384         14.4192 
         1.6015         85.9078         14.2892 
        1.60764         85.3592         14.1609 
        1.61376         84.8475         14.0346 
        1.61989         84.2552         13.9097 
        1.62604         83.9846         13.7861 
        1.63218         83.7139          13.664 
        1.63831         83.1251         13.5437 
        1.64444         82.8044         13.4248 
        1.65059          82.281         13.3071 
        1.65673         81.7521          13.191 
        1.66285         81.2405         13.0765 
        1.66898         80.8291         12.9634 
        1.67512         80.5126         12.8514 
        1.68127         80.1907         12.7406 
         1.6874         79.6682         12.6314 
        1.69353         79.2133         12.5235 
        1.69967         78.9662         12.4167 
        1.70581         78.5307         12.3111 
        1.71193         78.0561         12.2072 
        1.71806         77.5378         12.1043 
        1.72421         77.2993         12.0024 
        1.73035         77.0604         11.9017 
        1.73649         76.4835         11.8023 
        1.74262         75.9066          11.704 
        1.74876         75.6801         11.6068 
        1.75489         75.1565          11.511 
        1.76101         74.7608         11.4162 
        1.76715         74.5764         11.3224 
        1.77329         74.0426         11.2296 
        1.77943         73.8153         11.1377 
        1.78557          73.502          11.047 
        1.79171         73.0462         10.9573 
        1.79785         72.6098         10.8686 
        1.80399         72.2846          10.781 
        1.81012         71.8808         10.6943 
        1.81625         71.6071         10.6087 
        1.82239          71.308         10.5239 
        1.82853         70.7244         10.4401 
        1.83466         70.4748         10.3573 
        1.84078         70.1297         10.2755 
        1.84692         69.9082         10.1944 
        1.85306         69.4747         10.1141 
         1.8592         69.1802         10.0348 
        1.86533         68.7519         9.95638 
        1.87147         68.3737         9.87873 
        1.87761         67.9791         9.80188 
        1.88375         67.6202         9.72594 
        1.88988         67.2919          9.6509 
        1.89601         66.9604          9.5766 
        1.90215         66.5553         9.50304 
        1.90829         66.3575         9.43029 
        1.91442         65.9777         9.35829 
        1.92056         65.7252         9.28712 
         1.9267         65.3338         9.21662 
        1.93284         65.1114         9.14681 
        1.93897         64.7865         9.07785 
        1.94509         64.3534         9.00977 
        1.95123         64.0868         8.94221 
        1.95737         63.7162         8.87529 
        1.96349         63.4511         8.80924 
        1.96964          63.075         8.74368 
        1.97578         62.7283         8.67875 
        1.98192         62.4498         8.61462 
        1.98805         62.0745         8.55114 
        1.99419         61.8066         8.48829 
        2.00033         61.5004         8.42605 
        2.00647         61.2374         8.36445 
         2.0126         60.8843         8.30358 
        2.01874         60.7523         8.24322 
        2.02488         60.3682         8.18341 
        2.03101         60.0612         8.12431 
        2.03714         59.8678         8.06585 
        2.04328         59.4598         8.00791 
        2.04941         59.0152         7.95058 
        2.05554         58.9718         7.89386 
        2.06167         58.7569         7.83761 
        2.06781         58.2406         7.78191 
        2.07396         57.9644         7.72668 
        2.08009         57.7642         7.67208 
        2.08622         57.4533         7.61807 
        2.09237         57.1459         7.56447 
        2.09851         56.8238         7.51139 
        2.10464         56.6142         7.45891 
        2.11077         56.3715         7.40699 
        2.11691         56.0369         7.35545 
        2.12305         55.7326         7.30441 
        2.12918          55.463         7.25397 
        2.13531         55.2321         7.20401 
        2.14145         54.9048         7.15441 
         2.1476         54.7263         7.10522 
        2.15372         54.5123         7.05674 
        2.15985         54.1204         7.00867 
        2.16599         53.8477         6.96091 
        2.17213         53.6304         6.91365 
        2.17827          53.387         6.86684 
         2.1844         53.0788          6.8205 
        2.19054         52.8872         6.77458 
        2.19666         52.5541         6.72915 
         2.2028         52.3286          6.6841 
        2.20893         52.0196         6.63944 
        2.21508         51.7386         6.59514 
        2.22122         51.5424         6.55124 
        2.22736         51.2258         6.50782 
        2.23349         51.0842         6.46481 
        2.23962         50.8294         6.42217 
        2.24577         50.5451         6.37987 
         2.2519         50.3158         6.33802 
        2.25802         50.0818         6.29661 
        2.26417         49.8506         6.25546 
        2.27031         49.5768         6.21464 
        2.27644         49.4288          6.1743 
        2.28257         49.0228         6.13433 
        2.28872         49.0186         6.09464 
        2.29486         48.6896          6.0553 
        2.30099         48.3385          6.0164 
        2.30712         48.2298         5.97782 
        2.31326         47.9447         5.93952 
         2.3194         47.6689         5.90158 
        2.32553         47.5883         5.86403 
        2.33166         47.2019         5.82683 
         2.3378         46.9848          5.7899 
        2.34394         46.7561         5.75328 
        2.35007         46.5371         5.71703 
        2.35619         46.4193         5.68114 
        2.36233         46.0302         5.64547 
        2.36848           45.92         5.61004 
        2.37462         45.6093         5.57499 
        2.38075         45.5076         5.54027 
        2.38689         45.3345         5.50582 
        2.39303         45.0782         5.47167 
        2.39916         44.8562         5.43784 
        2.40529         44.6387         5.40431 
        2.41143         44.4036         5.37103 
        2.41757         44.2473         5.33802 
         2.4237         44.0624         5.30535 
        2.42983         43.7594         5.27296 
        2.43598         43.5388         5.24076 
        2.44211         43.3724         5.20887 
        2.44823         43.1388         5.17733 
        2.45437         42.9697         5.14596 
        2.46052         42.6857         5.11483 
        2.46665         42.5284         5.08401 
        2.47279         42.3059         5.05345 
        2.47892         42.1247         5.02313 
        2.48507          42.013         4.99303 
         2.4912         41.6709         4.96323 
