# k  (h/Mpc)    Pcb(k)  (Mpc/h)^3    Pcb_linear(k)  (Mpc/h)^3
     0.00783031         1440.36         1450.07 
       0.013688         1823.76         1844.99 
       0.019231         1900.09         1909.85 
      0.0249154         1803.36         1802.55 
      0.0312784         1594.12         1596.56 
      0.0375637         1385.05          1389.9 
      0.0433917         1234.86         1233.15 
      0.0492413         1114.73         1117.05 
      0.0555754         1029.98            1028 
      0.0619321          949.18         958.639 
       0.067871         893.445          896.42 
      0.0738098         826.695         828.157 
      0.0800417         750.082         749.281 
      0.0862327         668.574         669.356 
      0.0921407         598.532         599.093 
      0.0982031         541.166         538.933 
       0.104506         490.038          491.56 
       0.110769         457.272         458.154 
       0.116806         437.098         434.684 
       0.122832         414.199         414.897 
       0.129052          394.74         393.945 
       0.135211         372.943         370.296 
       0.141259         345.359         344.313 
       0.147318         316.712         317.341 
       0.153489         292.736         291.403 
       0.159709         272.131         268.943 
       0.165845         251.469         251.351 
       0.171974         241.953         238.033 
       0.178125         231.442         227.748 
       0.184229         220.667         219.027 
        0.19034         213.772         210.349 
       0.196428         204.253         200.876 
       0.202534         191.465         190.378 
       0.208729         182.714         179.168 
       0.214876         173.238         168.271 
       0.220989         161.034         158.403 
       0.227147         155.234         149.899 
        0.23329         148.609         142.929 
       0.239377         143.444         137.255 
       0.245482         137.591         132.338 
       0.251667         132.008         127.645 
       0.257832         128.944         122.882 
       0.263955         122.508         117.899 
       0.270079         117.433         112.712 
        0.27624         111.674         107.494 
       0.282372         107.224         102.542 
        0.28843         104.542         98.0818 
       0.294538         100.031         94.1062 
       0.300721         95.7263         90.5949 
        0.30691         93.6621         87.4765 
       0.313033         90.2221         84.6274 
       0.319153         88.4983         81.8689 
       0.325316         84.5056         79.0895 
        0.33145         81.6379         76.2931 
       0.337538         79.0639         73.5221 
       0.343633         76.6325         70.8139 
       0.349808         73.9039         68.2131 
       0.355968         71.4624         65.8049 
       0.362074          69.938         63.6215 
       0.368217         67.8302         61.6074 
       0.374374         66.4074         59.7313 
       0.380519          63.706         57.9536 
       0.386598          61.878         56.2441 
       0.392688         60.0584         54.5609 
        0.39888         58.8168         52.8731 
       0.405048         57.3105         51.2265 
       0.411186         55.7101         49.6445 
       0.417313         54.1254         48.1376 
       0.423458         52.5116         46.7091 
       0.429607          51.594          45.367 
       0.435692         50.6407         44.1138 
       0.441815         48.7715         42.9135 
       0.447964         47.3268         41.7567 
       0.454126         46.5108         40.6334 
       0.460267         45.9696         39.5409 
       0.466387         44.6333         38.4801 
        0.47254         43.9063         37.4449 
       0.478662         42.5436         36.4495 
       0.484765         41.6365         35.4954 
       0.490885         40.4488         34.5807 
       0.497035          39.731         33.7024 
       0.503198         38.8708         32.8594 
       0.509342         37.8298         32.0508 
       0.515458         37.3328         31.2739 
       0.521598         36.4654         30.5183 
       0.527764         35.9541         29.7812 
       0.533884         35.0486         29.0697 
           0.54         34.3749           28.38 
       0.546137         33.3501         27.7103 
       0.552299         32.7942         27.0613 
       0.558452         32.1167         26.4361 
       0.564573         31.7593         25.8355 
       0.570708         30.9539         25.2541 
       0.576825         30.4979         24.6936 
       0.582926         29.9422         24.1521 
       0.589034         29.3652         23.6261 
       0.595184         28.9866         23.1113 
       0.601379         28.2059         22.6073 
       0.607522          27.765         22.1219 
       0.613639         27.2619         21.6528 
       0.619772         26.8278         21.1969 
       0.625918         26.2795          20.754 
       0.632068         26.0395         20.3242 
       0.638161         25.5076         19.9109 
         0.6443         25.0848         19.5063 
       0.650464         24.4693         19.1116 
       0.656582         24.3147         18.7307 
       0.662703         24.0147         18.3601 
       0.668861         23.3709         17.9974 
       0.675024         23.0625         17.6444 
       0.681124         22.9509         17.3044 
       0.687237         22.4748         16.9729 
       0.693381         21.9668         16.6486 
       0.699536         21.8698         16.3324 
       0.705665         21.4596         16.0259 
       0.711789         21.0595         15.7276 
       0.717957          20.638         15.4351 
        0.72409         20.4629         15.1517 
       0.730186         20.3434         14.8773 
       0.736317         19.9132         14.6083 
       0.742472         19.6671         14.3451 
       0.748622          19.359         14.0886 
        0.75476         18.8746         13.8391 
       0.760888         18.7922          13.596 
       0.767043         18.4627         13.3578 
       0.773185         18.2547         13.1259 
       0.779291         18.1152          12.901 
       0.785407         17.7818          12.681 
       0.791564         17.6257         12.4648 
       0.797719         17.2603         12.2538 
       0.803834         17.1667         12.0491 
       0.809972         16.8434         11.8484 
       0.816124         16.6547          11.652 
       0.822261         16.4688         11.4605 
       0.828378         16.2653          11.274 
       0.834502         16.0995         11.0915 
       0.840667         15.9315          10.912 
       0.846816         15.5913         10.7369 
       0.852925         15.5094         10.5669 
       0.859047         15.3172         10.4002 
       0.865192          15.105         10.2366 
       0.871341         14.9026         10.0765 
       0.877463         14.7411         9.92056 
       0.883569         14.6394         9.76836 
       0.889708         14.3999         9.61861 
       0.895864         14.2251         9.47165 
       0.902008         14.0525         9.32811 
       0.908149         13.8687         9.18766 
       0.914301         13.7868          9.0499 
       0.920448         13.5875         8.91514 
       0.926574         13.5091         8.78361 
       0.932687         13.2991         8.65506 
       0.938823         13.1269         8.52864 
       0.944975         13.0273         8.40448 
       0.951105         12.8572         8.28326 
       0.957225         12.7838         8.16467 
       0.963368         12.6044         8.04803 
       0.969511         12.4698         7.93368 
       0.975621         12.3422         7.82219 
       0.981748         12.1694         7.71258 
       0.987916         12.0765          7.6044 
        0.99406         11.9777         7.49873 
        1.00019         11.8692         7.39529 
        1.00632         11.7608         7.29392 
        1.01246         11.6244         7.19431 
        1.01859         11.4926         7.09674 
        1.02471         11.3467         7.00112 
        1.03085           11.31         6.90694 
        1.03698         11.1934         6.81471 
        1.04314         11.0671          6.7238 
        1.04929         10.9146         6.63477 
        1.05541          10.856         6.54772 
        1.06154         10.7583         6.46204 
        1.06769          10.701         6.37778 
        1.07382         10.5175         6.29531 
        1.07993         10.4231          6.2145 
        1.08607         10.3758         6.13479 
        1.09222         10.2386         6.05641 
        1.09836         10.2149          5.9795 
        1.10449         10.0298         5.90403 
        1.11063          10.004          5.8298 
        1.11677         9.92629         5.75687 
         1.1229         9.83331         5.68534 
        1.12903         9.76017         5.61497 
        1.13518         9.61345         5.54574 
        1.14131         9.54968         5.47773 
        1.14745         9.42842         5.41091 
        1.15359         9.36136          5.3452 
        1.15973         9.27717         5.28057 
        1.16584         9.20999         5.21731 
        1.17197         9.12654           5.155 
        1.17811         9.04479         5.09352 
        1.18424         8.97888         5.03324 
        1.19038         8.91928         4.97377 
        1.19652         8.85104         4.91529 
        1.20267          8.7769         4.85775 
        1.20881         8.68423         4.80116 
        1.21495         8.61658         4.74557 
        1.22108         8.56263         4.69087 
         1.2272         8.47697         4.63717 
        1.23334         8.45844          4.5842 
        1.23949         8.35491         4.53193 
        1.24562         8.29446         4.48063 
        1.25174         8.24417          4.4302 
        1.25789         8.12793         4.38041 
        1.26402         8.10256         4.33147 
        1.27014         8.05294          4.2834 
        1.27628         7.95395         4.23593 
        1.28244         7.93509         4.18909 
        1.28858          7.8805         4.14303 
        1.29471         7.77145         4.09776 
        1.30084         7.71282         4.05322 
        1.30697         7.69758         4.00928 
        1.31312         7.61801         3.96594 
        1.31925         7.56446         3.92337 
        1.32537         7.51928         3.88148 
        1.33151          7.4553         3.84006 
        1.33765         7.39583         3.79926 
        1.34378         7.38233         3.75915 
        1.34992         7.30534         3.71959 
        1.35606         7.25579         3.68052 
         1.3622         7.19843         3.64209 
        1.36833         7.14671          3.6043 
        1.37445         7.08975         3.56707 
        1.38059          7.0456         3.53026 
        1.38675         6.99331         3.49388 
        1.39288         6.94767         3.45817 
        1.39901          6.8862         3.42297 
        1.40515         6.85053         3.38819 
         1.4113         6.79603         3.35391 
        1.41742          6.7609         3.32023 
        1.42355         6.70318         3.28696 
         1.4297         6.67054         3.25405 
        1.43585         6.63072          3.2216 
        1.44198         6.57854         3.18973 
        1.44809         6.54719         3.15835 
        1.45423         6.49282         3.12727 
        1.46036         6.45824         3.09668 
        1.46649          6.4084         3.06648 
        1.47263         6.38018         3.03667 
        1.47877         6.33463         3.00726 
        1.48491         6.30109         2.97821 
        1.49104         6.24844          2.9496 
        1.49718         6.22468         2.92135 
        1.50333         6.17738         2.89343 
        1.50947         6.11977         2.86593 
         1.5156         6.10814         2.83883 
        1.52172         6.07065         2.81208 
        1.52787         6.03171         2.78563 
          1.534         5.99229         2.75955 
        1.54013         5.96113         2.73384 
        1.54627         5.91896          2.7084 
        1.55241         5.87145         2.68329 
        1.55855         5.85813         2.65854 
        1.56467          5.8162         2.63417 
         1.5708         5.78121         2.61003 
        1.57695         5.72895         2.58617 
        1.58308         5.69516         2.56266 
        1.58922         5.67819         2.53942 
        1.59535         5.64333         2.51649 
         1.6015         5.59805         2.49381 
        1.60764         5.57811         2.47142 
        1.61376         5.54647         2.44937 
        1.61989         5.49567         2.42757 
        1.62604         5.47322         2.40599 
        1.63218         5.44915         2.38469 
        1.63831         5.42764          2.3637 
        1.64444         5.38149         2.34295 
        1.65059         5.35961         2.32241 
        1.65673         5.32811         2.30213 
        1.66285         5.29983         2.28216 
        1.66898          5.2658         2.26242 
        1.67512         5.23174         2.24287 
        1.68127         5.20136         2.22354 
         1.6874         5.18579         2.20448 
        1.69353         5.13936         2.18565 
        1.69967         5.12307         2.16701 
        1.70581         5.08854         2.14858 
        1.71193         5.06442         2.13045 
        1.71806         5.03994         2.11249 
        1.72421         5.00988          2.0947 
        1.73035         4.98244         2.07713 
        1.73649          4.9553         2.05977 
        1.74262         4.93039         2.04263 
        1.74876         4.91395         2.02567 
        1.75489          4.8816         2.00894 
        1.76101         4.84827          1.9924 
        1.76715         4.83931         1.97603 
        1.77329         4.81043         1.95983 
        1.77943          4.7745          1.9438 
        1.78557         4.76016         1.92797 
        1.79171         4.73957         1.91232 
        1.79785          4.7131         1.89684 
        1.80399         4.67411         1.88153 
        1.81012         4.66062         1.86642 
        1.81625         4.63543         1.85148 
        1.82239         4.61689         1.83668 
        1.82853         4.58935         1.82205 
        1.83466         4.55424         1.80759 
        1.84078          4.5356         1.79331 
        1.84692         4.51731         1.77916 
        1.85306         4.49418         1.76515 
         1.8592         4.48068         1.75131 
        1.86533         4.45573         1.73763 
        1.87147         4.43395         1.72407 
        1.87761         4.42014         1.71066 
        1.88375         4.39131         1.69741 
        1.88988         4.37052         1.68431 
        1.89601         4.34373         1.67135 
        1.90215         4.31621         1.65851 
        1.90829         4.31442         1.64581 
        1.91442         4.28063         1.63325 
        1.92056         4.27378         1.62082 
         1.9267         4.24489         1.60852 
        1.93284         4.23715         1.59634 
        1.93897         4.20057          1.5843 
        1.94509         4.18291         1.57242 
        1.95123          4.1671         1.56063 
        1.95737         4.15141         1.54895 
        1.96349         4.12128         1.53742 
        1.96964         4.10645         1.52598 
        1.97578         4.09175         1.51465 
        1.98192         4.06488         1.50346 
        1.98805         4.05607         1.49238 
        1.99419         4.03657         1.48141 
        2.00033         4.00348         1.47055 
        2.00647         4.00182          1.4598 
         2.0126          3.9802         1.44917 
        2.01874         3.96883         1.43864 
        2.02488         3.94475          1.4282 
        2.03101         3.92039         1.41789 
        2.03714         3.91243         1.40768 
        2.04328         3.89359         1.39757 
        2.04941         3.87534         1.38757 
        2.05554         3.86381         1.37767 
        2.06167         3.83876         1.36785 
        2.06781         3.82753         1.35813 
        2.07396          3.8061         1.34849 
        2.08009         3.79826         1.33896 
        2.08622          3.7805         1.32954 
        2.09237         3.77257         1.32018 
        2.09851         3.74083         1.31092 
        2.10464          3.7313         1.30176 
        2.11077          3.7236          1.2927 
        2.11691          3.7006          1.2837 
        2.12305         3.68142         1.27479 
        2.12918         3.66952         1.26599 
        2.13531         3.65118         1.25727 
        2.14145         3.64217         1.24862 
         2.1476         3.61649         1.24003 
        2.15372         3.60689         1.23157 
        2.15985         3.59338         1.22318 
        2.16599         3.58176         1.21485 
        2.17213         3.56784          1.2066 
        2.17827         3.54508         1.19843 
         2.1844         3.53006         1.19034 
        2.19054         3.52023         1.18233 
        2.19666          3.5069          1.1744 
         2.2028         3.48197         1.16654 
        2.20893         3.48003         1.15874 
        2.21508          3.4678         1.15101 
        2.22122         3.44302         1.14335 
        2.22736         3.43458         1.13577 
        2.23349         3.41769         1.12826 
        2.23962         3.41168         1.12082 
        2.24577         3.38893         1.11344 
         2.2519         3.37922         1.10614 
        2.25802         3.36442         1.09891 
        2.26417           3.352         1.09173 
        2.27031         3.33763          1.0846 
        2.27644         3.32691         1.07756 
        2.28257         3.31268         1.07059 
        2.28872         3.30168         1.06366 
        2.29486         3.28374          1.0568 
        2.30099         3.27163         1.05001 
        2.30712         3.26336         1.04327 
        2.31326         3.24995         1.03659 
         2.3194         3.23616         1.02997 
        2.32553         3.22751         1.02341 
        2.33166         3.21875         1.01692 
         2.3378         3.20408         1.01048 
        2.34394          3.1876         1.00409 
        2.35007         3.17131        0.997759 
        2.35619         3.16619        0.991496 
        2.36233         3.15287        0.985271 
        2.36848         3.14383        0.979087 
        2.37462         3.13283        0.972969 
        2.38075         3.12262         0.96691 
        2.38689         3.11042        0.960898 
        2.39303         3.09895        0.954938 
        2.39916         3.08405        0.949034 
        2.40529         3.07312        0.943182 
        2.41143         3.06759        0.937375 
        2.41757         3.05828        0.931614 
         2.4237         3.04077        0.925912 
        2.42983         3.03686        0.920259 
        2.43598         3.02539        0.914638 
        2.44211         3.00768        0.909074 
        2.44823         2.99941        0.903569 
        2.45437         2.98601        0.898094 
        2.46052         2.97782        0.892661 
        2.46665         2.96964        0.887282 
        2.47279         2.95066         0.88195 
        2.47892         2.94724        0.876658 
        2.48507         2.93505        0.871404 
         2.4912         2.93027        0.866204 
