# k  (h/Mpc)    Pcb(k)  (Mpc/h)^3    Pcb_linear(k)  (Mpc/h)^3
     0.00783031         1189.78         1200.11 
       0.013688         1338.47         1352.94 
       0.019231         1257.51         1262.71 
      0.0249154         1081.46         1078.84 
      0.0312784         868.277         866.638 
      0.0375637         702.671          702.73 
      0.0433917         602.653          600.61 
      0.0492413         536.253         536.048 
      0.0555754         491.705         490.162 
      0.0619321         447.732         450.614 
       0.067871         408.961         409.258 
      0.0738098          362.45         362.078 
      0.0800417         312.625         311.218 
      0.0862327         267.097         266.272 
      0.0921407         233.727         232.961 
      0.0982031         210.946          209.39 
       0.104506         193.957         194.038 
       0.110769         184.028         183.967 
       0.116806         176.072         175.197 
       0.122832         164.764         164.722 
       0.129052         152.049         151.359 
       0.135211         137.931         136.649 
       0.141259         123.544         122.664 
       0.147318         111.224         110.748 
       0.153489         102.385         101.564 
       0.159709         96.2489         95.1545 
       0.165845         90.9199         90.7637 
       0.171974         88.2677         87.1661 
       0.178125          84.255         83.3717 
       0.184229         79.4437         78.9164 
        0.19034         74.8821          73.803 
       0.196428         69.5754         68.4806 
       0.202534         63.9687         63.4547 
       0.208729         60.2229         59.0953 
       0.214876         57.0373         55.6606 
       0.220989         53.7797         53.0202 
       0.227147         52.1203         50.8679 
        0.23329         50.1343         48.9089 
       0.239377         48.2281         46.9118 
       0.245482         45.9486         44.7478 
       0.251667         43.3985          42.425 
       0.257832         41.5471          40.108 
       0.263955         39.0707         37.9531 
       0.270079         37.1408          36.043 
        0.27624         35.3586         34.4021 
       0.282372         34.0035         33.0083 
        0.28843         33.0851         31.7876 
       0.294538         31.8111         30.6289 
       0.300721         30.4308         29.4643 
        0.30691          29.494         28.2811 
       0.313033         28.2279         27.1027 
       0.319153         27.3482         25.9528 
       0.325316         25.9452         24.8589 
        0.33145         24.8999         23.8605 
       0.337538         24.0437         22.9644 
       0.343633         23.3239         22.1501 
       0.349808          22.474         21.3877 
       0.355968         21.7011         20.6638 
       0.362074         21.1618         19.9667 
       0.368217         20.4108         19.2764 
       0.374374         19.8523         18.5988 
       0.380519         19.0344         17.9447 
       0.386598         18.3583         17.3276 
       0.392688         17.7284         16.7464 
        0.39888         17.2849         16.1939 
       0.405048         16.7965         15.6782 
       0.411186         16.2653         15.1938 
       0.417313         15.7854         14.7313 
       0.423458         15.2499         14.2831 
       0.429607         14.9397         13.8484 
       0.435692         14.5824         13.4314 
       0.441815         14.0467         13.0261 
       0.447964         13.5723         12.6358 
       0.454126         13.2929          12.263 
       0.460267         13.0346         11.9092 
       0.466387          12.633          11.573 
        0.47254         12.3658         11.2501 
       0.478662         11.9887         10.9416 
       0.484765         11.6885         10.6447 
       0.490885         11.3315         10.3567 
       0.497035         11.0385          10.077 
       0.503198         10.8272         9.80661 
       0.509342         10.4832         9.54676 
       0.515458         10.2894         9.29779 
       0.521598         10.0497         9.05751 
       0.527764         9.85796         8.82566 
       0.533884         9.54527         8.60416 
           0.54         9.36731          8.3906 
       0.546137         9.08854         8.18341 
       0.552299         8.90535         7.98213 
       0.558452         8.68991         7.78779 
       0.564573         8.53366         7.60079 
       0.570708         8.33951         7.41953 
       0.576825         8.16921         7.24477 
       0.582926         7.97769         7.07622 
       0.589034         7.82149         6.91301 
       0.595184         7.70021         6.75407 
       0.601379          7.4873         6.59921 
       0.607522         7.32709         6.45052 
       0.613639         7.16595         6.30703 
       0.619772         7.04491         6.16752 
       0.625918         6.89428          6.0319 
       0.632068         6.78342         5.90028 
       0.638161         6.63727         5.77378 
         0.6443         6.50061         5.65014 
       0.650464          6.3534         5.52975 
       0.656582         6.27899         5.41381 
       0.662703           6.165         5.30121 
       0.668861         6.00053         5.19122 
       0.675024         5.89202         5.08428 
       0.681124         5.86819         4.98145 
       0.687237         5.72189         4.88126 
       0.693381         5.57312         4.78337 
       0.699536         5.52185         4.68801 
       0.705665          5.4129         4.59567 
       0.711789         5.29356         4.50593 
       0.717957         5.18866         4.41801 
        0.72409         5.12068         4.33294 
       0.730186         5.07359         4.25065 
       0.736317         4.94702         4.17008 
       0.742472         4.88549         4.09131 
       0.748622          4.8037         4.01467 
        0.75476         4.68163         3.94016 
       0.760888         4.63674         3.86767 
       0.767043         4.52361         3.79673 
       0.773185         4.46644         3.72772 
       0.779291         4.43434         3.66083 
       0.785407         4.34035         3.59549 
       0.791564         4.27115         3.53135 
       0.797719          4.1948         3.46882 
       0.803834         4.14543          3.4082 
       0.809972         4.06664         3.34883 
       0.816124         4.01043         3.29075 
       0.822261         3.95259         3.23422 
       0.828378         3.89178         3.17919 
       0.834502         3.83296          3.1254 
       0.840667         3.78872         3.07252 
       0.846816         3.70935         3.02102 
       0.852925         3.66505         2.97104 
       0.859047         3.60877         2.92208 
       0.865192         3.55672         2.87408 
       0.871341          3.5074         2.82712 
       0.877463         3.44875         2.78144 
       0.883569         3.41102         2.73689 
       0.889708         3.36225         2.69309 
       0.895864         3.31473         2.65015 
       0.902008         3.25944         2.60823 
       0.908149           3.217         2.56726 
       0.914301         3.17664          2.5271 
       0.920448         3.14126         2.48785 
       0.926574         3.11163         2.44957 
       0.932687         3.05722         2.41218 
       0.938823         3.00095         2.37545 
       0.944975          2.9816          2.3394 
       0.951105          2.9187         2.30423 
       0.957225         2.89986         2.26985 
       0.963368         2.86182         2.23606 
       0.969511         2.82685         2.20296 
       0.975621         2.78294         2.17071 
       0.981748         2.73476         2.13902 
       0.987916         2.70819         2.10777 
        0.99406         2.68492         2.07727 
        1.00019         2.65041         2.04743 
        1.00632         2.62431         2.01821 
        1.01246         2.58449         1.98952 
        1.01859          2.5538         1.96144 
        1.02471         2.51189         1.93393 
        1.03085         2.48835         1.90686 
        1.03698         2.46074         1.88037 
        1.04314         2.43103         1.85426 
        1.04929         2.40326         1.82872 
        1.05541         2.36754         1.80376 
        1.06154          2.3488         1.77921 
        1.06769          2.3294         1.75508 
        1.07382         2.29041         1.73148 
        1.07993         2.26088         1.70837 
        1.08607         2.24512         1.68559 
        1.09222         2.21202          1.6632 
        1.09836         2.20207         1.64124 
        1.10449         2.15564         1.61971 
        1.11063          2.1388         1.59855 
        1.11677         2.11871         1.57777 
         1.1229         2.09092          1.5574 
        1.12903         2.07564         1.53737 
        1.13518          2.0443         1.51768 
        1.14131         2.02418         1.49834 
        1.14745         2.00135         1.47936 
        1.15359         1.97909          1.4607 
        1.15973         1.95651         1.44236 
        1.16584         1.93936         1.42442 
        1.17197         1.91347         1.40675 
        1.17811         1.89337         1.38934 
        1.18424         1.87336         1.37227 
        1.19038         1.85552         1.35544 
        1.19652         1.83831          1.3389 
        1.20267         1.82338         1.32264 
        1.20881         1.80026         1.30665 
        1.21495         1.78278         1.29095 
        1.22108         1.76646         1.27551 
         1.2272         1.74076         1.26036 
        1.23334          1.7317         1.24542 
        1.23949         1.71015          1.2307 
        1.24562         1.69566         1.21625 
        1.25174         1.68348         1.20205 
        1.25789         1.65818         1.18804 
        1.26402         1.64276         1.17428 
        1.27014         1.62449         1.16077 
        1.27628         1.61146         1.14743 
        1.28244         1.59589         1.13428 
        1.28858         1.58144         1.12135 
        1.29471         1.56171         1.10865 
        1.30084         1.54924         1.09616 
        1.30697         1.53879         1.08385 
        1.31312         1.52229          1.0717 
        1.31925         1.50743         1.05979 
        1.32537         1.49588         1.04806 
        1.33151         1.47819         1.03647 
        1.33765         1.46591         1.02506 
        1.34378         1.45451         1.01385 
        1.34992         1.44193          1.0028 
        1.35606          1.4278        0.991891 
         1.3622           1.416        0.981163 
        1.36833         1.39948         0.97062 
        1.37445         1.38582        0.960238 
        1.38059         1.37472        0.949976 
        1.38675         1.36252         0.93984 
        1.39288         1.35463        0.929893 
        1.39901         1.33808        0.920095 
        1.40515         1.32751        0.910417 
         1.4113         1.31931        0.900881 
        1.41742         1.30304         0.89152 
        1.42355         1.29183        0.882274 
         1.4297         1.28308        0.873131 
        1.43585         1.27177        0.864123 
        1.44198         1.26074        0.855276 
        1.44809         1.25101         0.84657 
        1.45423         1.23956        0.837953 
        1.46036         1.23028        0.829472 
        1.46649         1.21562        0.821106 
        1.47263         1.21017        0.812849 
        1.47877         1.20341        0.804708 
        1.48491         1.18559        0.796667 
        1.49104         1.17918        0.788753 
        1.49718         1.16851         0.78094 
        1.50333         1.15895         0.77322 
        1.50947         1.15075        0.765621 
         1.5156         1.14143        0.758135 
        1.52172         1.13248         0.75075 
        1.52787         1.12315        0.743448 
          1.534         1.11612        0.736252 
        1.54013         1.10565        0.729159 
        1.54627         1.09621        0.722147 
        1.55241         1.08638        0.715226 
        1.55855          1.0789        0.708406 
        1.56467         1.07106        0.701693 
         1.5708         1.06274        0.695049 
        1.57695         1.05273        0.688481 
        1.58308         1.04289        0.682013 
        1.58922         1.03833        0.675624 
        1.59535         1.02734         0.66932 
         1.6015         1.01998        0.663087 
        1.60764         1.01368        0.656937 
        1.61376         1.00384        0.650882 
        1.61989        0.997206        0.644898 
        1.62604        0.987717        0.638977 
        1.63218        0.983586        0.633133 
        1.63831         0.97568        0.627377 
        1.64444        0.967528        0.621689 
        1.65059        0.962165        0.616059 
        1.65673        0.951789        0.610505 
        1.66285        0.945914        0.605036 
        1.66898        0.940161        0.599631 
        1.67512        0.929914        0.594282 
        1.68127        0.924285        0.588994 
         1.6874        0.920714        0.583782 
        1.69353        0.911297        0.578636 
        1.69967        0.905376         0.57354 
        1.70581        0.901621        0.568507 
        1.71193        0.889945        0.563554 
        1.71806        0.887064         0.55865 
        1.72421        0.881385        0.553794 
        1.73035        0.871469        0.549001 
        1.73649        0.869274        0.544267 
        1.74262        0.860721        0.539591 
        1.74876        0.855136        0.534968 
        1.75489         0.84973        0.530408 
        1.76101         0.84135        0.525903 
        1.76715        0.837421        0.521444 
        1.77329        0.832021        0.517031 
        1.77943        0.826656        0.512668 
        1.78557        0.822054        0.508361 
        1.79171        0.816181        0.504103 
        1.79785        0.810548        0.499894 
        1.80399        0.803128        0.495733 
        1.81012        0.798485        0.491625 
        1.81625        0.792064        0.487566 
        1.82239        0.787943        0.483546 
        1.82853        0.782625        0.479574 
        1.83466        0.776841         0.47565 
        1.84078        0.771546        0.471774 
        1.84692        0.766563        0.467936 
        1.85306        0.763685        0.464135 
         1.8592        0.755781        0.460383 
        1.86533        0.752735        0.456674 
        1.87147        0.746007        0.453002 
        1.87761        0.742196        0.449368 
        1.88375        0.737011        0.445779 
        1.88988        0.731376        0.442233 
        1.89601        0.726866        0.438724 
        1.90215        0.722929         0.43525 
        1.90829         0.71841        0.431815 
        1.91442        0.713518        0.428417 
        1.92056        0.710051        0.425059 
         1.9267        0.705289        0.421733 
        1.93284         0.69953        0.418441 
        1.93897        0.695087        0.415191 
        1.94509        0.691403        0.411982 
        1.95123        0.686223        0.408798 
        1.95737        0.683407        0.405647 
        1.96349        0.678031        0.402536 
        1.96964        0.675921        0.399449 
        1.97578         0.66953        0.396393 
        1.98192        0.664905        0.393376 
        1.98805        0.661387        0.390389 
        1.99419        0.657629        0.387433 
        2.00033         0.65415        0.384507 
        2.00647        0.651067        0.381611 
         2.0126        0.647426         0.37875 
        2.01874        0.642385        0.375914 
        2.02488        0.637486        0.373105 
        2.03101        0.634018        0.370329 
        2.03714        0.631467        0.367585 
        2.04328        0.627061        0.364865 
        2.04941          0.6232        0.362175 
        2.05554        0.618751        0.359513 
        2.06167        0.615646        0.356876 
        2.06781        0.611472        0.354264 
        2.07396        0.609321        0.351674 
        2.08009        0.605337        0.349115 
        2.08622        0.601253        0.346585 
        2.09237        0.598462        0.344074 
        2.09851        0.594697        0.341588 
        2.10464        0.591169        0.339131 
        2.11077        0.586412        0.336701 
        2.11691        0.583692        0.334289 
        2.12305        0.581911        0.331901 
        2.12918        0.577038        0.329542 
        2.13531        0.574246        0.327205 
        2.14145        0.570707        0.324886 
         2.1476        0.567335        0.322587 
        2.15372        0.564695        0.320321 
        2.15985        0.561078        0.318075 
        2.16599        0.558385        0.315844 
        2.17213        0.554938        0.313637 
        2.17827        0.551669        0.311451 
         2.1844        0.548574        0.309288 
        2.19054        0.545747        0.307145 
        2.19666        0.542975        0.305026 
         2.2028        0.539838        0.302924 
        2.20893        0.537698        0.300842 
        2.21508        0.533937        0.298776 
        2.22122        0.531331         0.29673 
        2.22736        0.527043        0.294706 
        2.23349        0.524359        0.292702 
        2.23962        0.522999        0.290716 
        2.24577        0.519646        0.288746 
         2.2519        0.516382        0.286798 
        2.25802        0.514808         0.28487 
        2.26417        0.510785        0.282955 
        2.27031        0.508812        0.281056 
        2.27644        0.506359        0.279179 
        2.28257        0.502551         0.27732 
        2.28872        0.501391        0.275475 
        2.29486        0.497665        0.273646 
        2.30099          0.4952        0.271838 
        2.30712        0.493131        0.270045 
        2.31326        0.490217        0.268266 
         2.3194         0.48693        0.266503 
        2.32553        0.484701        0.264759 
        2.33166         0.48311        0.263032 
         2.3378        0.480537        0.261318 
        2.34394        0.477979        0.259618 
        2.35007        0.473987        0.257936 
        2.35619        0.472008        0.256271 
        2.36233        0.469995        0.254617 
        2.36848        0.468578        0.252973 
        2.37462        0.465468        0.251348 
        2.38075        0.463162        0.249739 
        2.38689        0.461517        0.248142 
        2.39303         0.45839         0.24656 
        2.39916        0.456617        0.244993 
        2.40529        0.454646         0.24344 
        2.41143        0.451011        0.241899 
        2.41757        0.449527        0.240371 
         2.4237         0.44722        0.238859 
        2.42983        0.444411         0.23736 
        2.43598        0.442665         0.23587 
        2.44211        0.440502        0.234395 
        2.44823        0.438349        0.232936 
        2.45437        0.436817        0.231486 
        2.46052        0.435166        0.230046 
        2.46665        0.432315        0.228622 
        2.47279        0.430387        0.227209 
        2.47892        0.428022        0.225808 
        2.48507        0.427042        0.224418 
         2.4912        0.423998        0.223042 
