# k  (h/Mpc)    P(k)  (Mpc/h)^3    P_linear(k)  (Mpc/h)^3
     0.00783031         11699.9           11758 
       0.013688         13738.7         13505.1 
       0.019231           12987         12815.8 
      0.0249154         11036.4         11091.5 
      0.0312784         8987.46         8940.42 
      0.0375637          7275.6         7162.06 
      0.0433917         6007.76         5989.13 
      0.0492413         5290.39         5230.09 
      0.0555754         4697.79         4734.01 
      0.0619321         4485.35         4399.16 
       0.067871         4080.69         4100.59 
      0.0738098         3731.41          3745.8 
      0.0800417          3276.7         3307.88 
      0.0862327         2867.63         2852.88 
      0.0921407         2518.29          2457.5 
      0.0982031         2179.62         2133.05 
       0.104506          1997.8         1897.49 
       0.110769         1840.77         1753.01 
       0.116806         1739.52         1669.62 
       0.122832         1675.19         1608.08 
       0.129052         1568.36         1537.51 
       0.135211         1478.95         1443.59 
       0.141259          1389.5         1327.68 
       0.147318         1277.89         1200.06 
       0.153489         1147.48         1075.33 
       0.159709         1060.52         969.442 
       0.165845         998.617         891.193 
       0.171974         937.816          837.95 
       0.178125          897.18         802.813 
       0.184229         863.945         776.784 
        0.19034         813.395         750.675 
       0.196428         795.492         718.703 
       0.202534         764.497         678.994 
       0.208729         717.723         633.231 
       0.214876         673.859         587.003 
       0.220989         642.151         544.872 
       0.227147         607.676          509.44 
        0.23329         579.683         482.018 
       0.239377         565.219         461.572 
       0.245482         527.497         445.416 
       0.251667         523.165         430.736 
       0.257832         504.134         415.493 
       0.263955         485.873         398.521 
       0.270079         465.111         379.761 
        0.27624         456.646         360.034 
       0.282372         437.608         340.889 
        0.28843         423.197         323.641 
       0.294538         401.645         308.579 
       0.300721         397.439         295.821 
        0.30691         379.057         285.052 
       0.313033         370.889         275.649 
       0.319153         357.795         266.698 
       0.325316         348.092         257.596 
        0.33145         336.465         248.165 
       0.337538         330.866         238.549 
       0.343633         319.408         228.927 
       0.349808         308.014         219.577 
       0.355968         303.706         210.938 
       0.362074         297.159         203.206 
       0.368217         288.634         196.248 
       0.374374         276.876         189.925 
       0.380519           273.9         184.063 
       0.386598         266.667         178.478 
       0.392688         263.419         172.955 
        0.39888         256.228         167.367 
       0.405048         249.817         161.835 
       0.411186         244.698         156.462 
       0.417313         239.669         151.323 
       0.423458         234.453         146.455 
       0.429607         229.692         141.914 
       0.435692         223.055         137.729 
       0.441815         220.955         133.768 
       0.447964         216.349         129.987 
       0.454126         208.725         126.339 
       0.460267         205.674         122.793 
       0.466387         202.998         119.333 
        0.47254         198.359         115.943 
       0.478662         197.572         112.672 
       0.484765         190.587          109.53 
       0.490885         188.094         106.518 
       0.497035         185.049         103.641 
       0.503198         180.892         100.896 
       0.509342          178.83         98.2789 
       0.515458         176.125         95.7758 
       0.521598         172.464         93.3502 
       0.527764         170.299         90.9889 
       0.533884         167.969         88.7084 
           0.54         165.119          86.494 
       0.546137         163.922         84.3416 
       0.552299         160.568         82.2558 
       0.558452         158.706         80.2499 
       0.564573         156.169         78.3272 
       0.570708         152.891         76.4703 
       0.576825         151.021         74.6859 
       0.582926         148.385         72.9675 
       0.589034         146.799          71.302 
       0.595184         145.011         69.6751 
       0.601379         142.935          68.083 
       0.607522          140.32         66.5498 
       0.613639         139.318         65.0687 
       0.619772          136.45         63.6296 
       0.625918         135.049         62.2336 
       0.632068         133.322          60.881 
       0.638161         132.244         59.5823 
         0.6443         130.354         58.3134 
       0.650464         129.025         57.0773 
       0.656582         127.067         55.8861 
       0.662703         125.932         54.7287 
       0.668861         123.703         53.5975 
       0.675024         122.192         52.4973 
       0.681124          121.46          51.439 
       0.687237         119.346         50.4077 
       0.693381         117.554         49.3999 
       0.699536         116.771         48.4181 
       0.705665         116.276         47.4674 
       0.711789         113.977         46.5436 
       0.717957         113.761         45.6385 
        0.72409         111.858         44.7629 
       0.730186         110.276          43.916 
       0.736317         109.369         43.0866 
       0.742472         108.601         42.2758 
       0.748622         107.447         41.4868 
        0.75476         106.441         40.7196 
       0.760888         105.029         39.9731 
       0.767043         104.493         39.2425 
       0.773185         103.368         38.5317 
       0.779291         101.626         37.8427 
       0.785407         101.156         37.1697 
       0.791564         100.415         36.5089 
       0.797719         98.4593         35.8648 
       0.803834         98.0368         35.2403 
       0.809972         97.0431         34.6287 
       0.816124         96.5509         34.0304 
       0.822261         95.6204         33.4479 
       0.828378         94.7615          32.881 
       0.834502         94.2389         32.3268 
       0.840667         92.8776         31.7819 
       0.846816         91.7927         31.2512 
       0.852925         91.2977          30.736 
       0.859047         90.1488         30.2314 
       0.865192         89.5429         29.7366 
       0.871341         88.7991         29.2526 
       0.877463         87.7249         28.7816 
       0.883569         87.4251         28.3223 
       0.889708         86.5712         27.8706 
       0.895864         85.7997         27.4277 
       0.902008         85.1178         26.9954 
       0.908149          84.652         26.5728 
       0.914301         83.7617         26.1585 
       0.920448         83.0927         25.7535 
       0.926574         82.4427         25.3586 
       0.932687          82.386         24.9728 
       0.938823         81.0664         24.5937 
       0.944975         80.2051         24.2216 
       0.951105         79.7922         23.8587 
       0.957225         78.9898         23.5038 
       0.963368         78.3027          23.155 
       0.969511         78.1868         22.8133 
       0.975621         77.7005         22.4804 
       0.981748         77.0291         22.1533 
       0.987916         76.2679         21.8307 
        0.99406         75.7236         21.5158 
        1.00019          75.332         21.2078 
        1.00632         74.6224         20.9061 
        1.01246         74.2178         20.6099 
        1.01859          73.336         20.3199 
        1.02471         72.9549         20.0359 
        1.03085         72.3274         19.7564 
        1.03698           72.07         19.4828 
        1.04314         71.3723         19.2133 
        1.04929         70.8892         18.9496 
        1.05541         70.2103         18.6919 
        1.06154          70.108         18.4384 
        1.06769         69.7058         18.1892 
        1.07382         69.2403         17.9455 
        1.07993         68.7309         17.7068 
        1.08607         68.1866         17.4715 
        1.09222         67.9647         17.2402 
        1.09836         67.3206         17.0134 
        1.10449          67.017          16.791 
        1.11063         66.3989         16.5723 
        1.11677         66.0926         16.3576 
         1.1229         65.4308         16.1471 
        1.12903         64.8872         15.9401 
        1.13518         64.9992         15.7367 
        1.14131         64.5064         15.5368 
        1.14745         63.9029         15.3406 
        1.15359         63.6109         15.1478 
        1.15973         63.1381         14.9582 
        1.16584         62.6744         14.7726 
        1.17197         62.3512           14.59 
        1.17811         62.0307           14.41 
        1.18424         61.5228         14.2335 
        1.19038          61.216         14.0594 
        1.19652          60.943         13.8884 
        1.20267         60.2522         13.7202 
        1.20881         60.0688         13.5548 
        1.21495         59.6121         13.3924 
        1.22108         59.4802         13.2328 
         1.2272         58.7364         13.0761 
        1.23334         58.5467         12.9216 
        1.23949         58.3149         12.7693 
        1.24562         57.8362         12.6198 
        1.25174         57.5896          12.473 
        1.25789         57.3862         12.3281 
        1.26402         56.9361         12.1857 
        1.27014         56.5508          12.046 
        1.27628         56.2239          11.908 
        1.28244         55.8907         11.7719 
        1.28858         55.7006         11.6382 
        1.29471         55.4026         11.5068 
        1.30084         55.0792         11.3777 
        1.30697         54.7033         11.2503 
        1.31312          54.362         11.1246 
        1.31925         54.0773         11.0013 
        1.32537         53.8956           10.88 
        1.33151         53.3627         10.7601 
        1.33765         53.1791         10.6421 
        1.34378          52.869         10.5261 
        1.34992         52.5849         10.4117 
        1.35606         52.3234         10.2988 
         1.3622          51.931         10.1877 
        1.36833         51.7451         10.0786 
        1.37445         51.4618         9.97113 
        1.38059         51.0619          9.8649 
        1.38675         50.8219         9.75997 
        1.39288         50.5471         9.65699 
        1.39901         50.3896         9.55554 
        1.40515         50.0173         9.45533 
         1.4113         49.8155          9.3566 
        1.41742         49.7093         9.25965 
        1.42355           49.25         9.16391 
         1.4297         49.1419         9.06923 
        1.43585         48.8069         8.97593 
        1.44198         48.4772         8.88431 
        1.44809          48.325         8.79413 
        1.45423          48.066         8.70489 
        1.46036         47.8804         8.61704 
        1.46649         47.6301         8.53038 
        1.47263         47.2953         8.44485 
        1.47877         47.0446         8.36053 
        1.48491         46.9899         8.27723 
        1.49104         46.6153         8.19525 
        1.49718         46.2038         8.11431 
        1.50333         46.1772         8.03435 
        1.50947         45.9456         7.95563 
         1.5156         45.6476         7.87809 
        1.52172         45.5314         7.80158 
        1.52787         45.3871         7.72594 
          1.534         44.9979          7.6514 
        1.54013         44.7683         7.57791 
        1.54627         44.6765         7.50527 
        1.55241         44.2194         7.43356 
        1.55855         44.1469          7.3629 
        1.56467          43.796         7.29335 
         1.5708         43.8028          7.2245 
        1.57695          43.575         7.15644 
        1.58308         43.2556         7.08942 
        1.58922         43.1323         7.02321 
        1.59535         43.0016         6.95787 
         1.6015          42.608         6.89328 
        1.60764          42.415         6.82954 
        1.61376         42.2184         6.76678 
        1.61989         42.0332         6.70476 
        1.62604          41.849         6.64338 
        1.63218         41.7859         6.58281 
        1.63831         41.4669         6.52314 
        1.64444         41.2796         6.46418 
        1.65059         41.1143         6.40581 
        1.65673         40.8843         6.34823 
        1.66285         40.6036         6.29152 
        1.66898         40.4976         6.23549 
        1.67512         40.2187         6.18002 
        1.68127         40.0662         6.12519 
         1.6874         39.9021         6.07114 
        1.69353         39.6714         6.01777 
        1.69967         39.5101         5.96493 
        1.70581         39.4372         5.91274 
        1.71193         39.2509         5.86137 
        1.71806         38.8478         5.81051 
        1.72421         38.8125         5.76015 
        1.73035         38.6429         5.71045 
        1.73649         38.3084         5.66134 
        1.74262         38.2166         5.61285 
        1.74876         38.0744          5.5649 
        1.75489         37.9101         5.51761 
        1.76101         37.7564         5.47088 
        1.76715         37.5496         5.42464 
        1.77329         37.3905         5.37887 
        1.77943         37.1965         5.33361 
        1.78557         37.0216         5.28894 
        1.79171         36.8698         5.24477 
        1.79785         36.6658          5.2011 
        1.80399         36.6383         5.15793 
        1.81012         36.3302         5.11532 
        1.81625         36.1379         5.07321 
        1.82239         36.0616          5.0315 
        1.82853         35.8458         4.99029 
        1.83466         35.6453         4.94958 
        1.84078         35.4328         4.90937 
        1.84692         35.3304         4.86954 
        1.85306         35.1386         4.83011 
         1.8592          34.946         4.79117 
        1.86533         34.8619         4.75269 
        1.87147         34.7455         4.71458 
        1.87761         34.5922         4.67688 
        1.88375         34.4038         4.63963 
        1.88988         34.3192         4.60284 
        1.89601         34.1275         4.56641 
        1.90215         34.0047         4.53036 
        1.90829         33.8991         4.49471 
        1.91442         33.6864         4.45945 
        1.92056         33.4751         4.42459 
         1.9267         33.3731         4.39007 
        1.93284         33.1593          4.3559 
        1.93897         33.1246         4.32216 
        1.94509         32.8936         4.28885 
        1.95123         32.7836          4.2558 
        1.95737         32.5981         4.22308 
        1.96349         32.4523         4.19079 
        1.96964         32.3948         4.15874 
        1.97578         32.1452         4.12702 
        1.98192         32.0548         4.09569 
        1.98805         31.9818         4.06468 
        1.99419         31.7992         4.03399 
        2.00033         31.6323          4.0036 
        2.00647         31.4793         3.97354 
         2.0126         31.2941         3.94383 
        2.01874          31.285         3.91439 
        2.02488         31.1257         3.88522 
        2.03101         30.9637          3.8564 
        2.03714         30.8372          3.8279 
        2.04328         30.6782         3.79966 
        2.04941         30.5433         3.77172 
        2.05554         30.4018         3.74409 
        2.06167         30.3259          3.7167 
        2.06781          30.117         3.68957 
        2.07396         30.0587         3.66268 
        2.08009         29.9392          3.6361 
        2.08622         29.7318         3.60982 
        2.09237         29.6356         3.58375 
        2.09851         29.4977         3.55793 
        2.10464         29.4013          3.5324 
        2.11077         29.3203         3.50716 
        2.11691         29.1181         3.48211 
        2.12305         28.9921          3.4573 
        2.12918         28.8843          3.4328 
        2.13531         28.7797         3.40853 
        2.14145         28.6523         3.38443 
         2.1476         28.5083         3.36055 
        2.15372         28.3798         3.33701 
        2.15985         28.2816         3.31368 
        2.16599         28.2165          3.2905 
        2.17213         28.1205         3.26758 
        2.17827         27.8767         3.24487 
         2.1844         27.8205          3.2224 
        2.19054         27.7142         3.20014 
        2.19666         27.5787         3.17812 
         2.2028         27.4114         3.15628 
        2.20893         27.3755         3.13464 
        2.21508         27.2803         3.11318 
        2.22122         27.0814         3.09191 
        2.22736         27.0375         3.07089 
        2.23349         26.8889         3.05007 
        2.23962         26.7595         3.02943 
        2.24577         26.6456         3.00896 
         2.2519         26.5652         2.98871 
        2.25802         26.4482         2.96868 
        2.26417         26.3399         2.94877 
        2.27031         26.2205         2.92903 
        2.27644           26.09         2.90953 
        2.28257         26.0244         2.89021 
        2.28872          25.916         2.87103 
        2.29486         25.8223         2.85202 
        2.30099         25.6656         2.83323 
        2.30712         25.5887          2.8146 
        2.31326         25.4979          2.7961 
         2.3194         25.4119         2.77778 
        2.32553         25.2898         2.75966 
        2.33166         25.1768          2.7417 
         2.3378         25.0158         2.72389 
        2.34394         24.9462         2.70622 
        2.35007         24.8661         2.68873 
        2.35619         24.7379         2.67143 
        2.36233         24.6587         2.65423 
        2.36848          24.563         2.63715 
        2.37462         24.4361         2.62025 
        2.38075         24.3889         2.60352 
        2.38689         24.2731         2.58692 
        2.39303         24.1569         2.57047 
        2.39916         24.0281         2.55418 
        2.40529         23.9501         2.53803 
        2.41143         23.8858         2.52201 
        2.41757         23.7872         2.50612 
         2.4237         23.6844          2.4904 
        2.42983         23.5126         2.47481 
        2.43598         23.4662         2.45932 
        2.44211          23.356         2.44398 
        2.44823         23.2839         2.42881 
        2.45437         23.1675         2.41373 
        2.46052         23.0237         2.39876 
        2.46665         23.0053         2.38394 
        2.47279         22.9225         2.36926 
        2.47892          22.816         2.35469 
        2.48507         22.6832         2.34023 
         2.4912         22.6555         2.32592 
