# k  (h/Mpc)    P(k)  (Mpc/h)^3    P_linear(k)  (Mpc/h)^3
     0.00783031         15505.7         15578.8 
       0.013688         18255.6           17905 
       0.019231         17229.8         16992.8 
      0.0249154         14595.3         14706.8 
      0.0312784         11896.1         11854.5 
      0.0375637         9647.77         9496.43 
      0.0433917         7949.71         7941.14 
      0.0492413         7010.89         6934.65 
      0.0555754         6205.26         6276.86 
      0.0619321         5946.75         5832.84 
       0.067871          5390.6         5436.94 
      0.0738098         4931.53         4966.51 
      0.0800417         4327.79         4385.86 
      0.0862327         3796.81         3782.57 
      0.0921407         3349.81         3258.33 
      0.0982031         2902.66         2828.15 
       0.104506         2671.94         2515.82 
       0.110769          2461.8         2324.26 
       0.116806         2329.49          2213.7 
       0.122832         2237.71         2132.09 
       0.129052         2088.64         2038.52 
       0.135211          1970.9         1913.99 
       0.141259         1858.78         1760.31 
       0.147318         1715.63          1591.1 
       0.153489          1543.3         1425.73 
       0.159709         1432.91         1285.34 
       0.165845          1355.1         1181.59 
       0.171974         1276.95            1111 
       0.178125         1218.96         1064.41 
       0.184229         1170.56          1029.9 
        0.19034         1104.03         995.283 
       0.196428         1079.47         952.892 
       0.202534         1036.94         900.244 
       0.208729         977.067         839.569 
       0.214876         923.134         778.277 
       0.220989         882.045         722.418 
       0.227147         839.232          675.44 
        0.23329         801.432         639.083 
       0.239377         783.292         611.974 
       0.245482         730.985         590.554 
       0.251667         726.219         571.089 
       0.257832         697.795          550.88 
       0.263955         673.516         528.378 
       0.270079         645.663         503.504 
        0.27624         635.872         477.349 
       0.282372         609.458         451.966 
        0.28843         594.652         429.098 
       0.294538          563.33         409.127 
       0.300721         558.847         392.213 
        0.30691         534.134         377.935 
       0.313033         523.133         365.468 
       0.319153         507.433         353.601 
       0.325316         492.745         341.532 
        0.33145         477.885         329.028 
       0.337538         469.589         316.279 
       0.343633         455.025         303.522 
       0.349808         438.205         291.125 
       0.355968         433.771         279.671 
       0.362074         426.724         269.419 
       0.368217         414.129         260.194 
       0.374374         396.178         251.811 
       0.380519         393.991         244.038 
       0.386598         383.286         236.634 
       0.392688         380.179         229.311 
        0.39888         369.183         221.902 
       0.405048         361.219         214.568 
       0.411186          354.92         207.444 
       0.417313         347.678          200.63 
       0.423458          340.15         194.176 
       0.429607         334.601         188.155 
       0.435692         325.853         182.607 
       0.441815         322.549         177.355 
       0.447964          315.54         172.343 
       0.454126         307.847         167.506 
       0.460267         302.078         162.804 
       0.466387         298.105         158.217 
        0.47254         292.521         153.722 
       0.478662         291.361         149.385 
       0.484765         280.655          145.22 
       0.490885         277.802         141.226 
       0.497035         272.625         137.412 
       0.503198         268.407         133.772 
       0.509342         266.291         130.302 
       0.515458         262.539         126.984 
       0.521598         256.032         123.768 
       0.527764         252.771         120.637 
       0.533884         250.075         117.613 
           0.54         246.271         114.677 
       0.546137          244.96         111.824 
       0.552299         239.789         109.058 
       0.558452         238.269         106.399 
       0.564573         234.712          103.85 
       0.570708         229.717         101.388 
       0.576825         226.104         99.0217 
       0.582926         223.563         96.7434 
       0.589034         221.401         94.5352 
       0.595184         219.308         92.3782 
       0.601379          215.73         90.2673 
       0.607522         212.622         88.2345 
       0.613639         211.121         86.2708 
       0.619772         206.839         84.3628 
       0.625918         205.619         82.5119 
       0.632068         202.275         80.7186 
       0.638161         201.224         78.9967 
         0.6443         198.001         77.3143 
       0.650464         195.998         75.6755 
       0.656582         193.591         74.0961 
       0.662703         193.121         72.5615 
       0.668861         189.648         71.0617 
       0.675024         187.086         69.6031 
       0.681124         185.953            68.2 
       0.687237         183.655         66.8326 
       0.693381         180.708         65.4964 
       0.699536         179.244         64.1947 
       0.705665         177.714         62.9343 
       0.711789         175.876         61.7094 
       0.717957         175.348         60.5094 
        0.72409         172.986         59.3486 
       0.730186         170.841         58.2256 
       0.736317         168.824          57.126 
       0.742472         167.734          56.051 
       0.748622         166.277         55.0049 
        0.75476         164.702         53.9878 
       0.760888          162.81          52.998 
       0.767043         162.369         52.0293 
       0.773185         160.782         51.0869 
       0.779291         157.672         50.1734 
       0.785407         157.265         49.2811 
       0.791564         155.914          48.405 
       0.797719          153.27          47.551 
       0.803834         152.513         46.7231 
       0.809972         151.763         45.9122 
       0.816124         150.919         45.1189 
       0.822261         149.575         44.3466 
       0.828378         147.981          43.595 
       0.834502          147.39         42.8602 
       0.840667         145.363         42.1377 
       0.846816         144.033         41.4341 
       0.852925         143.394          40.751 
       0.859047         142.016         40.0821 
       0.865192         140.405          39.426 
       0.871341          139.34         38.7843 
       0.877463         138.177         38.1599 
       0.883569         137.901         37.5508 
       0.889708         136.298          36.952 
       0.895864         134.867         36.3648 
       0.902008         134.032         35.7917 
       0.908149         133.636         35.2313 
       0.914301         131.921          34.682 
       0.920448         131.004          34.145 
       0.926574          130.08         33.6214 
       0.932687         130.021         33.1099 
       0.938823         128.146         32.6073 
       0.944975          127.16          32.114 
       0.951105         126.426         31.6328 
       0.957225         125.457         31.1623 
       0.963368         123.688         30.6998 
       0.969511         123.502         30.2468 
       0.975621         122.514         29.8054 
       0.981748         122.248         29.3717 
       0.987916         120.931          28.944 
        0.99406         119.928         28.5265 
        1.00019           119.8         28.1181 
        1.00632         118.405         27.7181 
        1.01246          117.81         27.3254 
        1.01859         117.279         26.9409 
        1.02471         115.777         26.5644 
        1.03085         114.823         26.1938 
        1.03698         114.516         25.8311 
        1.04314         113.262         25.4738 
        1.04929          112.85         25.1241 
        1.05541         112.119         24.7825 
        1.06154          111.47         24.4463 
        1.06769         111.171          24.116 
        1.07382         110.067         23.7928 
        1.07993         109.359         23.4764 
        1.08607         108.585         23.1644 
        1.09222         108.279         22.8578 
        1.09836         107.341         22.5571 
        1.10449         106.293         22.2622 
        1.11063         105.677         21.9722 
        1.11677         105.129         21.6876 
         1.1229         104.401         21.4085 
        1.12903         103.937         21.1341 
        1.13518         103.573         20.8643 
        1.14131         102.532         20.5994 
        1.14745         102.157         20.3392 
        1.15359         101.411         20.0835 
        1.15973         100.958         19.8321 
        1.16584         99.9352         19.5862 
        1.17197         99.4281         19.3441 
        1.17811         98.9558         19.1053 
        1.18424         98.4851         18.8713 
        1.19038         98.2341         18.6405 
        1.19652         97.4568         18.4137 
        1.20267         96.6107         18.1907 
        1.20881         96.1416         17.9715 
        1.21495         95.3683         17.7562 
        1.22108         95.0464         17.5445 
         1.2272         94.1534         17.3368 
        1.23334         93.7851          17.132 
        1.23949         93.3015           16.93 
        1.24562         92.6295         16.7319 
        1.25174         92.2283         16.5372 
        1.25789          91.708          16.345 
        1.26402         90.7035         16.1563 
        1.27014         90.4954          15.971 
        1.27628         90.1398         15.7881 
        1.28244         89.6952         15.6077 
        1.28858         89.3105         15.4304 
        1.29471         88.4768         15.2562 
        1.30084         88.3364         15.0849 
        1.30697         87.4659          14.916 
        1.31312         87.0753         14.7495 
        1.31925         86.4831          14.586 
        1.32537         86.1115         14.4252 
        1.33151         85.4051         14.2662 
        1.33765         85.0707         14.1097 
        1.34378         84.7033         13.9559 
        1.34992         84.3124         13.8042 
        1.35606         83.8154         13.6545 
         1.3622         83.1138         13.5073 
        1.36833         82.8449         13.3626 
        1.37445         82.3823         13.2201 
        1.38059         81.6963         13.0793 
        1.38675         81.2403         12.9402 
        1.39288          81.126         12.8036 
        1.39901         80.6063         12.6691 
        1.40515         80.0418         12.5363 
         1.4113         79.6754         12.4054 
        1.41742         79.3138         12.2768 
        1.42355         78.8196         12.1499 
         1.4297         78.5942         12.0243 
        1.43585         77.9802         11.9007 
        1.44198          77.506         11.7792 
        1.44809         77.2098         11.6596 
        1.45423         76.9202         11.5413 
        1.46036         76.4977         11.4248 
        1.46649         75.9123         11.3099 
        1.47263         75.4548         11.1965 
        1.47877         75.2704         11.0847 
        1.48491         74.6688         10.9743 
        1.49104         74.5022         10.8656 
        1.49718          74.069         10.7583 
        1.50333         73.7283         10.6523 
        1.50947         73.2832         10.5479 
         1.5156         72.9685         10.4451 
        1.52172         72.5285         10.3436 
        1.52787         72.1937         10.2434 
          1.534         71.6945         10.1445 
        1.54013         71.3162         10.0471 
        1.54627         71.1261         9.95078 
        1.55241         70.5927         9.85571 
        1.55855         70.3195         9.76202 
        1.56467         70.1149         9.66981 
         1.5708         69.6009         9.57853 
        1.57695         69.5197          9.4883 
        1.58308         68.9136         9.39944 
        1.58922         68.6527         9.31165 
        1.59535         68.4215         9.22502 
         1.6015         67.8458         9.13938 
        1.60764         67.6359         9.05487 
        1.61376         67.3195         8.97166 
        1.61989         66.9909         8.88944 
        1.62604         66.6668         8.80806 
        1.63218         66.4492         8.72775 
        1.63831         65.6883         8.64863 
        1.64444         65.5234         8.57047 
        1.65059         65.3146         8.49308 
        1.65673         64.8109         8.41674 
        1.66285         64.5677         8.34155 
        1.66898         64.3676         8.26726 
        1.67512         63.8157         8.19372 
        1.68127         63.7186         8.12102 
         1.6874         63.2824         8.04936 
        1.69353         62.9908         7.97861 
        1.69967         62.6811         7.90854 
        1.70581         62.4645         7.83934 
        1.71193          62.187         7.77124 
        1.71806         61.7854          7.7038 
        1.72421         61.5258         7.63704 
        1.73035         61.2203         7.57114 
        1.73649         60.9744         7.50603 
        1.74262         60.5804         7.44174 
        1.74876         60.3608         7.37817 
        1.75489          59.982         7.31547 
        1.76101         59.8112         7.25352 
        1.76715          59.327          7.1922 
        1.77329          59.138         7.13152 
        1.77943         58.8081         7.07151 
        1.78557         58.6251         7.01228 
        1.79171         58.2202         6.95372 
        1.79785         57.8804         6.89582 
        1.80399         57.7647         6.83859 
        1.81012          57.511         6.78209 
        1.81625         57.1747         6.72626 
        1.82239         56.8974         6.67097 
        1.82853         56.6606         6.61633 
        1.83466         56.4105         6.56235 
        1.84078         56.0383         6.50904 
        1.84692         55.8018         6.45623 
        1.85306         55.5132         6.40395 
         1.8592         55.3156         6.35232 
        1.86533         55.0087          6.3013 
        1.87147         54.6147         6.25078 
        1.87761         54.5358         6.20079 
        1.88375         54.2573         6.15141 
        1.88988          53.893         6.10262 
        1.89601         53.7211         6.05433 
        1.90215         53.3495         6.00653 
        1.90829         53.1458         5.95927 
        1.91442         52.9759         5.91251 
        1.92056         52.6744          5.8663 
         1.9267          52.462         5.82053 
        1.93284         52.0943         5.77523 
        1.93897         51.9438         5.73049 
        1.94509         51.7608         5.68632 
        1.95123         51.4412         5.64251 
        1.95737         51.1642         5.59913 
        1.96349          50.895         5.55631 
        1.96964         50.6799         5.51382 
        1.97578         50.4302         5.47176 
        1.98192         50.3579         5.43022 
        1.98805          49.995         5.38911 
        1.99419         49.7356         5.34842 
        2.00033         49.5752         5.30813 
        2.00647         49.3393         5.26827 
         2.0126         48.9721         5.22889 
        2.01874         48.7812         5.18985 
        2.02488         48.6428         5.15118 
        2.03101         48.3942         5.11297 
        2.03714         48.1271         5.07518 
        2.04328         47.9305         5.03774 
        2.04941         47.6898          5.0007 
        2.05554           47.52         4.96406 
        2.06167           47.33         4.92774 
        2.06781         46.9921         4.89178 
        2.07396         46.8246         4.85613 
        2.08009         46.6782         4.82089 
        2.08622         46.3056         4.78604 
        2.09237         46.1865         4.75147 
        2.09851         46.0524         4.71724 
        2.10464         45.7667          4.6834 
        2.11077         45.5015         4.64993 
        2.11691         45.2821         4.61672 
        2.12305         45.1549         4.58383 
        2.12918         44.9915         4.55133 
        2.13531         44.6423         4.51916 
        2.14145         44.4529         4.48722 
         2.1476         44.2275         4.45555 
        2.15372         44.0348         4.42434 
        2.15985         43.9249         4.39341 
        2.16599         43.6832         4.36268 
        2.17213         43.5281         4.33228 
        2.17827         43.2649         4.30218 
         2.1844         43.0247         4.27239 
        2.19054         42.8343         4.24287 
        2.19666          42.614         4.21367 
         2.2028         42.5478         4.18472 
        2.20893          42.278         4.15603 
        2.21508         42.1421         4.12758 
        2.22122         41.9598         4.09938 
        2.22736         41.7196         4.07151 
        2.23349          41.554          4.0439 
        2.23962         41.2894         4.01653 
        2.24577          41.072          3.9894 
         2.2519         40.9071         3.96255 
        2.25802         40.8242         3.93599 
        2.26417         40.5637          3.9096 
        2.27031         40.4029         3.88343 
        2.27644         40.2208         3.85757 
        2.28257         39.9835         3.83196 
        2.28872         39.7711         3.80652 
        2.29486         39.6726         3.78133 
        2.30099         39.5393         3.75641 
        2.30712         39.3203          3.7317 
        2.31326         39.1049         3.70718 
         2.3194          38.881         3.68289 
        2.32553         38.7149         3.65886 
        2.33166         38.5181         3.63506 
         2.3378         38.3922         3.61143 
        2.34394         38.2487         3.58801 
        2.35007         38.0548         3.56483 
        2.35619         37.8491         3.54188 
        2.36233         37.6635         3.51908 
        2.36848         37.5874         3.49643 
        2.37462         37.3302         3.47403 
        2.38075         37.2623         3.45185 
        2.38689         37.0819         3.42984 
        2.39303         36.8403         3.40803 
        2.39916         36.6685         3.38643 
        2.40529         36.5632         3.36502 
        2.41143         36.4034         3.34378 
        2.41757         36.2168         3.32272 
         2.4237         36.0641         3.30187 
        2.42983         35.9222          3.2812 
        2.43598           35.76         3.26066 
        2.44211         35.5956         3.24033 
        2.44823         35.4558         3.22021 
        2.45437         35.2395         3.20021 
        2.46052         35.0886         3.18037 
        2.46665         34.9413         3.16073 
        2.47279         34.7338         3.14126 
        2.47892          34.663         3.12194 
        2.48507         34.4992         3.10277 
         2.4912         34.3764         3.08379 
