# k  (h/Mpc)    P(k)  (Mpc/h)^3    P_linear(k)  (Mpc/h)^3
     0.00783031         20488.6         20539.9 
       0.013688         24285.3         23743.4 
       0.019231         22898.4         22563.6 
      0.0249154         19330.8         19538.5 
      0.0312784         15774.1         15753.3 
      0.0375637         12822.8         12621.4 
      0.0433917         10540.5         10555.1 
      0.0492413         9312.65          9217.7 
      0.0555754         8210.42         8343.61 
      0.0619321         7900.88         7753.56 
       0.067871         7132.23          7227.4 
      0.0738098         6529.23         6602.12 
      0.0800417         5726.42         5830.29 
      0.0862327         5038.85         5028.35 
      0.0921407         4471.07         4331.47 
      0.0982031         3881.92         3759.62 
       0.104506         3589.83         3344.43 
       0.110769            3308         3089.78 
       0.116806         3136.87         2942.81 
       0.122832         3003.31         2834.34 
       0.129052         2794.41         2709.95 
       0.135211         2637.86          2544.4 
       0.141259         2499.11         2340.11 
       0.147318         2317.49         2115.17 
       0.153489         2090.05         1895.33 
       0.159709         1949.16          1708.7 
       0.165845         1853.67         1570.78 
       0.171974         1753.66         1476.93 
       0.178125         1670.27            1415 
       0.184229         1597.41         1369.13 
        0.19034         1514.77         1323.11 
       0.196428         1478.11         1266.75 
       0.202534         1417.78         1196.76 
       0.208729         1341.92          1116.1 
       0.214876         1278.64         1034.62 
       0.220989         1224.57         960.367 
       0.227147         1171.83         897.915 
        0.23329         1120.38         849.583 
       0.239377         1098.09         813.545 
       0.245482         1027.62          785.07 
       0.251667         1021.87         759.194 
       0.257832         979.496         732.328 
       0.263955         945.813         702.414 
       0.270079         909.024         669.347 
        0.27624          896.46         634.578 
       0.282372          859.55         600.834 
        0.28843         847.205         570.434 
       0.294538         802.611         543.885 
       0.300721           796.4           521.4 
        0.30691         764.808         502.419 
       0.313033          748.76         485.845 
       0.319153         730.958         470.069 
       0.325316         708.916         454.025 
        0.33145         690.383         437.403 
       0.337538          676.64         420.454 
       0.343633          659.96         403.496 
       0.349808         635.242         387.016 
       0.355968         630.216         371.789 
       0.362074         622.942          358.16 
       0.368217         603.097         345.896 
       0.374374         578.658         334.753 
       0.380519         577.841         324.419 
       0.386598          560.61         314.576 
       0.392688         557.765         304.841 
        0.39888         540.948         294.991 
       0.405048         532.696         285.242 
       0.411186         524.627         275.772 
       0.417313         513.765         266.714 
       0.423458           502.4         258.134 
       0.429607         496.703          250.13 
       0.435692         484.289         242.754 
       0.441815         479.007         235.772 
       0.447964         469.283         229.109 
       0.454126         463.081         222.678 
       0.460267         451.981         216.428 
       0.466387         446.006         210.331 
        0.47254         441.815         204.355 
       0.478662         437.503          198.59 
       0.484765         422.182         193.052 
       0.490885         418.821         187.743 
       0.497035         410.533         182.672 
       0.503198         406.871         177.834 
       0.509342         403.955         173.221 
       0.515458         399.665         168.809 
       0.521598         388.436         164.534 
       0.527764         383.713         160.372 
       0.533884         380.323         156.353 
           0.54         375.367          152.45 
       0.546137         373.086         148.656 
       0.552299         366.795          144.98 
       0.558452         364.179         141.444 
       0.564573         359.569         138.055 
       0.570708         353.485         134.782 
       0.576825         346.072         131.637 
       0.582926         344.705         128.609 
       0.589034         341.129         125.673 
       0.595184         338.903         122.806 
       0.601379         332.131         119.999 
       0.607522         328.324         117.297 
       0.613639         326.546         114.686 
       0.619772         321.084          112.15 
       0.625918         319.132          109.69 
       0.632068         313.794         107.306 
       0.638161         312.273         105.017 
         0.6443         307.731          102.78 
       0.650464         305.227         100.601 
       0.656582         301.212         98.5018 
       0.662703         301.232         96.4617 
       0.668861         296.604         94.4679 
       0.675024          293.42         92.5288 
       0.681124         290.691         90.6635 
       0.687237         288.152         88.8458 
       0.693381         283.711         87.0695 
       0.699536         280.526          85.339 
       0.705665         278.595         83.6635 
       0.711789         277.579         82.0352 
       0.717957         275.303         80.4399 
        0.72409         273.102         78.8967 
       0.730186         269.405         77.4039 
       0.736317         267.025         75.9421 
       0.742472          264.84          74.513 
       0.748622         262.888         73.1223 
        0.75476         259.613         71.7702 
       0.760888         257.029         70.4544 
       0.767043         256.642         69.1666 
       0.773185         254.239         67.9138 
       0.779291         250.374         66.6994 
       0.785407          249.81         65.5132 
       0.791564         247.123         64.3486 
       0.797719         244.674         63.2132 
       0.803834         242.041         62.1126 
       0.809972         241.551         61.0346 
       0.816124         240.458           59.98 
       0.822261         238.458         58.9535 
       0.828378         236.002         57.9542 
       0.834502         233.695         56.9774 
       0.840667         232.168          56.017 
       0.846816          230.94         55.0816 
       0.852925         229.514         54.1735 
       0.859047         227.496         53.2842 
       0.865192         224.611         52.4121 
       0.871341          222.87          51.559 
       0.877463         222.744         50.7289 
       0.883569         220.927         49.9192 
       0.889708         218.293         49.1232 
       0.895864         217.694         48.3426 
       0.902008         215.548         47.5806 
       0.908149         213.995         46.8357 
       0.914301         211.792         46.1055 
       0.920448         210.715         45.3917 
       0.926574         208.588         44.6956 
       0.932687         208.628         44.0156 
       0.938823         206.063         43.3474 
       0.944975          205.43         42.6917 
       0.951105         203.907         42.0519 
       0.957225         202.905         41.4264 
       0.963368         199.882         40.8116 
       0.969511         199.229         40.2094 
       0.975621         197.568         39.6226 
       0.981748         196.869         39.0461 
       0.987916         195.593         38.4776 
        0.99406         193.909         37.9225 
        1.00019         192.861         37.3796 
        1.00632          191.78         36.8479 
        1.01246         190.158         36.3258 
        1.01859          190.24         35.8147 
        1.02471         187.302         35.3142 
        1.03085         186.348         34.8215 
        1.03698         185.198         34.3393 
        1.04314         183.684         33.8643 
        1.04929         182.922         33.3995 
        1.05541         182.452         32.9453 
        1.06154         180.292         32.4984 
        1.06769         179.947         32.0593 
        1.07382         178.411         31.6297 
        1.07993         177.329          31.209 
        1.08607         177.023         30.7942 
        1.09222         175.339         30.3866 
        1.09836         173.976         29.9869 
        1.10449         172.543         29.5948 
        1.11063         171.444         29.2094 
        1.11677         170.745          28.831 
         1.1229          169.19           28.46 
        1.12903         168.722         28.0952 
        1.13518         167.718         27.7365 
        1.14131         166.327         27.3843 
        1.14745         166.279         27.0385 
        1.15359          164.56         26.6986 
        1.15973         163.261         26.3644 
        1.16584         162.617         26.0374 
        1.17197         162.383         25.7156 
        1.17811         160.275         25.3982 
        1.18424         159.862         25.0871 
        1.19038         159.401         24.7803 
        1.19652         157.882         24.4788 
        1.20267         157.459         24.1824 
        1.20881         156.272         23.8909 
        1.21495         155.173         23.6048 
        1.22108         154.297         23.3233 
         1.2272         153.241         23.0472 
        1.23334         153.113         22.7749 
        1.23949         151.385         22.5064 
        1.24562         150.716          22.243 
        1.25174         150.169         21.9842 
        1.25789         149.277         21.7287 
        1.26402          147.63         21.4778 
        1.27014         146.862         21.2315 
        1.27628          146.26         20.9884 
        1.28244         146.084         20.7486 
        1.28858         144.635         20.5128 
        1.29471         143.818         20.2813 
        1.30084         143.229         20.0536 
        1.30697         141.797          19.829 
        1.31312         141.117         19.6076 
        1.31925         140.276         19.3903 
        1.32537         140.128         19.1765 
        1.33151         138.951         18.9651 
        1.33765         137.934         18.7571 
        1.34378         137.452         18.5526 
        1.34992         136.848          18.351 
        1.35606         136.489          18.152 
         1.3622         135.009         17.9563 
        1.36833         134.276          17.764 
        1.37445         133.822         17.5745 
        1.38059         132.693         17.3873 
        1.38675          132.26         17.2024 
        1.39288          131.47         17.0209 
        1.39901         131.135          16.842 
        1.40515         129.819         16.6654 
         1.4113         129.552         16.4914 
        1.41742         128.328         16.3205 
        1.42355         127.989         16.1518 
         1.4297         127.069         15.9849 
        1.43585         126.372         15.8205 
        1.44198         126.051          15.659 
        1.44809         125.349            15.5 
        1.45423         124.902         15.3427 
        1.46036         123.728         15.1879 
        1.46649         123.085         15.0352 
        1.47263         122.352         14.8844 
        1.47877         121.489         14.7358 
        1.48491         120.679          14.589 
        1.49104         120.572         14.4445 
        1.49718         119.538         14.3018 
        1.50333         118.797         14.1609 
        1.50947         118.287         14.0221 
         1.5156         117.804         13.8855 
        1.52172         117.218         13.7506 
        1.52787         116.322         13.6173 
          1.534          115.91         13.4859 
        1.54013         115.415         13.3564 
        1.54627         114.802         13.2284 
        1.55241         114.014          13.102 
        1.55855         113.349         12.9774 
        1.56467         112.609         12.8548 
         1.5708         111.865         12.7335 
        1.57695         111.698         12.6135 
        1.58308         111.184         12.4954 
        1.58922         110.578         12.3787 
        1.59535         109.871         12.2635 
         1.6015         109.633         12.1497 
        1.60764         108.971         12.0373 
        1.61376         108.248         11.9267 
        1.61989         107.594         11.8174 
        1.62604         106.875         11.7092 
        1.63218         106.835         11.6025 
        1.63831         106.046         11.4973 
        1.64444         105.412         11.3934 
        1.65059         104.696         11.2905 
        1.65673         104.307          11.189 
        1.66285         103.945         11.0891 
        1.66898         103.267         10.9903 
        1.67512         102.474         10.8926 
        1.68127         102.194         10.7959 
         1.6874         101.645         10.7006 
        1.69353         101.319         10.6066 
        1.69967         100.698         10.5134 
        1.70581         99.9423         10.4214 
        1.71193         99.4344         10.3309 
        1.71806         99.2672         10.2413 
        1.72421         98.6378         10.1525 
        1.73035         98.2786         10.0649 
        1.73649         97.6656         9.97835 
        1.74262         97.1167         9.89289 
        1.74876         96.7193         9.80837 
        1.75489         96.0371         9.72502 
        1.76101         95.4805         9.64266 
        1.76715         95.1204         9.56115 
        1.77329         94.6284         9.48048 
        1.77943         94.1636         9.40071 
        1.78557         93.8624         9.32197 
        1.79171         92.9537         9.24412 
        1.79785         92.5443         9.16715 
        1.80399         92.0973         9.09107 
        1.81012           91.66         9.01596 
        1.81625         91.3464         8.94174 
        1.82239         90.7715         8.86824 
        1.82853         90.2297          8.7956 
        1.83466         89.8606         8.72384 
        1.84078         89.4455         8.65297 
        1.84692         88.7629         8.58277 
        1.85306          88.546         8.51326 
         1.8592         88.0579         8.44464 
        1.86533         87.5487         8.37681 
        1.87147         86.9797         8.30965 
        1.87761         86.5263         8.24319 
        1.88375         86.2729         8.17755 
        1.88988          85.702         8.11269 
        1.89601         85.2049         8.04849 
        1.90215         84.7273         7.98495 
        1.90829         84.4972         7.92212 
        1.91442         84.1006         7.85996 
        1.92056         83.4642         7.79852 
         1.9267         83.2035         7.73768 
        1.93284         82.8045         7.67745 
        1.93897         82.2263         7.61798 
        1.94509         82.0246         7.55927 
        1.95123         81.5032         7.50102 
        1.95737         81.0788         7.44335 
        1.96349         80.6783         7.38644 
        1.96964         80.0912         7.32995 
        1.97578         79.7558         7.27403 
        1.98192         79.6369         7.21881 
        1.98805         79.1335         7.16416 
        1.99419         78.6994         7.11007 
        2.00033         78.3503         7.05651 
        2.00647         77.9692         7.00353 
         2.0126         77.5225         6.95117 
        2.01874         77.0628         6.89927 
        2.02488         76.8776         6.84786 
        2.03101         76.3305         6.79706 
        2.03714         75.8311         6.74683 
        2.04328         75.5673         6.69705 
        2.04941         75.1815         6.64782 
        2.05554         74.8195         6.59911 
        2.06167         74.4667         6.55083 
        2.06781         73.9559         6.50302 
        2.07396          73.724         6.45562 
        2.08009          73.456         6.40878 
        2.08622         72.9199         6.36246 
        2.09237         72.7236          6.3165 
        2.09851         72.3526         6.27099 
        2.10464         71.9756           6.226 
        2.11077         71.5051         6.18151 
        2.11691         71.2998         6.13736 
        2.12305          70.868         6.09363 
        2.12918         70.5207         6.05044 
        2.13531         70.0703         6.00767 
        2.14145         69.8265          5.9652 
         2.1476         69.4159          5.9231 
        2.15372         69.1315         5.88162 
        2.15985         68.7407          5.8405 
        2.16599         68.4261         5.79965 
        2.17213         68.0297         5.75923 
        2.17827         67.6721         5.71922 
         2.1844         67.4157         5.67961 
        2.19054         67.0841         5.64037 
        2.19666         66.8159         5.60156 
         2.2028         66.5364         5.56307 
        2.20893         66.0924         5.52493 
        2.21508         65.8695         5.48711 
        2.22122         65.4444         5.44963 
        2.22736         65.1918         5.41257 
        2.23349         64.8449         5.37587 
        2.23962         64.5698         5.33949 
        2.24577          64.299         5.30341 
         2.2519         63.9815         5.26772 
        2.25802         63.6452         5.23241 
        2.26417         63.3568         5.19733 
        2.27031         63.0469         5.16254 
        2.27644         62.5948         5.12817 
        2.28257          62.405         5.09411 
        2.28872         62.1565          5.0603 
        2.29486         61.7168         5.02681 
        2.30099         61.2482         4.99368 
        2.30712         61.1659         4.96084 
        2.31326         60.8051         4.92824 
         2.3194         60.5792         4.89595 
        2.32553         60.3288         4.86401 
        2.33166         59.9659         4.83236 
         2.3378         59.6796         4.80096 
        2.34394         59.3275         4.76982 
        2.35007         59.1076           4.739 
        2.35619         58.8073          4.7085 
        2.36233         58.5504         4.67818 
        2.36848         58.2036         4.64808 
        2.37462         58.0063          4.6183 
        2.38075          57.673         4.58881 
        2.38689         57.4221         4.55956 
        2.39303         57.1106         4.53056 
        2.39916         56.7787         4.50185 
        2.40529         56.6838         4.47338 
        2.41143         56.1668         4.44515 
        2.41757         56.0707         4.41714 
         2.4237          55.769         4.38943 
        2.42983         55.5019         4.36196 
        2.43598         55.1973         4.33465 
        2.44211         54.8972         4.30762 
        2.44823         54.7061         4.28088 
        2.45437         54.4522         4.25429 
        2.46052          54.252         4.22791 
        2.46665         53.9731          4.2018 
        2.47279         53.6347         4.17592 
        2.47892         53.4567         4.15023 
        2.48507         53.0948         4.12475 
         2.4912         52.8452         4.09952 
