# k  (h/Mpc)    P(k)  (Mpc/h)^3    P_linear(k)  (Mpc/h)^3
     0.00783031         281.309         283.626 
       0.013688         347.709         350.582 
       0.019231         353.665         354.704 
      0.0249154         326.809         326.883 
      0.0312784         281.733          281.62 
      0.0375637         238.892          238.85 
      0.0433917         208.269         207.725 
      0.0492413         185.805         185.623 
      0.0555754         170.045         169.576 
      0.0619321         157.297         157.781 
       0.067871         147.353         147.401 
      0.0738098         135.801         135.793 
      0.0800417         122.219         122.029 
      0.0862327          107.92         107.839 
      0.0921407         95.3744         95.3033 
      0.0982031         84.9311         84.6474 
       0.104506         76.4333         76.4506 
       0.110769         70.9466         70.9435 
       0.116806         67.5306         67.3501 
       0.122832         64.4541         64.4975 
       0.129052         61.5101         61.4478 
       0.135211          57.948         57.8069 
       0.141259         53.6201         53.5907 
       0.147318         48.9967         49.0605 
       0.153489         44.6905         44.6307 
       0.159709         40.9359         40.7977 
       0.165845         37.8093         37.8597 
       0.171974         35.9144         35.7406 
       0.178125         34.3515         34.2235 
       0.184229         33.0485         33.0212 
        0.19034         31.9713         31.8286 
       0.196428         30.5531         30.4556 
       0.202534         28.7886         28.8371 
       0.208729         27.1163         27.0262 
       0.214876         25.4033         25.2184 
       0.220989         23.6104         23.5711 
       0.227147          22.375         22.1728 
        0.23329         21.2801         21.0698 
       0.239377         20.4394         20.2239 
       0.245482         19.7255          19.535 
       0.251667         19.0078         18.8947 
       0.257832         18.4255         18.2284 
       0.263955         17.6242         17.4958 
       0.270079         16.8245         16.6943 
        0.27624         15.9468         15.8598 
       0.282372         15.1627         15.0555 
        0.28843         14.5292         14.3337 
       0.294538         13.8858          13.706 
       0.300721         13.2984          13.173 
        0.30691         12.9102         12.7224 
       0.313033         12.4866         12.3237 
       0.319153         12.1784           11.94 
       0.325316         11.6675         11.5429 
        0.33145         11.2532         11.1293 
       0.337538         10.8507         10.7045 
       0.343633         10.4572          10.281 
       0.349808          10.029         9.87097 
       0.355968         9.64331         9.49498 
       0.362074         9.34902         9.16217 
       0.368217         9.03777         8.86402 
       0.374374         8.81097         8.59483 
       0.380519         8.50777         8.34326 
       0.386598         8.24627         8.10084 
       0.392688         7.99051         7.85835 
        0.39888         7.76657         7.60876 
       0.405048         7.52608         7.36079 
       0.411186         7.27789         7.11943 
       0.417313         7.05215          6.8889 
       0.423458         6.81069         6.67285 
       0.429607         6.64595         6.47312 
       0.435692         6.47227         6.28985 
       0.441815         6.27409         6.11744 
       0.447964         6.08498          5.9525 
       0.454126         5.95155         5.79147 
       0.460267         5.81755         5.63336 
       0.466387         5.64764         5.47814 
        0.47254         5.50562         5.32467 
       0.478662         5.34643         5.17607 
       0.484765          5.2077         5.03391 
       0.490885         5.05821          4.8987 
       0.497035         4.91379         4.76994 
       0.503198         4.81095          4.6475 
       0.509342         4.67401         4.53124 
       0.515458          4.5793         4.42002 
       0.521598         4.47191         4.31162 
       0.527764         4.38077         4.20503 
       0.533884          4.2454         4.10157 
           0.54         4.15601         4.00093 
       0.546137         4.04268         3.90304 
       0.552299         3.95639         3.80812 
       0.558452         3.86425         3.71688 
       0.564573          3.7816         3.62971 
       0.570708         3.69663         3.54593 
       0.576825         3.61572         3.46558 
       0.582926         3.52958         3.38808 
       0.589034         3.46643         3.31265 
       0.595184         3.39873         3.23856 
       0.601379         3.31233         3.16588 
       0.607522         3.23874         3.09581 
       0.613639         3.16146         3.02813 
       0.619772         3.10883         2.96242 
       0.625918         3.04243         2.89867 
       0.632068         2.98285         2.83688 
       0.638161            2.92         2.77755 
         0.6443         2.85847         2.71959 
       0.650464         2.80133         2.66314 
       0.656582         2.75695         2.60875 
       0.662703         2.70119         2.55585 
       0.668861         2.63367         2.50409 
       0.675024         2.58726         2.45366 
       0.681124         2.56253         2.40506 
       0.687237         2.50003         2.35764 
       0.693381         2.43976         2.31127 
       0.699536         2.40944         2.26608 
       0.705665         2.36346         2.22233 
       0.711789         2.30963         2.17984 
       0.717957         2.26929         2.13822 
        0.72409         2.22961         2.09796 
       0.730186         2.20067           2.059 
       0.736317         2.15095         2.02082 
       0.742472         2.11984         1.98346 
       0.748622         2.08482         1.94707 
        0.75476         2.03877         1.91165 
       0.760888         2.01259         1.87715 
       0.767043         1.95953         1.84337 
       0.773185         1.93445         1.81049 
       0.779291          1.9135          1.7786 
       0.785407         1.87535         1.74744 
       0.791564         1.84351         1.71684 
       0.797719         1.81179         1.68701 
       0.803834         1.78199         1.65808 
       0.809972         1.75309         1.62973 
       0.816124         1.72453         1.60199 
       0.822261         1.69915         1.57498 
       0.828378         1.66926         1.54868 
       0.834502         1.64281         1.52296 
       0.840667         1.62137         1.49766 
       0.846816         1.59327           1.473 
       0.852925         1.56509         1.44907 
       0.859047         1.54182         1.42561 
       0.865192         1.51948         1.40261 
       0.871341         1.49869         1.38009 
       0.877463         1.47051         1.35818 
       0.883569         1.45029          1.3368 
       0.889708         1.43191         1.31577 
       0.895864         1.41053         1.29515 
       0.902008          1.3853         1.27501 
       0.908149         1.36803         1.25532 
       0.914301         1.35084         1.23601 
       0.920448         1.33179         1.21712 
       0.926574         1.31616          1.1987 
       0.932687         1.29558          1.1807 
       0.938823         1.27131         1.16301 
       0.944975         1.25802         1.14564 
       0.951105         1.23386         1.12869 
       0.957225         1.21907         1.11212 
       0.963368         1.20538         1.09582 
       0.969511         1.19055         1.07985 
       0.975621         1.17043         1.06428 
       0.981748         1.14969         1.04898 
       0.987916         1.13679         1.03389 
        0.99406         1.12495         1.01915 
        1.00019         1.10873         1.00473 
        1.00632         1.09784        0.990607 
        1.01246          1.0817        0.976731 
        1.01859         1.06788        0.963145 
        1.02471         1.04967        0.949835 
        1.03085         1.03597        0.936731 
        1.03698         1.02558        0.923904 
        1.04314         1.01205        0.911263 
        1.04929         1.00184        0.898889 
        1.05541         0.98433        0.886796 
        1.06154         0.97497        0.874897 
        1.06769        0.963825        0.863199 
        1.07382        0.950553        0.851754 
        1.07993        0.938878        0.840544 
        1.08607        0.927984         0.82949 
        1.09222        0.914609        0.818624 
        1.09836        0.905707        0.807967 
        1.10449        0.891699        0.797512 
        1.11063        0.881024        0.787232 
        1.11677         0.87265        0.777138 
         1.1229         0.85875        0.767238 
        1.12903         0.85164        0.757504 
        1.13518        0.839875         0.74793 
        1.14131        0.831466        0.738528 
        1.14745        0.823616        0.729293 
        1.15359        0.812068        0.720215 
        1.15973        0.803719        0.711288 
        1.16584        0.792931        0.702553 
        1.17197        0.783127        0.693952 
        1.17811         0.77398         0.68547 
        1.18424        0.765474        0.677153 
        1.19038        0.755675        0.668952 
        1.19652         0.75029        0.660889 
        1.20267        0.742509         0.65296 
        1.20881        0.730439        0.645163 
        1.21495        0.724228        0.637506 
        1.22108        0.716731        0.629974 
         1.2272        0.706662        0.622582 
        1.23334        0.700138        0.615292 
        1.23949         0.69395        0.608102 
        1.24562        0.685801        0.601047 
        1.25174          0.6786        0.594114 
        1.25789        0.669164        0.587269 
        1.26402        0.663429        0.580545 
        1.27014        0.654254        0.573943 
        1.27628        0.649689        0.567424 
        1.28244        0.642847        0.560994 
        1.28858        0.634487        0.554673 
        1.29471        0.628162        0.548463 
        1.30084        0.622042        0.542354 
        1.30697        0.617552        0.536329 
        1.31312        0.610438        0.530388 
        1.31925        0.603768        0.524555 
        1.32537        0.597909        0.518816 
        1.33151          0.5914        0.513143 
        1.33765        0.585405        0.507558 
        1.34378        0.578398        0.502067 
        1.34992        0.575188        0.496654 
        1.35606        0.567856        0.491309 
         1.3622        0.562712        0.486053 
        1.36833        0.557902        0.480886 
        1.37445        0.552414        0.475797 
        1.38059        0.546677        0.470766 
        1.38675        0.540832        0.465797 
        1.39288        0.534898        0.460918 
        1.39901        0.531006        0.456112 
        1.40515        0.525232        0.451364 
         1.4113        0.522058        0.446686 
        1.41742         0.51608        0.442091 
        1.42355          0.5092        0.437553 
         1.4297        0.506827        0.433064 
        1.43585        0.500584        0.428641 
        1.44198        0.496751        0.424296 
        1.44809        0.491306        0.420019 
        1.45423        0.487516        0.415786 
        1.46036        0.482782        0.411619 
        1.46649        0.478024        0.407507 
        1.47263        0.472732        0.403448 
        1.47877        0.471348        0.399447 
        1.48491        0.463961        0.395493 
        1.49104        0.462479        0.391602 
        1.49718        0.456538        0.387759 
        1.50333        0.453303        0.383963 
        1.50947        0.449659        0.380225 
         1.5156        0.445062        0.376542 
        1.52172        0.441597        0.372908 
        1.52787        0.436387        0.369315 
          1.534        0.433999        0.365774 
        1.54013        0.429904        0.362283 
        1.54627        0.426195        0.358831 
        1.55241        0.422137        0.355423 
        1.55855        0.418574        0.352065 
        1.56467        0.415367        0.348759 
         1.5708         0.41122        0.345487 
        1.57695        0.407591        0.342252 
        1.58308        0.403072        0.339065 
        1.58922        0.401178        0.335917 
        1.59535        0.396939         0.33281 
         1.6015         0.39387        0.329739 
        1.60764        0.390478        0.326707 
        1.61376        0.387194        0.323722 
        1.61989        0.383826        0.320772 
        1.62604        0.380307        0.317852 
        1.63218        0.378199         0.31497 
        1.63831        0.374294        0.312131 
        1.64444         0.37174        0.309325 
        1.65059        0.367945        0.306548 
        1.65673        0.365306        0.303807 
        1.66285        0.362727        0.301108 
        1.66898        0.359504         0.29844 
        1.67512        0.356119          0.2958 
        1.68127        0.353083        0.293189 
         1.6874        0.350977        0.290616 
        1.69353        0.347849        0.288074 
        1.69967        0.345016        0.285558 
        1.70581        0.342849        0.283072 
        1.71193        0.340381        0.280625 
        1.71806        0.337371        0.278203 
        1.72421        0.334457        0.275803 
        1.73035        0.331402        0.273435 
        1.73649        0.330011        0.271096 
        1.74262        0.326292        0.268785 
        1.74876        0.324558          0.2665 
        1.75489        0.322135        0.264246 
        1.76101        0.319219        0.262019 
        1.76715         0.31706        0.259815 
        1.77329        0.314408        0.257633 
        1.77943        0.311878        0.255475 
        1.78557        0.310435        0.253345 
        1.79171        0.307979         0.25124 
        1.79785        0.305043        0.249157 
        1.80399        0.302212        0.247099 
        1.81012        0.300801        0.245067 
        1.81625        0.298955        0.243058 
        1.82239        0.297005        0.241069 
        1.82853        0.293978        0.239103 
        1.83466        0.291792        0.237161 
        1.84078        0.289572        0.235243 
        1.84692        0.287714        0.233343 
        1.85306        0.285827        0.231461 
         1.8592        0.283634        0.229603 
        1.86533        0.281972        0.227767 
        1.87147        0.279227        0.225948 
        1.87761        0.277331        0.224149 
        1.88375        0.275396        0.222371 
        1.88988        0.273101        0.220615 
        1.89601        0.270748        0.218876 
        1.90215        0.269436        0.217155 
        1.90829        0.267111        0.215453 
        1.91442        0.265989        0.213769 
        1.92056        0.264428        0.212105 
         1.9267        0.261974        0.210457 
        1.93284        0.259822        0.208825 
        1.93897        0.258431        0.207214 
        1.94509         0.25685        0.205623 
        1.95123        0.254377        0.204044 
        1.95737        0.252913        0.202482 
        1.96349        0.251189        0.200939 
        1.96964        0.249378        0.199408 
        1.97578        0.247544        0.197893 
        1.98192        0.246428        0.196396 
        1.98805        0.244737        0.194914 
        1.99419        0.243405        0.193448 
        2.00033        0.241387        0.191996 
        2.00647        0.239664        0.190559 
         2.0126        0.238248         0.18914 
        2.01874        0.236707        0.187733 
        2.02488        0.235106        0.186338 
        2.03101        0.233236        0.184961 
        2.03714        0.232641        0.183599 
        2.04328        0.230164        0.182249 
        2.04941        0.229307        0.180913 
        2.05554         0.22774        0.179592 
        2.06167        0.226123        0.178283 
        2.06781        0.223989        0.176986 
        2.07396        0.223254          0.1757 
        2.08009        0.221623        0.174429 
        2.08622         0.22043        0.173172 
        2.09237        0.218946        0.171925 
        2.09851        0.217166        0.170691 
        2.10464        0.216025         0.16947 
        2.11077        0.214367        0.168263 
        2.11691        0.213379        0.167064 
        2.12305         0.21177        0.165878 
        2.12918        0.210376        0.164706 
        2.13531        0.209319        0.163545 
        2.14145        0.207828        0.162392 
         2.1476        0.206711        0.161249 
        2.15372        0.205575        0.160123 
        2.15985        0.203936        0.159007 
        2.16599        0.202696        0.157898 
        2.17213        0.201751        0.156801 
        2.17827        0.200316        0.155714 
         2.1844        0.199329        0.154639 
        2.19054        0.198158        0.153574 
        2.19666        0.196901         0.15252 
         2.2028         0.19516        0.151475 
        2.20893        0.194398        0.150439 
        2.21508        0.193292        0.149412 
        2.22122        0.192276        0.148394 
        2.22736        0.190725        0.147387 
        2.23349         0.18942        0.146391 
        2.23962         0.18848        0.145403 
        2.24577        0.187602        0.144423 
         2.2519         0.18647        0.143453 
        2.25802        0.185251        0.142494 
        2.26417        0.184398        0.141541 
        2.27031        0.183082        0.140596 
        2.27644         0.18266        0.139662 
        2.28257         0.18118        0.138737 
        2.28872        0.180126        0.137818 
        2.29486        0.179135        0.136908 
        2.30099        0.177851        0.136008 
        2.30712        0.177007        0.135116 
        2.31326         0.17578         0.13423 
         2.3194        0.175021        0.133352 
        2.32553        0.174025        0.132484 
        2.33166        0.173005        0.131624 
         2.3378        0.172037         0.13077 
        2.34394        0.171065        0.129924 
        2.35007        0.170115        0.129087 
        2.35619        0.169193        0.128257 
        2.36233        0.168126        0.127433 
        2.36848        0.167285        0.126615 
        2.37462        0.166646        0.125806 
        2.38075        0.165591        0.125004 
        2.38689        0.164707        0.124209 
        2.39303        0.163759         0.12342 
        2.39916        0.162769         0.12264 
        2.40529         0.16191        0.121866 
        2.41143        0.160751        0.121098 
        2.41757        0.160069        0.120337 
         2.4237        0.159269        0.119583 
        2.42983        0.158702        0.118836 
        2.43598        0.157582        0.118093 
        2.44211        0.156233        0.117358 
        2.44823        0.156079        0.116631 
        2.45437        0.155178        0.115908 
        2.46052        0.154261        0.115191 
        2.46665         0.15342        0.114481 
        2.47279        0.152483        0.113777 
        2.47892        0.152053        0.113078 
        2.48507        0.150882        0.112385 
         2.4912        0.150347        0.111699 
