# k  (h/Mpc)    Pcb(k)  (Mpc/h)^3    Pcb_linear(k)  (Mpc/h)^3
     0.00783031          2509.6            2526 
       0.013688         3080.95         3122.71 
       0.019231         3139.84         3159.54 
      0.0249154         2915.86         2911.78 
      0.0312784          2504.7         2508.62 
      0.0375637         2118.62         2127.64 
      0.0433917         1853.68         1850.39 
      0.0492413         1649.93         1653.52 
      0.0555754         1514.73         1510.57 
      0.0619321         1388.79         1405.51 
       0.067871         1307.94         1313.04 
      0.0738098         1207.71         1209.64 
      0.0800417         1089.03         1087.03 
      0.0862327         960.144         960.628 
      0.0921407         849.542         848.959 
      0.0982031         760.087         754.036 
       0.104506         680.636          681.02 
       0.110769          632.89         631.963 
       0.116806         606.228         599.954 
       0.122832          575.44         574.543 
       0.129052         550.163         547.376 
       0.135211          521.15         514.943 
       0.141259         480.808         477.385 
       0.147318         437.953          437.03 
       0.153489          401.83         397.569 
       0.159709         371.495         363.426 
       0.165845         340.371         337.254 
       0.171974         327.898         318.377 
       0.178125         313.841         304.863 
       0.184229         299.207         294.152 
        0.19034          291.19         283.529 
       0.196428         278.994         271.298 
       0.202534         260.536         256.881 
       0.208729          248.87         240.748 
       0.214876         235.076         224.646 
       0.220989         217.011         209.971 
       0.227147         208.805         197.515 
        0.23329         199.542         187.689 
       0.239377         193.044         180.155 
       0.245482         184.985         174.018 
       0.251667         177.709         168.314 
       0.257832         174.484         162.379 
       0.263955         165.279         155.852 
       0.270079         158.209         148.712 
        0.27624         150.214         141.279 
       0.282372         144.063         134.115 
        0.28843         140.647         127.685 
       0.294538         134.045         122.093 
       0.300721         128.151         117.345 
        0.30691          125.66         113.331 
       0.313033         120.862          109.78 
       0.319153         118.748         106.361 
       0.325316         113.746         102.824 
        0.33145         109.873         99.1392 
       0.337538         106.194         95.3561 
       0.343633         102.755         91.5827 
       0.349808         99.0249         87.9304 
       0.355968         95.7842         84.5817 
       0.362074          93.749         81.6164 
       0.368217         91.0411         78.9605 
       0.374374         88.9815         76.5628 
       0.380519         85.2977         74.3214 
       0.386598          83.038         72.1623 
       0.392688         80.5445         70.0019 
        0.39888         78.9714         67.7788 
       0.405048         76.9569         65.5698 
       0.411186         74.9093         63.4199 
       0.417313         72.7226         61.3663 
       0.423458         70.6303         59.4417 
       0.429607         69.3152         57.6625 
       0.435692         68.1098         56.0302 
       0.441815         65.5985          54.494 
       0.447964         63.6044         53.0249 
       0.454126         62.4877         51.5903 
       0.460267         61.8432          50.182 
       0.466387         60.1021         48.7991 
        0.47254         59.2058         47.4322 
       0.478662         57.1946         46.1083 
       0.484765         56.0518         44.8423 
       0.490885         54.4602         43.6375 
       0.497035         53.7084         42.4906 
       0.503198         52.4649         41.3999 
       0.509342         51.0462         40.3642 
       0.515458          50.381         39.3735 
       0.521598         49.1569         38.4079 
       0.527764         48.4859         37.4584 
       0.533884         47.5341         36.5368 
           0.54         46.4829         35.6403 
       0.546137         45.1028         34.7682 
       0.552299         44.3396         33.9227 
       0.558452         43.4094         33.1099 
       0.564573         43.0473         32.3335 
       0.570708         41.8327         31.5871 
       0.576825         41.3271         30.8714 
       0.582926         40.6464          30.181 
       0.589034         39.8272          29.509 
       0.595184         39.2987         28.8491 
       0.601379         38.2351         28.2016 
       0.607522         37.6301         27.5774 
       0.613639         37.0878         26.9746 
       0.619772         36.4107         26.3892 
       0.625918         35.7287         25.8213 
       0.632068         35.4069         25.2709 
       0.638161         34.6632         24.7424 
         0.6443         34.1716         24.2261 
       0.650464         33.3283         23.7233 
       0.656582         33.1216         23.2387 
       0.662703         32.7027         22.7675 
       0.668861         31.8533         22.3064 
       0.675024         31.5033         21.8572 
       0.681124         31.2669         21.4243 
       0.687237         30.6232         21.0018 
       0.693381         30.0503         20.5888 
       0.699536         29.8722         20.1862 
       0.705665         29.3122         19.7965 
       0.711789         28.8115          19.418 
       0.717957         28.2545         19.0473 
        0.72409         27.9856         18.6886 
       0.730186         27.8462         18.3415 
       0.736317         27.2742         18.0014 
       0.742472         26.9462         17.6687 
       0.748622         26.5101         17.3444 
        0.75476          25.881         17.0289 
       0.760888         25.8177         16.7217 
       0.767043         25.3629         16.4207 
       0.773185         25.0939         16.1278 
       0.779291         24.8079         15.8437 
       0.785407         24.4106         15.5662 
       0.791564         24.2765         15.2936 
       0.797719         23.7432         15.0278 
       0.803834          23.634         14.7701 
       0.809972         23.1946         14.5176 
       0.816124         22.9437         14.2705 
       0.822261          22.691         14.0299 
       0.828378         22.4638         13.7956 
       0.834502         22.2282         13.5665 
       0.840667         21.9876         13.3411 
       0.846816         21.5147         13.1215 
       0.852925         21.4545         12.9083 
       0.859047         21.2137         12.6993 
       0.865192         20.9039         12.4944 
       0.871341         20.6455         12.2939 
       0.877463         20.4184         12.0986 
       0.883569         20.3028         11.9082 
       0.889708         19.9806         11.7209 
       0.895864         19.7327         11.5372 
       0.902008         19.5088         11.3578 
       0.908149         19.2711         11.1823 
       0.914301         19.1675         11.0103 
       0.920448         18.8863         10.8421 
       0.926574          18.732          10.678 
       0.932687         18.4908         10.5177 
       0.938823         18.2561         10.3601 
       0.944975         18.1222         10.2054 
       0.951105         17.9319         10.0544 
       0.957225         17.8143         9.90673 
       0.963368         17.5355         9.76154 
       0.969511         17.3741         9.61927 
       0.975621         17.2203         9.48061 
       0.981748         17.0022         9.34433 
       0.987916         16.8917         9.20989 
        0.99406         16.6846         9.07861 
        1.00019         16.5676         8.95016 
        1.00632         16.4289         8.82431 
        1.01246         16.2622         8.70071 
        1.01859         16.0723         8.57969 
        1.02471         15.9101         8.46112 
        1.03085         15.8411         8.34439 
        1.03698         15.6967         8.23012 
        1.04314         15.4963         8.11752 
        1.04929         15.3125          8.0073 
        1.05541         15.2431         7.89957 
        1.06154         15.1151         7.79357 
        1.06769           14.97         7.68937 
        1.07382         14.7706         7.58742 
        1.07993         14.6542         7.48755 
        1.08607         14.5788         7.38908 
        1.09222         14.4035         7.29229 
        1.09836         14.3175         7.19736 
        1.10449         14.1611         7.10423 
        1.11063         14.0933         7.01266 
        1.11677          14.003         6.92273 
         1.1229         13.8587         6.83455 
        1.12903         13.7435         6.74783 
        1.13518         13.5877         6.66255 
        1.14131         13.5111          6.5788 
        1.14745         13.3229         6.49654 
        1.15359         13.2165         6.41567 
        1.15973         13.1182         6.33615 
        1.16584         13.0119         6.25833 
        1.17197         12.8916         6.18172 
        1.17811         12.8027         6.10615 
        1.18424         12.7148         6.03208 
        1.19038         12.6453         5.95901 
        1.19652         12.5157         5.88719 
        1.20267         12.4407         5.81656 
        1.20881         12.2911          5.7471 
        1.21495         12.2144         5.67889 
        1.22108         12.1587          5.6118 
         1.2272         12.0512         5.54596 
        1.23334         11.9857         5.48102 
        1.23949         11.8718         5.41696 
        1.24562         11.7665         5.35411 
        1.25174         11.7118         5.29236 
        1.25789         11.5861         5.23139 
        1.26402          11.539         5.17149 
        1.27014         11.4798         5.11268 
        1.27628         11.3297         5.05461 
        1.28244         11.3203         4.99733 
        1.28858         11.2031         4.94102 
        1.29471         11.0658          4.8857 
        1.30084         10.9998         4.83128 
        1.30697         10.9852         4.77762 
        1.31312         10.8692         4.72469 
        1.31925         10.8106         4.67273 
        1.32537         10.7271         4.62161 
        1.33151          10.654         4.57107 
        1.33765         10.5788         4.52132 
        1.34378         10.5522         4.47241 
        1.34992         10.4443         4.42419 
        1.35606         10.3502         4.37658 
         1.3622         10.2761         4.32975 
        1.36833         10.2443         4.28373 
        1.37445         10.1775         4.23839 
        1.38059          10.104         4.19358 
        1.38675         10.0405         4.14931 
        1.39288         9.94361         4.10585 
        1.39901          9.8898         4.06304 
        1.40515         9.82359         4.02075 
         1.4113         9.75321         3.97907 
        1.41742         9.71801         3.93814 
        1.42355         9.62141         3.89771 
         1.4297         9.57871         3.85773 
        1.43585          9.5286         3.81833 
        1.44198         9.47717         3.77962 
        1.44809         9.40612         3.74153 
        1.45423         9.33481         3.70382 
        1.46036         9.28542         3.66669 
        1.46649         9.22512         3.63007 
        1.47263         9.18199         3.59391 
        1.47877         9.11706         3.55827 
        1.48491         9.07559         3.52305 
        1.49104         8.99902         3.48838 
        1.49718         8.96783         3.45415 
        1.50333         8.90834         3.42033 
        1.50947          8.8467         3.38704 
         1.5156         8.81663         3.35423 
        1.52172         8.74937         3.32186 
        1.52787          8.7127         3.28985 
          1.534         8.65428         3.25831 
        1.54013         8.61561         3.22721 
        1.54627         8.55289         3.19646 
        1.55241         8.48282         3.16611 
        1.55855         8.46949         3.13619 
        1.56467         8.41921         3.10674 
         1.5708          8.3699         3.07759 
        1.57695         8.30913         3.04877 
        1.58308         8.25236         3.02039 
        1.58922         8.22739         2.99235 
        1.59535         8.17971         2.96467 
         1.6015         8.10152         2.93731 
        1.60764         8.07339          2.9103 
        1.61376         8.04767         2.88371 
        1.61989         7.97674         2.85743 
        1.62604         7.95884         2.83142 
        1.63218         7.91923         2.80575 
        1.63831         7.86256         2.78046 
        1.64444         7.80184         2.75547 
        1.65059         7.76426         2.73072 
        1.65673         7.74672         2.70631 
        1.66285         7.69686         2.68226 
        1.66898         7.66608          2.6585 
        1.67512         7.62038         2.63498 
        1.68127         7.55568         2.61172 
         1.6874         7.53983          2.5888 
        1.69353         7.47993         2.56616 
        1.69967         7.45929         2.54374 
        1.70581         7.40842          2.5216 
        1.71193           7.387         2.49981 
        1.71806         7.34133         2.47822 
        1.72421         7.29584         2.45685 
        1.73035         7.27111         2.43576 
        1.73649         7.23715         2.41492 
        1.74262         7.16815         2.39433 
        1.74876         7.17374         2.37398 
        1.75489         7.12816          2.3539 
        1.76101         7.06972         2.33406 
        1.76715         7.06279         2.31443 
        1.77329         7.02298         2.29499 
        1.77943         6.96546         2.27577 
        1.78557         6.96978          2.2568 
        1.79171         6.92356         2.23804 
        1.79785         6.89723         2.21949 
        1.80399         6.83546         2.20115 
        1.81012          6.8197         2.18305 
        1.81625         6.77251         2.16516 
        1.82239         6.75013         2.14744 
        1.82853         6.70419         2.12993 
        1.83466         6.66032         2.11263 
        1.84078         6.64739         2.09554 
        1.84692           6.618         2.07861 
        1.85306         6.58694         2.06185 
         1.8592         6.56693          2.0453 
        1.86533         6.53521         2.02894 
        1.87147         6.50001         2.01274 
        1.87761         6.47772         1.99671 
        1.88375         6.43778         1.98088 
        1.88988         6.40648         1.96523 
        1.89601         6.38565         1.94975 
        1.90215         6.34246         1.93441 
        1.90829         6.32459         1.91925 
        1.91442         6.28687         1.90425 
        1.92056         6.28408         1.88943 
         1.9267         6.23362         1.87475 
        1.93284          6.2248         1.86021 
        1.93897         6.17946         1.84586 
        1.94509         6.13722         1.83168 
        1.95123         6.13315         1.81762 
        1.95737         6.10903          1.8037 
        1.96349         6.06029         1.78996 
        1.96964         6.03491         1.77632 
        1.97578         6.01834         1.76282 
        1.98192         5.98857         1.74949 
        1.98805         5.96744         1.73629 
        1.99419         5.94603         1.72323 
        2.00033         5.90975          1.7103 
        2.00647         5.89526          1.6975 
         2.0126          5.8697         1.68485 
        2.01874         5.83566         1.67232 
        2.02488         5.81953          1.6599 
        2.03101         5.78376         1.64763 
        2.03714         5.75337         1.63549 
        2.04328         5.73638         1.62347 
        2.04941         5.70702         1.61157 
        2.05554         5.69444          1.5998 
        2.06167         5.67443         1.58814 
        2.06781         5.63932         1.57659 
        2.07396         5.61533         1.56513 
        2.08009         5.59117         1.55381 
        2.08622         5.58169         1.54262 
        2.09237         5.56157         1.53151 
        2.09851         5.52016         1.52051 
        2.10464         5.50794         1.50963 
        2.11077         5.48188         1.49888 
        2.11691         5.47012         1.48821 
        2.12305         5.43816         1.47764 
        2.12918         5.42086         1.46719 
        2.13531         5.39673         1.45685 
        2.14145         5.37659         1.44659 
         2.1476         5.35677         1.43641 
        2.15372         5.32821         1.42638 
        2.15985         5.31606         1.41643 
        2.16599         5.29649         1.40655 
        2.17213         5.28837         1.39678 
        2.17827         5.24735          1.3871 
         2.1844         5.23187         1.37752 
        2.19054         5.21925         1.36803 
        2.19666          5.1921         1.35864 
         2.2028         5.16287         1.34933 
        2.20893         5.15855         1.34011 
        2.21508         5.13339         1.33096 
        2.22122         5.09653         1.32189 
        2.22736         5.08477         1.31292 
        2.23349         5.06713         1.30404 
        2.23962          5.0561         1.29524 
        2.24577         5.02602         1.28651 
         2.2519         5.02677         1.27788 
        2.25802         4.97235         1.26933 
        2.26417         4.97098         1.26084 
        2.27031         4.95101         1.25242 
        2.27644         4.93507         1.24411 
        2.28257         4.91226         1.23586 
        2.28872         4.89866         1.22768 
        2.29486         4.87602         1.21957 
        2.30099         4.86464         1.21156 
        2.30712         4.83968         1.20361 
        2.31326         4.82508         1.19571 
         2.3194          4.8028          1.1879 
        2.32553         4.78458         1.18017 
        2.33166         4.77175          1.1725 
         2.3378         4.75485          1.1649 
        2.34394         4.73348         1.15736 
        2.35007         4.71402          1.1499 
        2.35619         4.70755         1.14251 
        2.36233         4.67764         1.13517 
        2.36848          4.6688         1.12788 
        2.37462         4.65167         1.12067 
        2.38075         4.64041         1.11353 
        2.38689         4.62516         1.10645 
        2.39303         4.59723         1.09943 
        2.39916         4.58796         1.09247 
        2.40529          4.5658         1.08558 
        2.41143         4.55758         1.07874 
        2.41757         4.53997         1.07196 
         2.4237         4.52291         1.06524 
        2.42983         4.51022         1.05859 
        2.43598          4.4978         1.05197 
        2.44211         4.47628         1.04543 
        2.44823         4.45405         1.03895 
        2.45437         4.44197         1.03251 
        2.46052         4.43252         1.02612 
        2.46665         4.41493         1.01979 
        2.47279         4.39525         1.01352 
        2.47892         4.37907          1.0073 
        2.48507         4.36988         1.00112 
         2.4912          4.3514        0.995009 
