# k  (h/Mpc)    Pcb(k)  (Mpc/h)^3    Pcb_linear(k)  (Mpc/h)^3
     0.00783031         4387.84         4414.34 
       0.013688         5368.96         5456.43 
       0.019231         5476.29         5520.51 
      0.0249154         5097.19         5087.47 
      0.0312784         4370.06         4382.98 
      0.0375637         3692.16         3717.31 
      0.0433917         3235.39         3232.89 
      0.0492413         2876.87         2888.91 
      0.0555754         2643.78         2639.15 
      0.0619321         2414.11          2455.6 
       0.067871         2278.19         2294.04 
      0.0738098          2106.2         2113.38 
      0.0800417         1900.39         1899.16 
      0.0862327         1675.12         1678.32 
      0.0921407         1484.26         1483.22 
      0.0982031         1331.31         1317.38 
       0.104506         1190.32         1189.81 
       0.110769         1107.85         1104.11 
       0.116806          1063.8         1048.18 
       0.122832         1007.62         1003.79 
       0.129052         962.969         956.322 
       0.135211         915.426         899.658 
       0.141259         843.568          834.04 
       0.147318          768.05         763.536 
       0.153489         707.079         694.594 
       0.159709         657.817         634.941 
       0.165845         601.083         589.217 
       0.171974         582.412         556.237 
       0.178125         558.359         532.625 
       0.184229         529.026         513.913 
        0.19034         516.193         495.353 
       0.196428         495.851         473.984 
       0.202534         461.688         448.796 
       0.208729         444.281         420.611 
       0.214876         420.864         392.478 
       0.220989          388.75          366.84 
       0.227147         376.102         345.078 
        0.23329         360.257         327.912 
       0.239377         350.416         314.748 
       0.245482         334.581         304.026 
       0.251667         321.497         294.061 
       0.257832         317.015         283.691 
       0.263955         299.384         272.288 
       0.270079          287.07         259.815 
        0.27624          273.24         246.828 
       0.282372         263.598         234.312 
        0.28843         259.311         223.078 
       0.294538         246.524         213.308 
       0.300721         236.458         205.013 
        0.30691         232.501             198 
       0.313033         222.933         191.796 
       0.319153         219.128         185.823 
       0.325316         211.525         179.643 
        0.33145         204.994         173.206 
       0.337538         197.887         166.596 
       0.343633         191.408         160.004 
       0.349808         185.181         153.623 
       0.355968          180.09         147.773 
       0.362074         175.997         142.592 
       0.368217         172.061         137.952 
       0.374374         167.929         133.763 
       0.380519         160.929         129.847 
       0.386598         157.526         126.075 
       0.392688         152.991           122.3 
        0.39888         149.999         118.416 
       0.405048         146.493         114.557 
       0.411186         143.707         110.801 
       0.417313         139.958         107.213 
       0.423458         136.268          103.85 
       0.429607         133.447         100.742 
       0.435692         131.165         97.8902 
       0.441815         127.237         95.2063 
       0.447964         123.427         92.6396 
       0.454126         121.173         90.1332 
       0.460267         120.079         87.6728 
       0.466387         117.126         85.2567 
        0.47254         115.671         82.8686 
       0.478662         111.641         80.5556 
       0.484765         109.918         78.3439 
       0.490885         107.356         76.2389 
       0.497035         106.389         74.2352 
       0.503198          103.97         72.3297 
       0.509342         101.279         70.5202 
       0.515458         99.9762         68.7894 
       0.521598         97.5014         67.1022 
       0.527764         96.4051         65.4435 
       0.533884         95.4797         63.8333 
           0.54         92.9253          62.267 
       0.546137         90.6041         60.7434 
       0.552299         89.2187         59.2663 
       0.558452         87.5213         57.8463 
       0.564573         87.0908         56.4897 
       0.570708         84.5256         55.1856 
       0.576825          83.652         53.9353 
       0.582926         82.6311         52.7292 
       0.589034         81.1156         51.5551 
       0.595184         80.0694         50.4022 
       0.601379         78.0668         49.2709 
       0.607522         76.8293         48.1805 
       0.613639         76.0964         47.1272 
       0.619772         74.6937         46.1045 
       0.625918         73.7906         45.1123 
       0.632068         72.7087         44.1507 
       0.638161         71.3887         43.2273 
         0.6443         70.8336         42.3253 
       0.650464         69.2666         41.4468 
       0.656582         68.9576         40.6002 
       0.662703          68.014         39.7771 
       0.668861         66.4477         38.9715 
       0.675024         66.2157         38.1866 
       0.681124         65.2712         37.4303 
       0.687237         63.9659         36.6923 
       0.693381         63.3934         35.9705 
       0.699536         62.7207         35.2672 
       0.705665         61.7135         34.5864 
       0.711789         60.8125         33.9251 
       0.717957         59.9572         33.2774 
        0.72409         59.3882         32.6508 
       0.730186         59.0147         32.0444 
       0.736317         57.9205         31.4502 
       0.742472         57.2516         30.8688 
       0.748622         56.3887         30.3024 
        0.75476          55.635         29.7512 
       0.760888         55.5042         29.2144 
       0.767043         54.3911         28.6886 
       0.773185         53.7906         28.1768 
       0.779291         53.1461         27.6805 
       0.785407         52.4171         27.1956 
       0.791564         52.4005         26.7194 
       0.797719         51.5018         26.2551 
       0.803834         51.0704         25.8049 
       0.809972           50.46         25.3637 
       0.816124         49.9157          24.932 
       0.822261         49.2615         24.5116 
       0.828378         49.0306         24.1022 
       0.834502         48.3929         23.7019 
       0.840667         48.0036         23.3082 
       0.846816         47.3006         22.9245 
       0.852925         46.9609          22.552 
       0.859047         46.7603          22.187 
       0.865192         45.9558         21.8289 
       0.871341         45.4416         21.4785 
       0.877463         45.0806         21.1375 
       0.883569         44.9083         20.8048 
       0.889708         44.3739         20.4775 
       0.895864          43.923         20.1565 
       0.902008         43.4596         19.8431 
       0.908149         43.0544         19.5366 
       0.914301          42.735         19.2361 
       0.920448         42.4128         18.9422 
       0.926574         41.7305         18.6556 
       0.932687         41.4482         18.3754 
       0.938823         40.9965         18.1001 
       0.944975         40.6094         17.8298 
       0.951105         40.3106          17.566 
       0.957225          40.062          17.308 
       0.963368         39.6273         17.0544 
       0.969511         39.2907         16.8058 
       0.975621          38.993         16.5635 
       0.981748         38.5663         16.3254 
       0.987916         38.3011         16.0906 
        0.99406         37.9058         15.8612 
        1.00019          37.635         15.6368 
        1.00632         37.3449         15.4169 
        1.01246         37.0246          15.201 
        1.01859          36.721         14.9895 
        1.02471         36.3545         14.7824 
        1.03085         36.1996         14.5785 
        1.03698         35.9427         14.3788 
        1.04314         35.6276         14.1821 
        1.04929         35.2081         13.9895 
        1.05541         35.1023         13.8013 
        1.06154         34.8668         13.6161 
        1.06769         34.3581         13.4341 
        1.07382         34.2269         13.2559 
        1.07993         33.9441         13.0815 
        1.08607         33.6909         12.9094 
        1.09222         33.4869         12.7403 
        1.09836         33.1578         12.5745 
        1.10449         33.0244         12.4118 
        1.11063         32.7052         12.2518 
        1.11677         32.6571         12.0947 
         1.1229         32.3016         11.9406 
        1.12903         32.0687         11.7891 
        1.13518         31.9726         11.6401 
        1.14131         31.6503         11.4938 
        1.14745          31.325         11.3501 
        1.15359          31.051         11.2088 
        1.15973         30.9324         11.0699 
        1.16584         30.7065         10.9339 
        1.17197         30.3368         10.8001 
        1.17811         30.2365          10.668 
        1.18424         29.8735         10.5386 
        1.19038         29.8067          10.411 
        1.19652         29.5783         10.2855 
        1.20267         29.4424         10.1621 
        1.20881         29.2035         10.0407 
        1.21495         29.0653         9.92157 
        1.22108         28.9634         9.80436 
         1.2272         28.7244         9.68932 
        1.23334         28.5369         9.57586 
        1.23949         28.3154         9.46396 
        1.24562         28.0552         9.35415 
        1.25174         27.9384         9.24626 
        1.25789         27.8466         9.13974 
        1.26402         27.6518         9.03509 
        1.27014         27.4795         8.93234 
        1.27628         27.2125         8.83089 
        1.28244         27.1978         8.73081 
        1.28858         26.9232         8.63243 
        1.29471         26.7425         8.53579 
        1.30084         26.5666         8.44072 
        1.30697         26.4498         8.34695 
        1.31312         26.2315         8.25448 
        1.31925         26.0545         8.16371 
        1.32537         25.8923         8.07439 
        1.33151         25.7221          7.9861 
        1.33765          25.682         7.89918 
        1.34378         25.5286         7.81373 
        1.34992         25.3443         7.72948 
        1.35606         25.1658          7.6463 
         1.3622         25.0064         7.56449 
        1.36833         24.9185         7.48408 
        1.37445         24.7353         7.40488 
        1.38059         24.6037         7.32659 
        1.38675         24.4243         7.24924 
        1.39288         24.2939         7.17332 
        1.39901         24.1434         7.09853 
        1.40515         24.0506         7.02463 
         1.4113         23.9605         6.95182 
        1.41742          23.824         6.88031 
        1.42355         23.6174         6.80968 
         1.4297         23.4853         6.73983 
        1.43585         23.3533         6.67098 
        1.44198         23.2794         6.60336 
        1.44809         23.1384         6.53681 
        1.45423         23.0153         6.47092 
        1.46036         22.8975         6.40607 
        1.46649         22.7599         6.34208 
        1.47263          22.619         6.27891 
        1.47877         22.5268         6.21663 
        1.48491          22.415          6.1551 
        1.49104         22.2586         6.09454 
        1.49718         22.2012         6.03474 
        1.50333         22.0996         5.97565 
        1.50947           21.96         5.91748 
         1.5156         21.8339         5.86016 
        1.52172         21.6898         5.80361 
        1.52787         21.6188         5.74769 
          1.534         21.5155         5.69258 
        1.54013         21.4434         5.63824 
        1.54627         21.2536         5.58452 
        1.55241         21.1483         5.53149 
        1.55855         21.0635         5.47922 
        1.56467         21.0086         5.42778 
         1.5708         20.8713         5.37685 
        1.57695           20.79          5.3265 
        1.58308         20.5991         5.27691 
        1.58922         20.5184         5.22791 
        1.59535          20.436         5.17956 
         1.6015           20.32         5.13176 
        1.60764         20.2412         5.08458 
        1.61376         20.1676         5.03812 
        1.61989          19.994         4.99221 
        1.62604         19.9384         4.94676 
        1.63218         19.8551         4.90191 
        1.63831         19.7274         4.85772 
        1.64444         19.6412         4.81406 
        1.65059         19.5542         4.77083 
        1.65673         19.4811         4.72818 
        1.66285         19.3563         4.68617 
        1.66898         19.2967         4.64466 
        1.67512         19.2449         4.60356 
        1.68127         19.1321         4.56293 
         1.6874         19.0496         4.52288 
        1.69353         18.8982         4.48333 
        1.69967         18.8316         4.44416 
        1.70581         18.7547         4.40548 
        1.71193         18.6293          4.3674 
        1.71806         18.5828         4.32969 
        1.72421         18.5084         4.29236 
        1.73035         18.3992          4.2555 
        1.73649         18.3227         4.21909 
        1.74262          18.224         4.18313 
        1.74876         18.1473         4.14757 
        1.75489         18.0842         4.11249 
        1.76101         17.9677         4.07783 
        1.76715          17.929         4.04352 
        1.77329         17.8098         4.00957 
        1.77943         17.7463         3.97599 
        1.78557         17.6887         3.94284 
        1.79171         17.5703         3.91007 
        1.79785         17.5078         3.87766 
        1.80399         17.4108         3.84562 
        1.81012         17.3746           3.814 
        1.81625         17.2676         3.78274 
        1.82239         17.1891         3.75178 
        1.82853         17.1237         3.72119 
        1.83466         17.0191         3.69096 
        1.84078         16.9775         3.66111 
        1.84692         16.9509         3.63153 
        1.85306         16.8432         3.60225 
         1.8592         16.7921         3.57334 
        1.86533         16.6457         3.54476 
        1.87147         16.5922         3.51645 
        1.87761          16.541         3.48845 
        1.88375         16.5073         3.46078 
        1.88988         16.3733         3.43345 
        1.89601          16.343         3.40639 
        1.90215         16.2298          3.3796 
        1.90829         16.1669         3.35312 
        1.91442         16.0627         3.32691 
        1.92056         16.0623         3.30101 
         1.9267         15.9861         3.27536 
        1.93284         15.9756         3.24996 
        1.93897         15.8702         3.22489 
        1.94509         15.7911         3.20013 
        1.95123         15.6991         3.17556 
        1.95737         15.6525         3.15124 
        1.96349         15.5787         3.12723 
        1.96964          15.574         3.10341 
        1.97578         15.4774         3.07982 
        1.98192         15.4171         3.05652 
        1.98805         15.2988         3.03347 
        1.99419         15.2871         3.01065 
        2.00033         15.2169         2.98805 
        2.00647          15.148         2.96569 
         2.0126         15.0947          2.9436 
        2.01874          15.023          2.9217 
        2.02488         14.9211             2.9 
        2.03101          14.901         2.87856 
        2.03714         14.8207         2.85736 
        2.04328         14.7818         2.83635 
        2.04941         14.6956         2.81557 
        2.05554         14.6794         2.79501 
        2.06167         14.6253         2.77463 
        2.06781         14.5548         2.75444 
        2.07396         14.5367         2.73443 
        2.08009         14.4277         2.71466 
        2.08622         14.3843          2.6951 
        2.09237         14.3483         2.67569 
        2.09851         14.2483         2.65647 
        2.10464         14.2117         2.63747 
        2.11077         14.1441         2.61869 
        2.11691         14.1012         2.60004 
        2.12305         14.0442         2.58157 
        2.12918         13.9683         2.56333 
        2.13531         13.9342         2.54526 
        2.14145         13.8588         2.52732 
         2.1476         13.7907         2.50954 
        2.15372         13.7836         2.49201 
        2.15985         13.7185         2.47464 
        2.16599         13.6629         2.45738 
        2.17213          13.641         2.44031 
        2.17827         13.5512          2.4234 
         2.1844         13.4977         2.40666 
        2.19054         13.4804         2.39008 
        2.19666         13.4112         2.37368 
         2.2028         13.3806         2.35741 
        2.20893         13.2832          2.3413 
        2.21508         13.2602         2.32531 
        2.22122         13.1755         2.30947 
        2.22736          13.172          2.2938 
        2.23349         13.1072         2.27829 
        2.23962         13.0748         2.26291 
        2.24577         13.0257         2.24766 
         2.2519         12.9651         2.23257 
        2.25802         12.8791         2.21765 
        2.26417         12.8852         2.20281 
        2.27031         12.8393          2.1881 
        2.27644         12.8137         2.17357 
        2.28257         12.7079         2.15917 
        2.28872         12.7067         2.14487 
        2.29486         12.6509         2.13071 
        2.30099         12.5903          2.1167 
        2.30712         12.5161         2.10281 
        2.31326         12.4817         2.08903 
         2.3194         12.4364         2.07537 
        2.32553         12.4004         2.06186 
        2.33166         12.3384         2.04848 
         2.3378         12.3145         2.03519 
        2.34394         12.2527         2.02202 
        2.35007         12.2206         2.00898 
        2.35619         12.1758         1.99608 
        2.36233         12.1128         1.98326 
        2.36848         12.0607         1.97052 
        2.37462          12.023         1.95792 
        2.38075         11.9858         1.94545 
        2.38689         11.9621         1.93307 
        2.39303         11.8901          1.9208 
        2.39916          11.878         1.90865 
        2.40529         11.8378         1.89661 
        2.41143         11.7708         1.88466 
        2.41757         11.7175         1.87281 
         2.4237         11.6924         1.86108 
        2.42983         11.6604         1.84945 
        2.43598         11.6175          1.8379 
        2.44211         11.5503         1.82646 
        2.44823         11.5303         1.81514 
        2.45437         11.4962         1.80389 
        2.46052         11.4607         1.79272 
        2.46665         11.4254         1.78167 
        2.47279         11.3648         1.77071 
        2.47892         11.3154         1.75984 
        2.48507         11.2893         1.74905 
         2.4912         11.2644         1.73837 
