# k  (h/Mpc)    P(k)  (Mpc/h)^3    P_linear(k)  (Mpc/h)^3
     0.00783031         10981.9         11132.6 
       0.013688         13786.3           13697 
       0.019231         13752.5         13730.5 
      0.0249154         12290.4         12505.4 
      0.0312784         10528.7         10613.4 
      0.0375637         8882.46         8867.15 
      0.0433917         7526.08         7621.31 
      0.0492413          6736.4         6759.32 
      0.0555754         6015.59         6160.82 
      0.0619321         5769.91         5747.47 
       0.067871         5277.18         5393.51 
      0.0738098         4880.29         4988.25 
      0.0800417         4353.96          4488.5 
      0.0862327         3890.36         3955.53 
      0.0921407         3478.03         3473.25 
      0.0982031         3053.86         3057.11 
       0.104506         2817.82         2735.66 
       0.110769         2597.31         2523.41 
       0.116806          2446.2         2393.06 
       0.122832          2351.8         2299.49 
       0.129052         2206.09          2204.9 
       0.135211         2095.82         2088.46 
       0.141259         1990.32         1945.55 
       0.147318         1853.37          1783.5 
       0.153489         1680.84          1617.8 
       0.159709          1566.6         1469.25 
       0.165845         1485.63         1352.61 
       0.171974         1394.98         1268.16 
       0.178125         1331.02            1210 
       0.184229         1281.76         1168.24 
        0.19034         1209.42         1130.85 
       0.196428         1188.61         1088.82 
       0.202534         1146.97         1037.36 
       0.208729          1086.1         976.413 
       0.214876         1027.02         912.064 
       0.220989         986.425         850.442 
       0.227147         934.885         795.973 
        0.23329         894.454         751.929 
       0.239377         875.029         718.323 
       0.245482         818.445         692.272 
       0.251667         813.296           670.1 
       0.257832         784.224         648.669 
       0.263955         758.605         625.505 
       0.270079         730.289         599.557 
        0.27624         720.549         571.344 
       0.282372         689.862         542.773 
        0.28843         673.968         515.969 
       0.294538         639.894         491.786 
       0.300721          635.73         470.929 
        0.30691         607.397         453.465 
       0.313033         595.683         438.701 
       0.319153         578.556         425.294 
       0.325316         561.801         412.084 
        0.33145         545.975         398.503 
       0.337538         538.288         384.413 
       0.343633          521.55         369.913 
       0.349808         503.672         355.375 
       0.355968         499.133         341.559 
       0.362074         490.236         329.008 
       0.368217         476.541         317.667 
       0.374374         456.974         307.523 
       0.380519         454.205         298.336 
       0.386598         442.719          289.79 
       0.392688         439.999         281.476 
        0.39888         427.344         273.038 
       0.405048         418.669         264.584 
       0.411186         411.223         256.219 
       0.417313         403.362         248.039 
       0.423458         395.884         240.182 
       0.429607          388.51         232.807 
       0.435692         378.995          226.01 
       0.441815         376.015         219.647 
       0.447964         368.295         213.667 
       0.454126         358.079         207.954 
       0.460267         352.661          202.43 
       0.466387         348.553         197.041 
        0.47254         341.584         191.714 
       0.478662         340.609         186.503 
       0.484765         329.388         181.448 
       0.490885         325.984          176.57 
       0.497035         320.412          171.89 
       0.503198         314.916         167.426 
       0.509342          312.45         163.196 
       0.515458         308.644         159.184 
       0.521598         302.127         155.314 
       0.527764         297.387         151.548 
       0.533884         294.843         147.904 
           0.54         290.601         144.356 
       0.546137          289.38         140.889 
       0.552299         283.351         137.506 
       0.558452         281.337         134.233 
       0.564573         277.056         131.091 
       0.570708         271.855         128.062 
       0.576825         267.646         125.162 
       0.582926         265.076         122.374 
       0.589034          262.57         119.673 
       0.595184         259.954         117.033 
       0.601379         256.852         114.449 
       0.607522         252.515         111.957 
       0.613639         251.242         109.546 
       0.619772         245.629         107.197 
       0.625918         244.445          104.91 
       0.632068         240.866         102.688 
       0.638161         239.794         100.554 
         0.6443         235.926         98.4697 
       0.650464         233.623          96.443 
       0.656582         231.832         94.4924 
       0.662703         230.371         92.5975 
       0.668861         226.261         90.7442 
       0.675024         223.694         88.9385 
       0.681124         222.742         87.1973 
       0.687237         219.821         85.4974 
       0.693381         216.544          83.834 
       0.699536          214.95         82.2122 
       0.705665         213.571         80.6417 
       0.711789         210.924         79.1158 
       0.717957         210.082         77.6211 
        0.72409          207.55         76.1748 
       0.730186          205.06         74.7752 
       0.736317         202.955         73.4036 
       0.742472         201.956         72.0614 
       0.748622         200.239         70.7537 
        0.75476         198.619         69.4809 
       0.760888         195.988         68.2412 
       0.767043          195.75         67.0269 
       0.773185         193.525         65.8449 
       0.779291         190.027         64.6985 
       0.785407         189.622         63.5783 
       0.791564         187.903         62.4782 
       0.797719         185.327         61.4053 
       0.803834         184.462         60.3648 
       0.809972         183.172         59.3451 
       0.816124         182.896         58.3472 
       0.822261         180.539         57.3751 
       0.828378         178.921         56.4283 
       0.834502         178.613         55.5022 
       0.840667         175.925         54.5911 
       0.846816         174.549         53.7031 
       0.852925         173.889         52.8406 
       0.859047         172.042         51.9954 
       0.865192         170.587         51.1661 
       0.871341         169.107         50.3546 
       0.877463         167.875         49.5644 
       0.883569         167.228         48.7934 
       0.889708         165.651         48.0351 
       0.895864         163.725         47.2911 
       0.902008         163.032         46.5646 
       0.908149         162.434         45.8539 
       0.914301          160.54         45.1571 
       0.920448         159.368         44.4756 
       0.926574         158.521         43.8107 
       0.932687         158.256         43.1609 
       0.938823         156.154         42.5221 
       0.944975         154.714         41.8949 
       0.951105         154.176         41.2827 
       0.957225         152.625         40.6839 
       0.963368          150.96         40.0951 
       0.969511         150.665         39.5181 
       0.975621         149.707         38.9556 
       0.981748         149.222         38.4028 
       0.987916         147.557         37.8573 
        0.99406         146.458         37.3245 
        1.00019         146.298         36.8032 
        1.00632          144.84         36.2924 
        1.01246         144.026         35.7906 
        1.01859         143.142         35.2992 
        1.02471         141.881         34.8177 
        1.03085         140.517         34.3436 
        1.03698         140.065         33.8794 
        1.04314         138.772         33.4219 
        1.04929         137.933          32.974 
        1.05541         137.386         32.5362 
        1.06154         136.475         32.1053 
        1.06769         136.348         31.6817 
        1.07382          135.16         31.2671 
        1.07993         134.039          30.861 
        1.08607         133.226         30.4604 
        1.09222         132.784         30.0666 
        1.09836         131.625         29.6803 
        1.10449         130.526         29.3013 
        1.11063         129.671         28.9285 
        1.11677         129.371         28.5624 
         1.1229         128.102         28.2033 
        1.12903         127.466         27.8502 
        1.13518         127.341         27.5028 
        1.14131         126.027         27.1616 
        1.14745         125.496         26.8265 
        1.15359         124.661          26.497 
        1.15973          124.23         26.1729 
        1.16584         122.935         25.8558 
        1.17197         122.428         25.5434 
        1.17811         121.798         25.2354 
        1.18424         121.196         24.9333 
        1.19038         120.807         24.6354 
        1.19652         119.921         24.3425 
        1.20267         119.103         24.0544 
        1.20881         118.263         23.7711 
        1.21495          117.68         23.4928 
        1.22108         117.147          23.219 
         1.2272         116.062         22.9503 
        1.23334         115.653         22.6852 
        1.23949         114.728         22.4237 
        1.24562         114.275         22.1672 
        1.25174         113.342          21.915 
        1.25789         112.952          21.666 
        1.26402         112.228         21.4214 
        1.27014         111.641         21.1811 
        1.27628         111.131         20.9439 
        1.28244         110.567         20.7099 
        1.28858         110.213         20.4797 
        1.29471         109.053         20.2537 
        1.30084         108.774         20.0312 
        1.30697         108.006         19.8118 
        1.31312         107.639         19.5954 
        1.31925         106.755         19.3829 
        1.32537         106.371         19.1738 
        1.33151         105.374          18.967 
        1.33765         105.069         18.7635 
        1.34378         104.472         18.5633 
        1.34992         104.214         18.3659 
        1.35606         103.534          18.171 
         1.3622         102.675         17.9793 
        1.36833         102.388         17.7909 
        1.37445         101.708         17.6052 
        1.38059         101.191         17.4217 
        1.38675         100.484         17.2403 
        1.39288         100.163         17.0623 
        1.39901         99.7928         16.8869 
        1.40515          99.068         16.7136 
         1.4113         98.3989         16.5428 
        1.41742         98.2623          16.375 
        1.42355         97.4744         16.2093 
         1.4297         97.0873         16.0454 
        1.43585         96.3404         15.8838 
        1.44198         96.0176         15.7251 
        1.44809         95.4149         15.5689 
        1.45423         94.9128         15.4142 
        1.46036         94.6878         15.2619 
        1.46649         94.0112         15.1117 
        1.47263         93.4692         14.9633 
        1.47877         93.2934          14.817 
        1.48491         92.4302         14.6725 
        1.49104          92.206         14.5302 
        1.49718         91.5759         14.3897 
        1.50333         91.1472         14.2509 
        1.50947          90.731         14.1142 
         1.5156         90.2044         13.9794 
        1.52172         89.7164         13.8465 
        1.52787         89.4595          13.715 
          1.534         88.8004         13.5854 
        1.54013         88.2756         13.4576 
        1.54627         88.0204         13.3313 
        1.55241         87.4477         13.2065 
        1.55855         87.1687         13.0835 
        1.56467         86.7236         12.9624 
         1.5708         86.1848         12.8426 
        1.57695         86.0879         12.7241 
        1.58308         85.1678         12.6073 
        1.58922         85.1258          12.492 
        1.59535         84.7133         12.3781 
         1.6015         84.0737         12.2655 
        1.60764          83.736         12.1544 
        1.61376         83.4664          12.045 
        1.61989         82.8973         11.9368 
        1.62604         82.6874         11.8297 
        1.63218         82.2243          11.724 
        1.63831         81.4999         11.6199 
        1.64444         81.2987          11.517 
        1.65059          80.834         11.4151 
        1.65673         80.3033         11.3145 
        1.66285         80.0545         11.2155 
        1.66898          79.601         11.1176 
        1.67512         79.1669         11.0207 
        1.68127         78.8779         10.9248 
         1.6874          78.485         10.8304 
        1.69353         78.0882         10.7371 
        1.69967         77.5411         10.6447 
        1.70581         77.4576         10.5534 
        1.71193         77.1775         10.4635 
        1.71806         76.5299         10.3745 
        1.72421         76.1841         10.2864 
        1.73035         75.8325         10.1994 
        1.73649         75.4967         10.1134 
        1.74262         75.1528         10.0285 
        1.74876         74.7989         9.94455 
        1.75489         74.2409         9.86171 
        1.76101         74.0761         9.77984 
        1.76715         73.5935         9.69879 
        1.77329         73.3669         9.61856 
        1.77943         72.8241         9.53921 
        1.78557          72.703         9.46088 
        1.79171         72.1793         9.38341 
        1.79785         71.8785          9.3068 
        1.80399         71.6583         9.23107 
        1.81012         71.3741         9.15628 
        1.81625          70.806         9.08236 
        1.82239         70.5636         9.00915 
        1.82853         70.2687         8.93679 
        1.83466         69.9232          8.8653 
        1.84078         69.6209         8.79466 
        1.84692         69.1028         8.72469 
        1.85306         68.8408          8.6554 
         1.8592         68.4386         8.58697 
        1.86533         68.1995         8.51932 
        1.87147         67.7579         8.45233 
        1.87761         67.5347         8.38603 
        1.88375         67.1877         8.32052 
        1.88988         66.9601         8.25579 
        1.89601         66.5412         8.19172 
        1.90215         66.2532         8.12827 
        1.90829          66.015         8.06554 
        1.91442         65.6535         8.00346 
        1.92056         65.1882         7.94209 
         1.9267         65.0464         7.88131 
        1.93284          64.622         7.82113 
        1.93897         64.2819          7.7617 
        1.94509         64.0043         7.70301 
        1.95123          63.739         7.64479 
        1.95737         63.5289         7.58713 
        1.96349         63.0289         7.53021 
        1.96964         62.9023         7.47372 
        1.97578         62.6065         7.41779 
        1.98192         62.2995         7.36254 
        1.98805          62.131         7.30785 
        1.99419         61.6441         7.25372 
        2.00033         61.4053         7.20012 
        2.00647         61.1684         7.14707 
         2.0126         60.6836         7.09465 
        2.01874         60.4851         7.04267 
        2.02488         60.3012         6.99117 
        2.03101         60.0184         6.94029 
        2.03714         59.6757         6.88996 
        2.04328         59.4767         6.84008 
        2.04941         59.1272         6.79073 
        2.05554         58.8424         6.74191 
        2.06167         58.5725          6.6935 
        2.06781         58.3389         6.64556 
        2.07396         58.0037         6.59802 
        2.08009         57.8191         6.55104 
        2.08622         57.5303         6.50456 
        2.09237         57.1824         6.45845 
        2.09851         57.0564         6.41278 
        2.10464         56.6939         6.36763 
        2.11077         56.3899         6.32297 
        2.11691         56.1357         6.27864 
        2.12305          55.936         6.23473 
        2.12918         55.6769         6.19136 
        2.13531         55.3403         6.14839 
        2.14145         55.1202         6.10574 
         2.1476         54.9109         6.06344 
        2.15372         54.6139         6.02175 
        2.15985         54.3516         5.98042 
        2.16599         54.0843         5.93936 
        2.17213         53.9041         5.89873 
        2.17827         53.6281         5.85849 
         2.1844         53.3316         5.81866 
        2.19054          53.042          5.7792 
        2.19666         52.8094         5.74015 
         2.2028         52.6996         5.70144 
        2.20893          52.478         5.66306 
        2.21508         52.1996         5.62499 
        2.22122         51.9466         5.58726 
        2.22736         51.7541         5.54996 
        2.23349         51.5127         5.51301 
        2.23962         51.1379         5.47638 
        2.24577         50.9103         5.44005 
         2.2519         50.6234          5.4041 
        2.25802          50.582         5.36853 
        2.26417         50.2269         5.33319 
        2.27031         50.0704         5.29814 
        2.27644         49.8528          5.2635 
        2.28257         49.5606         5.22918 
        2.28872         49.2601         5.19509 
        2.29486         49.1551         5.16132 
        2.30099         48.9498         5.12793 
        2.30712         48.7125         5.09481 
        2.31326         48.4166         5.06193 
         2.3194         48.1519         5.02936 
        2.32553         47.9587         4.99713 
        2.33166         47.7675         4.96521 
         2.3378         47.4931         4.93351 
        2.34394         47.2746         4.90209 
        2.35007         47.0069         4.87098 
        2.35619         46.8599         4.84018 
        2.36233           46.77         4.80958 
        2.36848         46.4534         4.77918 
        2.37462         46.2505         4.74911 
        2.38075         46.0648         4.71932 
        2.38689         45.8945         4.68977 
        2.39303         45.6561         4.66048 
        2.39916         45.4389         4.63146 
        2.40529         45.2345          4.6027 
        2.41143         45.0564         4.57416 
        2.41757         44.7935         4.54586 
         2.4237         44.7078         4.51784 
        2.42983         44.4516         4.49007 
        2.43598         44.2083         4.46245 
        2.44211         44.0442         4.43512 
        2.44823         43.8224         4.40807 
        2.45437         43.6427         4.38118 
        2.46052         43.3311         4.35449 
        2.46665          43.211         4.32807 
        2.47279         43.0743         4.30188 
        2.47892         42.8679         4.27589 
        2.48507         42.6288         4.25009 
         2.4912         42.5051         4.22456 
