# k  (h/Mpc)    Pcb(k)  (Mpc/h)^3    Pcb_linear(k)  (Mpc/h)^3
     0.00783031         574.609         578.374 
       0.013688         744.296          751.02 
       0.019231         793.703         796.719 
      0.0249154         771.063         771.601 
      0.0312784         699.115         700.134 
      0.0375637         616.393         617.754 
      0.0433917         549.369         548.621 
      0.0492413         492.778         493.182 
      0.0555754         450.171         449.079 
      0.0619321         414.686         417.083 
       0.067871         392.317         392.836 
      0.0738098         369.106         369.422 
      0.0800417         343.011         342.761 
      0.0862327         313.165         313.588 
      0.0921407         284.222         284.651 
      0.0982031         256.636         256.193 
       0.104506         229.641         230.278 
       0.110769         209.282          209.63 
       0.116806         195.426         194.676 
       0.122832         183.627         183.751 
       0.129052          175.55         175.189 
       0.135211         168.481         167.781 
       0.141259         160.299         160.228 
       0.147318          151.07         151.668 
       0.153489         141.802         141.885 
       0.159709         131.867         131.482 
       0.165845             121         121.496 
       0.171974         113.375         112.551 
       0.178125          105.91         105.076 
       0.184229         99.6353         99.2479 
        0.19034         95.7716         94.7763 
       0.196428         92.0717         91.2414 
       0.202534         88.1549         88.1063 
       0.208729         85.4952         84.8849 
       0.214876          82.341         81.3619 
       0.220989          77.614         77.4725 
       0.227147         74.3704         73.3007 
        0.23329         70.3681          69.136 
       0.239377         66.6842         65.2694 
       0.245482          63.151         61.8452 
       0.251667          59.972         58.9291 
       0.257832         58.0813          56.547 
       0.263955         55.7012         54.5774 
       0.270079         53.9366         52.8377 
        0.27624         51.9508         51.1551 
       0.282372         50.2855         49.4247 
        0.28843         48.9642         47.6094 
       0.294538         46.9206         45.6834 
       0.300721         44.7083         43.7042 
        0.30691         43.1882         41.7791 
       0.313033         41.3232         40.0112 
       0.319153         40.1607         38.4279 
       0.325316         38.2616         37.0328 
        0.33145         37.0208         35.8176 
       0.337538          36.023         34.7369 
       0.343633         35.0939          33.723 
       0.349808         33.9896         32.7181 
       0.355968         32.9171         31.7022 
       0.362074         32.1001         30.6754 
       0.368217         31.0216         29.6308 
       0.374374         30.2329         28.5968 
       0.380519         28.9672         27.6058 
       0.386598         27.9963         26.6862 
       0.392688         27.1211         25.8396 
        0.39888         26.4694         25.0533 
       0.405048          25.787         24.3348 
       0.411186         25.0748         23.6674 
       0.417313         24.4218         23.0288 
       0.423458         23.6777          22.402 
       0.429607         23.2286         21.7805 
       0.435692         22.7005         21.1675 
       0.441815         21.9085         20.5584 
       0.447964          21.223         19.9621 
       0.454126         20.7937         19.3872 
       0.460267         20.4327         18.8435 
       0.466387         19.8181         18.3345 
        0.47254          19.422         17.8529 
       0.478662         18.8872            17.4 
       0.484765           18.46         16.9698 
       0.490885         17.9574         16.5535 
       0.497035           17.52         16.1448 
       0.503198         17.1726         15.7433 
       0.509342          16.698         15.3509 
       0.515458         16.4179         14.9689 
       0.521598         16.0354         14.5956 
       0.527764         15.7638         14.2339 
       0.533884         15.2835         13.8899 
           0.54         14.9967         13.5613 
       0.546137         14.5742         13.2453 
       0.552299         14.3099         12.9409 
       0.558452         14.0111         12.6483 
       0.564573         13.7799         12.3664 
       0.570708         13.4746         12.0913 
       0.576825         13.2134         11.8232 
       0.582926         12.9284         11.5621 
       0.589034         12.6977         11.3075 
       0.595184         12.5019         11.0586 
       0.601379          12.174         10.8157 
       0.607522         11.9469         10.5825 
       0.613639         11.6744         10.3581 
       0.619772         11.5079         10.1408 
       0.625918         11.2683         9.93036 
       0.632068         11.1101         9.72637 
       0.638161          10.887         9.52997 
         0.6443         10.6765         9.33712 
       0.650464         10.4363         9.14826 
       0.656582         10.3381         8.96546 
       0.662703         10.1689         8.78734 
       0.668861         9.89982         8.61306 
       0.675024         9.74488         8.44354 
       0.681124         9.70348         8.28054 
       0.687237          9.4771         8.12175 
       0.693381          9.2373         7.96656 
       0.699536         9.17175         7.81532 
       0.705665         9.00289         7.66878 
       0.711789         8.81125         7.52623 
       0.717957         8.64587         7.38638 
        0.72409         8.54446         7.25087 
       0.730186          8.4612         7.11955 
       0.736317         8.27735          6.9907 
       0.742472         8.17085         6.86449 
       0.748622         8.04713         6.74147 
        0.75476         7.85424         6.62172 
       0.760888          7.7858          6.5051 
       0.767043         7.60375         6.39088 
       0.773185         7.51497         6.27973 
       0.779291          7.4675         6.17195 
       0.785407         7.31629         6.06662 
       0.791564         7.22047         5.96315 
       0.797719         7.09075         5.86218 
       0.803834         7.00744         5.76421 
       0.809972         6.88746         5.66813 
       0.816124         6.79749         5.57402 
       0.822261         6.70703         5.48229 
       0.828378         6.59976          5.3929 
       0.834502         6.51838         5.30544 
       0.840667         6.44889         5.21935 
       0.846816         6.32897         5.13543 
       0.852925         6.24527         5.05391 
       0.859047         6.16364           4.974 
       0.865192         6.07922         4.89559 
       0.871341         5.99398         4.81883 
       0.877463         5.91009         4.74409 
       0.883569         5.84103         4.67114 
       0.889708         5.76604         4.59936 
       0.895864         5.69076         4.52892 
       0.902008         5.60151         4.46012 
       0.908149         5.53395          4.3928 
       0.914301         5.47839         4.32677 
       0.920448         5.40589         4.26217 
       0.926574         5.36763         4.19912 
       0.932687         5.27833         4.13749 
       0.938823         5.19124         4.07689 
       0.944975         5.14975         4.01736 
       0.951105         5.05841         3.95925 
       0.957225         5.01846          3.9024 
       0.963368         4.96832         3.84648 
       0.969511         4.91023         3.79166 
       0.975621         4.84056         3.73822 
       0.981748         4.75424         3.68567 
       0.987916         4.71298         3.63381 
        0.99406         4.68186         3.58316 
        1.00019         4.62403         3.53357 
        1.00632         4.57872         3.48498 
        1.01246          4.5115         3.43723 
        1.01859         4.46184         3.39047 
        1.02471         4.39234         3.34463 
        1.03085           4.362          3.2995 
        1.03698         4.31579         3.25529 
        1.04314         4.27296         3.21172 
        1.04929         4.21819         3.16905 
        1.05541         4.16354         3.12733 
        1.06154         4.13264         3.08626 
        1.06769         4.10454         3.04588 
        1.07382          4.0377         3.00635 
        1.07993         3.98796         2.96763 
        1.08607         3.96125         2.92942 
        1.09222         3.90502         2.89186 
        1.09836         3.89243           2.855 
        1.10449         3.81376         2.81883 
        1.11063         3.78799         2.78325 
        1.11677         3.75557          2.7483 
         1.1229         3.70668         2.71402 
        1.12903         3.68474         2.68029 
        1.13518         3.62988         2.64712 
        1.14131         3.59779         2.61452 
        1.14745         3.55749          2.5825 
        1.15359          3.5261         2.55101 
        1.15973         3.48863         2.52003 
        1.16584         3.45435         2.48971 
        1.17197         3.41643         2.45985 
        1.17811         3.38316         2.43039 
        1.18424         3.35006          2.4015 
        1.19038         3.31724           2.373 
        1.19652         3.29507         2.34498 
        1.20267         3.26699         2.31741 
        1.20881         3.22793         2.29029 
        1.21495         3.20037         2.26366 
        1.22108         3.17355         2.23745 
         1.2272         3.12832         2.21172 
        1.23334          3.1172         2.18634 
        1.23949         3.08382          2.1613 
        1.24562         3.05644         2.13672 
        1.25174         3.03141         2.11257 
        1.25789         2.99326         2.08871 
        1.26402         2.96367         2.06527 
        1.27014         2.93762         2.04225 
        1.27628         2.91369         2.01951 
        1.28244         2.89263         1.99708 
        1.28858         2.86518         1.97502 
        1.29471         2.83011         1.95334 
        1.30084          2.8105         1.93201 
        1.30697         2.79257         1.91097 
        1.31312         2.76694         1.89021 
        1.31925         2.74256         1.86983 
        1.32537         2.72218         1.84977 
        1.33151         2.69271         1.82993 
        1.33765         2.67312          1.8104 
        1.34378         2.65023         1.79119 
        1.34992         2.63156         1.77225 
        1.35606         2.60758         1.75354 
         1.3622         2.58837         1.73514 
        1.36833         2.56046         1.71704 
        1.37445         2.53892         1.69922 
        1.38059         2.51927         1.68159 
        1.38675         2.49987         1.66417 
        1.39288         2.48374         1.64707 
        1.39901         2.45794         1.63022 
        1.40515         2.43776         1.61357 
         1.4113         2.42553         1.59716 
        1.41742         2.39752         1.58103 
        1.42355         2.37637         1.56511 
         1.4297         2.36646         1.54935 
        1.43585         2.34354         1.53382 
        1.44198         2.32629         1.51856 
        1.44809         2.31014         1.50354 
        1.45423         2.29357         1.48867 
        1.46036         2.27572         1.47403 
        1.46649         2.24715         1.45958 
        1.47263         2.24089         1.44531 
        1.47877         2.22852         1.43124 
        1.48491          2.2001         1.41734 
        1.49104         2.18947         1.40365 
        1.49718          2.1704         1.39013 
        1.50333         2.15499         1.37677 
        1.50947         2.14094         1.36361 
         1.5156         2.12395         1.35065 
        1.52172         2.11006         1.33785 
        1.52787         2.09308          1.3252 
          1.534         2.08123         1.31272 
        1.54013         2.06225         1.30042 
        1.54627         2.04757         1.28826 
        1.55241         2.02922         1.27625 
        1.55855         2.01831         1.26441 
        1.56467         2.00406         1.25275 
         1.5708         1.98936         1.24121 
        1.57695         1.97144         1.22979 
        1.58308         1.95561         1.21855 
        1.58922          1.9508         1.20744 
        1.59535         1.92908         1.19647 
         1.6015         1.91462         1.18562 
        1.60764         1.90522         1.17492 
        1.61376         1.88913         1.16437 
        1.61989         1.87863         1.15395 
        1.62604         1.86056         1.14363 
        1.63218         1.85608         1.13344 
        1.63831         1.84077         1.12341 
        1.64444         1.82674         1.11349 
        1.65059         1.81816         1.10367 
        1.65673         1.80103         1.09397 
        1.66285         1.78985         1.08442 
        1.66898         1.78102         1.07498 
        1.67512         1.76275         1.06564 
        1.68127         1.75074          1.0564 
         1.6874         1.74729         1.04729 
        1.69353         1.72937         1.03829 
        1.69967         1.71979         1.02938 
        1.70581         1.71305         1.02058 
        1.71193         1.69418         1.01191 
        1.71806         1.68547         1.00333 
        1.72421         1.67722        0.994824 
        1.73035         1.65991        0.986431 
        1.73649         1.65901        0.978137 
        1.74262         1.64363        0.969945 
        1.74876         1.63257        0.961842 
        1.75489         1.62389        0.953849 
        1.76101         1.60953        0.945948 
        1.76715           1.602        0.938127 
        1.77329         1.59246        0.930385 
        1.77943         1.58285        0.922727 
        1.78557         1.57566        0.915167 
        1.79171         1.56578        0.907691 
        1.79785         1.55437        0.900296 
        1.80399         1.54362        0.892986 
        1.81012         1.53403        0.885767 
        1.81625         1.52285        0.878631 
        1.82239         1.51535        0.871563 
        1.82853         1.50645        0.864576 
        1.83466         1.49514        0.857673 
        1.84078         1.48608        0.850853 
        1.84692         1.47906        0.844096 
        1.85306         1.47322        0.837404 
         1.8592         1.46046        0.830795 
        1.86533         1.45373        0.824262 
        1.87147         1.44112        0.817791 
        1.87761         1.43596        0.811388 
        1.88375         1.42722         0.80506 
        1.88988         1.41796        0.798807 
        1.89601         1.40974        0.792617 
        1.90215         1.40236        0.786489 
        1.90829         1.39487        0.780428 
        1.91442         1.38535         0.77443 
        1.92056          1.3806        0.768501 
         1.9267         1.37185        0.762628 
        1.93284          1.3615        0.756813 
        1.93897         1.35366         0.75107 
        1.94509         1.34941          0.7454 
        1.95123         1.33777        0.739773 
        1.95737         1.33225          0.7342 
        1.96349         1.32432          0.7287 
        1.96964         1.31881         0.72324 
        1.97578          1.3074        0.717833 
        1.98192         1.30079        0.712493 
        1.98805         1.29494        0.707207 
        1.99419         1.28808        0.701974 
        2.00033         1.28145        0.696792 
        2.00647         1.27481        0.691664 
         2.0126         1.26974        0.686596 
        2.01874         1.26099        0.681571 
        2.02488         1.25185        0.676593 
        2.03101         1.24664        0.671673 
        2.03714          1.2414        0.666807 
        2.04328         1.23236        0.661984 
        2.04941         1.22568        0.657212 
        2.05554         1.22012        0.652491 
        2.06167         1.21356         0.64781 
        2.06781         1.20477        0.643175 
        2.07396         1.20186        0.638578 
        2.08009         1.19418        0.634034 
        2.08622         1.18799         0.62954 
        2.09237         1.18244         0.62508 
        2.09851          1.1746        0.620663 
        2.10464         1.17155        0.616296 
        2.11077         1.16243        0.611976 
        2.11691         1.15712        0.607689 
        2.12305         1.15336        0.603442 
        2.12918         1.14447        0.599246 
        2.13531         1.13935        0.595089 
        2.14145         1.13331        0.590963 
         2.1476         1.12919        0.586871 
        2.15372         1.12153        0.582838 
        2.15985         1.11629        0.578839 
        2.16599         1.11244        0.574866 
        2.17213         1.10589        0.570935 
        2.17827         1.09846        0.567042 
         2.1844         1.09482        0.563189 
        2.19054         1.08919         0.55937 
        2.19666         1.08466        0.555592 
         2.2028         1.07791        0.551845 
        2.20893         1.07288        0.548132 
        2.21508         1.06782        0.544448 
        2.22122         1.06466        0.540797 
        2.22736         1.05472        0.537187 
        2.23349         1.05116        0.533611 
        2.23962         1.04739        0.530066 
        2.24577          1.0418         0.52655 
         2.2519         1.03616        0.523071 
        2.25802         1.03382        0.519629 
        2.26417         1.02592        0.516208 
        2.27031         1.02227        0.512815 
        2.27644         1.01883        0.509462 
        2.28257         1.01071         0.50614 
        2.28872         1.00928        0.502841 
        2.29486          1.0025        0.499572 
        2.30099        0.998363        0.496338 
        2.30712        0.994415        0.493133 
        2.31326        0.989707         0.48995 
         2.3194         0.98545        0.486797 
        2.32553        0.979588        0.483677 
        2.33166        0.976682        0.480586 
         2.3378        0.971285        0.477517 
        2.34394        0.966751        0.474475 
        2.35007        0.960003        0.471463 
        2.35619        0.956288        0.468481 
        2.36233          0.9519        0.465518 
        2.36848        0.949977        0.462575 
        2.37462        0.945831        0.459663 
        2.38075        0.939463        0.456779 
        2.38689        0.936576        0.453918 
        2.39303        0.932053        0.451081 
        2.39916        0.927415        0.448272 
        2.40529        0.925756        0.445487 
        2.41143         0.91795        0.442724 
        2.41757        0.916131        0.439982 
         2.4237        0.911346         0.43727 
        2.42983         0.90656         0.43458 
        2.43598        0.903846        0.431906 
        2.44211        0.898555        0.429258 
        2.44823        0.895812        0.426639 
        2.45437        0.892362        0.424035 
        2.46052        0.888738         0.42145 
        2.46665        0.884487        0.418891 
        2.47279        0.880136        0.416354 
        2.47892        0.876421        0.413837 
        2.48507        0.874107        0.411338 
         2.4912        0.868751        0.408865 
