# k  (h/Mpc)    Pcb(k)  (Mpc/h)^3    Pcb_linear(k)  (Mpc/h)^3
     0.00783031         9534.43          9655.7 
       0.013688         11510.7         11443.9 
       0.019231         11174.9         11149.1 
      0.0249154         9746.63         9886.93 
      0.0312784         8110.95          8151.4 
      0.0375637         6653.75         6624.94 
      0.0433917         5525.61         5566.54 
      0.0492413         4857.07         4851.94 
      0.0555754          4300.8         4373.61 
      0.0619321         4100.57         4064.29 
       0.067871         3760.26         3814.71 
      0.0738098         3480.93         3530.79 
      0.0800417         3106.28         3172.33 
      0.0862327         2756.05         2779.33 
      0.0921407         2433.85          2415.5 
      0.0982031         2106.61         2096.01 
       0.104506            1911          1846.3 
       0.110769         1741.94         1681.73 
       0.116806         1630.58         1584.69 
       0.122832          1568.7          1522.4 
       0.129052         1479.79         1466.42 
       0.135211         1412.49         1397.79 
       0.141259         1342.79         1308.52 
       0.147318         1248.07         1200.93 
       0.153489         1126.98         1084.94 
       0.159709         1038.61         976.254 
       0.165845         970.571         887.867 
       0.171974         901.499          822.52 
       0.178125         856.961         778.059 
       0.184229         823.612         748.712 
        0.19034         777.384         726.067 
       0.196428         765.544         702.776 
       0.202534          741.77         673.775 
       0.208729         701.364         637.238 
       0.214876         660.118         595.982 
       0.220989         629.875         554.012 
       0.227147         592.716         514.969 
        0.23329         562.959         482.175 
       0.239377          546.39         456.756 
       0.245482         509.377         437.561 
       0.251667         504.769         422.564 
       0.257832         488.098         409.572 
       0.263955         471.885         396.381 
       0.270079         453.667         381.575 
        0.27624         446.318         364.773 
       0.282372         427.732         346.808 
        0.28843         412.957          329.03 
       0.294538         392.175         312.241 
       0.300721         387.158         297.308 
        0.30691         368.719         284.712 
       0.313033         360.595          274.37 
       0.319153         347.447         265.514 
       0.325316          338.48         257.366 
        0.33145         327.591         249.336 
       0.337538         322.716         241.067 
       0.343633         311.708         232.358 
       0.349808         301.092         223.311 
       0.355968         296.529         214.368 
       0.362074         289.433         205.955 
       0.368217         281.221         198.204 
       0.374374         270.469         191.241 
       0.380519         266.952         185.063 
       0.386598         260.049         179.515 
       0.392688         256.907         174.317 
        0.39888         250.001         169.195 
       0.405048         243.998         164.101 
       0.411186         238.825         159.015 
       0.417313          233.94         153.945 
       0.423458         229.068         148.951 
       0.429607         224.062         144.161 
       0.435692         217.516         139.694 
       0.441815         215.704         135.499 
       0.447964         211.415         131.596 
       0.454126          203.37          127.94 
       0.460267         200.738         124.478 
       0.466387         198.146         121.152 
        0.47254         193.736          117.89 
       0.478662         192.713         114.694 
       0.484765          186.31         111.561 
       0.490885         183.742         108.501 
       0.497035         180.993         105.531 
       0.503198          176.64         102.677 
       0.509342          174.44         99.9662 
       0.515458         171.864         97.4073 
       0.521598         168.726         94.9614 
       0.527764         166.483         92.6057 
       0.533884          164.14         90.3471 
           0.54         161.364         88.1575 
       0.546137          160.21         86.0196 
       0.552299         157.117         83.9265 
       0.558452          154.86         81.8904 
       0.564573         152.352          79.925 
       0.570708         149.459         78.0234 
       0.576825         147.693         76.1993 
       0.582926         145.059         74.4493 
       0.589034         143.389         72.7598 
       0.595184         141.624         71.1168 
       0.601379         139.795          69.516 
       0.607522         136.979         67.9774 
       0.613639         136.225         66.4899 
       0.619772         133.375         65.0392 
       0.625918         131.951         63.6241 
       0.632068         130.399         62.2471 
       0.638161         129.283         60.9221 
         0.6443         127.528         59.6281 
       0.650464         126.185         58.3704 
       0.656582         124.346         57.1617 
       0.662703         122.866         55.9893 
       0.668861         120.894         54.8443 
       0.675024         119.556         53.7302 
       0.681124         118.756         52.6572 
       0.687237         116.599         51.6103 
       0.693381         114.984         50.5863 
       0.699536         114.157         49.5881 
       0.705665         114.032         48.6214 
       0.711789         111.432         47.6819 
       0.717957         111.127         46.7616 
        0.72409         109.371         45.8713 
       0.730186         107.726         45.0099 
       0.736317         107.084         44.1662 
       0.742472          106.29         43.3413 
       0.748622         105.171         42.5382 
        0.75476         104.205         41.7572 
       0.760888         102.736          40.997 
       0.767043         102.126         40.2529 
       0.773185         100.993          39.529 
       0.779291         99.5747         38.8272 
       0.785407         99.0157         38.1416 
       0.791564         98.2097         37.4685 
       0.797719         96.4636         36.8122 
       0.803834         96.0448          36.176 
       0.809972         94.8697         35.5527 
       0.816124         94.4672         34.9429 
       0.822261         93.5716          34.349 
       0.828378         92.7536         33.7709 
       0.834502          92.145         33.2056 
       0.840667          90.956         32.6497 
       0.846816         89.8819         32.1081 
       0.852925          89.341         31.5822 
       0.859047         88.1932         31.0671 
       0.865192         87.7107         30.5619 
       0.871341         87.0209         30.0677 
       0.877463         85.9222         29.5867 
       0.883569         85.4708         29.1176 
       0.889708         84.7818         28.6562 
       0.895864         84.0935         28.2038 
       0.902008         83.3719         27.7622 
       0.908149         82.9056         27.3303 
       0.914301         82.0597         26.9071 
       0.920448         81.4593         26.4932 
       0.926574         80.7863         26.0895 
       0.932687         80.6708         25.6952 
       0.938823         79.3713         25.3076 
       0.944975         78.6409         24.9272 
       0.951105         78.1871          24.556 
       0.957225         77.3271          24.193 
       0.963368         76.8844         23.8362 
       0.969511         76.6626         23.4867 
       0.975621         76.2195         23.1461 
       0.981748         75.4743         22.8114 
       0.987916         74.8101         22.4812 
        0.99406         74.2853         22.1589 
        1.00019         73.7657         21.8436 
        1.00632          73.222         21.5347 
        1.01246         72.7291         21.2314 
        1.01859         71.8007         20.9345 
        1.02471         71.7021         20.6436 
        1.03085         71.0349         20.3574 
        1.03698         70.6798         20.0771 
        1.04314          70.021          19.801 
        1.04929         69.5474         19.5308 
        1.05541         68.8956         19.2668 
        1.06154         68.8205          19.007 
        1.06769         68.3741         18.7516 
        1.07382         68.0133         18.5017 
        1.07993         67.5065         18.2571 
        1.08607         66.9791         18.0158 
        1.09222         66.6846         17.7787 
        1.09836         66.1233         17.5462 
        1.10449         65.8102         17.3181 
        1.11063         65.2384         17.0938 
        1.11677         64.9059         16.8736 
         1.1229         64.2844         16.6577 
        1.12903         63.6446         16.4454 
        1.13518         63.8806         16.2366 
        1.14131          63.374         16.0316 
        1.14745          62.719         15.8302 
        1.15359         62.4977         15.6323 
        1.15973         61.9738         15.4377 
        1.16584         61.6024         15.2473 
        1.17197         61.2637         15.0598 
        1.17811         60.9536         14.8749 
        1.18424         60.4459         14.6937 
        1.19038         60.0892          14.515 
        1.19652          59.895         14.3394 
        1.20267         59.2892         14.1667 
        1.20881         59.0723         13.9968 
        1.21495          58.606         13.8301 
        1.22108         58.4086          13.666 
         1.2272          57.762         13.5051 
        1.23334         57.5864         13.3464 
        1.23949         57.4006         13.1898 
        1.24562         56.9232         13.0363 
        1.25174         56.6968         12.8854 
        1.25789         56.4693         12.7365 
        1.26402         56.0495         12.5901 
        1.27014         55.5814         12.4465 
        1.27628          55.329         12.3047 
        1.28244         54.9921         12.1648 
        1.28858         54.7582         12.0273 
        1.29471         54.5236         11.8922 
        1.30084         54.2134         11.7594 
        1.30697         53.8608         11.6284 
        1.31312         53.4985         11.4992 
        1.31925         53.3097         11.3724 
        1.32537         53.1072         11.2476 
        1.33151         52.5589         11.1242 
        1.33765         52.3908         11.0028 
        1.34378         52.0842         10.8834 
        1.34992         51.8114         10.7658 
        1.35606           51.54         10.6496 
         1.3622         51.1795         10.5353 
        1.36833         50.9781          10.423 
        1.37445         50.7795         10.3124 
        1.38059         50.3737         10.2031 
        1.38675         50.1033         10.0951 
        1.39288         49.8848         9.98911 
        1.39901         49.6965         9.88469 
        1.40515         49.3667         9.78152 
         1.4113         49.1864         9.67988 
        1.41742         49.0137         9.58007 
        1.42355         48.5819         9.48148 
         1.4297          48.452         9.38398 
        1.43585         48.1638          9.2879 
        1.44198         47.8732         9.19354 
        1.44809         47.7299         9.10066 
        1.45423         47.4616         9.00874 
        1.46036          47.303         8.91825 
        1.46649         47.0261         8.82897 
        1.47263         46.6981         8.74086 
        1.47877         46.5223         8.65398 
        1.48491         46.4715         8.56816 
        1.49104         46.0506         8.48368 
        1.49718         45.6175         8.40029 
        1.50333         45.6092         8.31789 
        1.50947         45.4292         8.23676 
         1.5156         45.1149         8.15684 
        1.52172         45.0144         8.07798 
        1.52787         44.8758         8.00002 
          1.534           44.55         7.92317 
        1.54013         44.3008         7.84742 
        1.54627         44.1731         7.77253 
        1.55241         43.7799         7.69861 
        1.55855           43.68         7.62575 
        1.56467         43.2991         7.55404 
         1.5708         43.3478         7.48305 
        1.57695          43.088         7.41287 
        1.58308         42.8084         7.34376 
        1.58922         42.7981         7.27548 
        1.59535         42.5986          7.2081 
         1.6015         42.1995         7.14148 
        1.60764          42.004         7.07573 
        1.61376          41.822           7.011 
        1.61989         41.6096         6.94702 
        1.62604           41.49          6.8837 
        1.63218         41.4024         6.82121 
        1.63831         41.1284         6.75964 
        1.64444          40.909         6.69881 
        1.65059         40.6939         6.63858 
        1.65673         40.5073         6.57916 
        1.66285         40.2784         6.52063 
        1.66898         40.1052          6.4628 
        1.67512         39.9141         6.40556 
        1.68127         39.7141         6.34896 
         1.6874         39.5881         6.29317 
        1.69353         39.3572         6.23809 
        1.69967         39.1715         6.18354 
        1.70581         39.1362         6.12966 
        1.71193         38.9472         6.07664 
        1.71806         38.5705         6.02412 
        1.72421         38.4902         5.97213 
        1.73035          38.323         5.92081 
        1.73649         38.0015         5.87011 
        1.74262         37.9678         5.82004 
        1.74876          37.861         5.77052 
        1.75489         37.6439         5.72169 
        1.76101          37.486         5.67343 
        1.76715         37.3263         5.62567 
        1.77329         37.1789          5.5784 
        1.77943         37.0001         5.53165 
        1.78557         36.8009         5.48551 
        1.79171         36.6291         5.43989 
        1.79785         36.4486         5.39478 
        1.80399         36.4038         5.35019 
        1.81012         36.1557         5.30617 
        1.81625         35.9379         5.26266 
        1.82239         35.8606         5.21958 
        1.82853          35.624           5.177 
        1.83466         35.5125         5.13493 
        1.84078         35.2435         5.09339 
        1.84692         35.1674         5.05223 
        1.85306         34.9856         5.01148 
         1.8592         34.8043         4.97124 
        1.86533         34.7173         4.93147 
        1.87147         34.6107         4.89209 
        1.87761         34.4768         4.85312 
        1.88375         34.2763         4.81462 
        1.88988         34.2135         4.77659 
        1.89601         34.0048         4.73894 
        1.90215         33.8649         4.70167 
        1.90829         33.7839         4.66481 
        1.91442         33.5739         4.62835 
        1.92056         33.4357         4.59231 
         1.9267         33.2488         4.55662 
        1.93284         33.0722         4.52129 
        1.93897         33.0282          4.4864 
        1.94509         32.8042         4.45195 
        1.95123         32.7259         4.41778 
        1.95737         32.5056         4.38394 
        1.96349         32.3939         4.35055 
        1.96964          32.306         4.31741 
        1.97578         32.1037          4.2846 
        1.98192         32.0012         4.25219 
        1.98805         31.9023         4.22012 
        1.99419          31.713         4.18838 
        2.00033         31.5736         4.15695 
        2.00647         31.4312         4.12585 
         2.0126         31.2991         4.09512 
        2.01874         31.2358         4.06466 
        2.02488         31.1093         4.03448 
        2.03101         30.9369         4.00467 
        2.03714         30.8052         3.97518 
        2.04328         30.6525         3.94596 
        2.04941         30.5451         3.91706 
        2.05554         30.3982         3.88846 
        2.06167         30.3078         3.86012 
        2.06781         30.1297         3.83205 
        2.07396         30.0515         3.80422 
        2.08009          29.969         3.77672 
        2.08622           29.75         3.74952 
        2.09237         29.6396         3.72254 
        2.09851         29.5119         3.69582 
        2.10464         29.4469          3.6694 
        2.11077         29.3046         3.64328 
        2.11691         29.1765         3.61735 
        2.12305         29.0574         3.59167 
        2.12918         28.9824         3.56631 
        2.13531         28.8332         3.54119 
        2.14145         28.7603         3.51625 
         2.1476         28.5745         3.49152 
        2.15372         28.4475         3.46716 
        2.15985         28.3287           3.443 
        2.16599         28.3248         3.41901 
        2.17213         28.1903         3.39527 
        2.17827         27.9602         3.37176 
         2.1844         27.8721         3.34849 
        2.19054         27.7858         3.32544 
        2.19666         27.6741         3.30264 
         2.2028         27.5311         3.28003 
        2.20893         27.4735         3.25762 
        2.21508          27.369         3.23539 
        2.22122         27.1559         3.21337 
        2.22736         27.1422          3.1916 
        2.23349         27.0003         3.17003 
        2.23962         26.8659         3.14865 
        2.24577         26.7635         3.12745 
         2.2519         26.7059         3.10648 
        2.25802          26.535         3.08573 
        2.26417         26.4953         3.06511 
        2.27031         26.3801         3.04466 
        2.27644          26.215         3.02446 
        2.28257         26.1286         3.00445 
        2.28872         26.0251         2.98457 
        2.29486         25.9805         2.96489 
        2.30099         25.8228         2.94542 
        2.30712         25.7487         2.92611 
        2.31326         25.6959         2.90695 
         2.3194         25.5764         2.88797 
        2.32553         25.4093         2.86919 
        2.33166         25.3085         2.85058 
         2.3378          25.193         2.83212 
        2.34394         25.0945         2.81381 
        2.35007         25.0142         2.79569 
        2.35619         24.9101         2.77775 
        2.36233         24.8628         2.75993 
        2.36848         24.7171         2.74223 
        2.37462         24.6207         2.72472 
        2.38075          24.545         2.70738 
        2.38689         24.4834         2.69017 
        2.39303         24.3399         2.67312 
        2.39916         24.2196         2.65624 
        2.40529         24.1206          2.6395 
        2.41143         24.0552         2.62289 
        2.41757         23.9821         2.60642 
         2.4237         23.8339         2.59012 
        2.42983         23.7186         2.57397 
        2.43598         23.6652          2.5579 
        2.44211         23.5567         2.54201 
        2.44823         23.4642         2.52628 
        2.45437         23.3673         2.51064 
        2.46052         23.2731         2.49512 
        2.46665         23.2483         2.47976 
        2.47279          23.116         2.46454 
        2.47892         23.0185         2.44943 
        2.48507         22.9217         2.43444 
         2.4912         22.8798          2.4196 
