# k  (h/Mpc)    P(k)  (Mpc/h)^3    P_linear(k)  (Mpc/h)^3
     0.00783031         1377.57         1392.75 
       0.013688          1752.4         1754.61 
       0.019231         1810.77         1811.25 
      0.0249154         1693.36         1704.92 
      0.0312784         1497.56         1500.26 
      0.0375637         1293.43         1290.56 
      0.0433917         1125.27         1127.93 
      0.0492413         1006.88            1006 
      0.0555754         909.595         914.481 
      0.0619321         853.544          849.48 
       0.067871          794.32         797.768 
      0.0738098         739.965         743.891 
      0.0800417         674.225         680.066 
      0.0862327         608.442         611.031 
      0.0921407         545.256         545.572 
      0.0982031         483.684         485.195 
       0.104506         437.536         434.392 
       0.110769         400.041         397.315 
       0.116806         372.745         372.485 
       0.122832         356.685         354.836 
       0.129052          339.02         339.746 
       0.135211          323.19         324.156 
       0.141259         306.875         306.114 
       0.147318          287.25         285.154 
       0.153489         263.472         262.265 
       0.159709         242.067          239.87 
       0.165845         225.021         220.447 
       0.171974         207.734         204.845 
       0.178125         196.541          193.12 
       0.184229         188.477          184.64 
        0.19034         179.454         178.049 
       0.196428         174.904         172.025 
       0.202534         169.635         165.453 
       0.208729         160.943         157.698 
       0.214876         151.409             149 
       0.220989          144.22         139.907 
       0.227147         134.093         131.043 
        0.23329         126.598         123.145 
       0.239377         120.879         116.622 
       0.245482         114.435         111.411 
       0.251667         111.562         107.233 
       0.257832         107.851         103.742 
       0.263955         104.418          100.48 
       0.270079         100.945         97.0586 
        0.27624         98.0952         93.2856 
       0.282372         93.9756         89.2171 
        0.28843         89.4786         85.0682 
       0.294538          85.462          80.994 
       0.300721         82.6098         77.2061 
        0.30691         78.6689         73.8918 
       0.313033         76.0133         71.1036 
       0.319153         72.6223         68.7337 
       0.325316         71.5726          66.621 
        0.33145         69.1613         64.6385 
       0.337538          67.405          62.661 
       0.343633         65.0803         60.6038 
       0.349808         63.1044         58.4384 
       0.355968          61.058         56.2451 
       0.362074         58.8869         54.1207 
       0.368217         56.9843          52.104 
       0.374374         55.0272         50.2616 
       0.380519         53.5718          48.612 
       0.386598         52.1167         47.1483 
       0.392688         50.9895         45.8087 
        0.39888         49.5259         44.5185 
       0.405048         48.3731         43.2618 
       0.411186         47.1999         42.0102 
       0.417313          45.611          40.748 
       0.423458         44.4237         39.4871 
       0.429607         43.1277         38.2508 
       0.435692         41.7822         37.0763 
       0.441815         40.9515         35.9656 
       0.447964         40.1984         34.9298 
       0.454126         38.6645         33.9644 
       0.460267          37.937         33.0656 
       0.466387          36.832         32.2149 
        0.47254         36.2554         31.3857 
       0.478662         35.5764         30.5743 
       0.484765         34.5369         29.7772 
       0.490885         33.7197          28.989 
       0.497035          33.248         28.2124 
       0.503198         32.3516         27.4592 
       0.509342         31.5183         26.7416 
       0.515458         30.8217         26.0628 
       0.521598         30.2682         25.4148 
       0.527764         29.6004         24.7957 
       0.533884         29.0828         24.2083 
           0.54         28.4629         23.6419 
       0.546137         27.9699         23.0882 
       0.552299         27.4874         22.5432 
       0.558452         26.6365         22.0111 
       0.564573         26.2673         21.4951 
       0.570708         25.8011         20.9929 
       0.576825         25.1371         20.5084 
       0.582926         24.6911         20.0419 
       0.589034         24.0187         19.5925 
       0.595184         23.6935         19.1581 
       0.601379         23.2295         18.7369 
       0.607522         22.8462          18.333 
       0.613639         22.5893         17.9419 
       0.619772         21.9924         17.5593 
       0.625918         21.8468         17.1851 
       0.632068         21.4801         16.8204 
       0.638161          20.994         16.4691 
         0.6443         20.5683         16.1255 
       0.650464         20.1866          15.791 
       0.656582         20.0439         15.4688 
       0.662703         19.6672         15.1561 
       0.668861         19.2987         14.8509 
       0.675024         18.9393         14.5544 
       0.681124         18.6161         14.2693 
       0.687237         18.3191         13.9916 
       0.693381          18.123         13.7199 
       0.699536         17.6387         13.4546 
       0.705665         17.5129         13.1972 
       0.711789         17.1798         12.9463 
       0.717957         16.9238            12.7 
        0.72409         16.6539         12.4614 
       0.730186         16.4328         12.2305 
       0.736317         16.2492         12.0044 
       0.742472         15.9826         11.7836 
       0.748622          15.767         11.5687 
        0.75476         15.4551         11.3599 
       0.760888         15.2648         11.1567 
       0.767043           15.08         10.9577 
       0.773185         14.7838          10.764 
       0.779291         14.6886         10.5759 
       0.785407          14.476          10.392 
       0.791564         14.2285         10.2112 
       0.797719         13.9605         10.0347 
       0.803834         13.8972         9.86358 
       0.809972         13.7654         9.69582 
       0.816124         13.4542         9.53163 
       0.822261         13.2962         9.37174 
       0.828378         13.1401         9.21607 
       0.834502          13.021         9.06386 
       0.840667         12.8131         8.91415 
       0.846816         12.5887         8.76828 
       0.852925         12.4745         8.62663 
       0.859047         12.3273         8.48784 
       0.865192          12.217         8.35167 
       0.871341         12.0955         8.21841 
       0.877463         11.8902         8.08867 
       0.883569         11.7174         7.96206 
       0.889708         11.5318         7.83754 
       0.895864         11.4494         7.71536 
       0.902008         11.3413         7.59606 
       0.908149         11.2143         7.47937 
       0.914301         11.0819         7.36495 
       0.920448         10.8987         7.25304 
       0.926574         10.7841         7.14386 
       0.932687          10.683         7.03717 
       0.938823         10.5359         6.93228 
       0.944975         10.4041         6.82931 
       0.951105         10.3136          6.7288 
       0.957225         10.2466          6.6305 
       0.963368         10.1171         6.53384 
       0.969511          10.014         6.43912 
       0.975621         9.89541         6.34678 
       0.981748         9.78521         6.25603 
       0.987916         9.70478         6.16649 
        0.99406         9.55671         6.07904 
        1.00019         9.41364         5.99347 
        1.00632         9.39881         5.90963 
        1.01246         9.28783         5.82727 
        1.01859         9.15281         5.74663 
        1.02471         9.08793         5.66761 
        1.03085         8.99603         5.58982 
        1.03698         8.86774         5.51365 
        1.04314         8.81066         5.43859 
        1.04929         8.69455         5.36511 
        1.05541         8.59925         5.29328 
        1.06154         8.53353         5.22259 
        1.06769         8.49204          5.1531 
        1.07382         8.35823          5.0851 
        1.07993         8.28435         5.01849 
        1.08607          8.2238          4.9528 
        1.09222         8.14354         4.88822 
        1.09836         8.05671         4.82488 
        1.10449         7.98127         4.76274 
        1.11063         7.90645         4.70163 
        1.11677         7.85501         4.64162 
         1.1229         7.78976         4.58276 
        1.12903         7.69944         4.52487 
        1.13518         7.61239         4.46794 
        1.14131         7.53923         4.41203 
        1.14745         7.46267         4.35711 
        1.15359          7.4196         4.30311 
        1.15973         7.35078         4.25001 
        1.16584          7.2522         4.19805 
        1.17197         7.20123         4.14688 
        1.17811         7.16403         4.09642 
        1.18424         7.10193         4.04694 
        1.19038         7.06156         3.99814 
        1.19652         6.98256         3.95016 
        1.20267         6.90469         3.90298 
        1.20881         6.87845         3.85657 
        1.21495         6.81649           3.811 
        1.22108         6.73895         3.76617 
         1.2272         6.70273         3.72217 
        1.23334         6.61881         3.67877 
        1.23949          6.5651         3.63596 
        1.24562          6.5341         3.59395 
        1.25174         6.46805         3.55267 
        1.25789         6.42388         3.51192 
        1.26402         6.38018         3.47188 
        1.27014         6.32363         3.43256 
        1.27628         6.26231         3.39373 
        1.28244         6.19521         3.35544 
        1.28858         6.18473         3.31778 
        1.29471         6.11372         3.28079 
        1.30084         6.05677          3.2444 
        1.30697         6.05728          3.2085 
        1.31312         5.94612          3.1731 
        1.31925         5.91902         3.13834 
        1.32537         5.87292         3.10414 
        1.33151          5.8511         3.07033 
        1.33765         5.77942         3.03705 
        1.34378         5.73846         3.00432 
        1.34992         5.71095         2.97205 
        1.35606         5.64904         2.94019 
         1.3622         5.62283         2.90886 
        1.36833         5.57778         2.87805 
        1.37445         5.53996         2.84771 
        1.38059         5.51918         2.81772 
        1.38675         5.47182         2.78808 
        1.39288         5.43167         2.75899 
        1.39901          5.3729         2.73033 
        1.40515          5.3444         2.70201 
         1.4113         5.30909         2.67411 
        1.41742         5.27351         2.64671 
        1.42355         5.22659         2.61964 
         1.4297         5.18885         2.59287 
        1.43585         5.16936         2.56648 
        1.44198         5.14562         2.54056 
        1.44809          5.0902         2.51505 
        1.45423         5.05212          2.4898 
        1.46036         5.01457         2.46493 
        1.46649         4.97973          2.4404 
        1.47263         4.94233         2.41619 
        1.47877         4.90724         2.39231 
        1.48491         4.87836         2.36872 
        1.49104         4.85099          2.3455 
        1.49718         4.81898         2.32257 
        1.50333         4.79161         2.29991 
        1.50947         4.75354          2.2776 
         1.5156         4.72434         2.25562 
        1.52172          4.6972         2.23393 
        1.52787            4.67         2.21248 
          1.534          4.6301         2.19134 
        1.54013         4.61135         2.17049 
        1.54627         4.56631         2.14988 
        1.55241         4.53975         2.12954 
        1.55855         4.52216         2.10948 
        1.56467         4.48925         2.08974 
         1.5708         4.46181          2.0702 
        1.57695         4.42391         2.05088 
        1.58308         4.39342         2.03185 
        1.58922         4.38265         2.01305 
        1.59535         4.35527         1.99449 
         1.6015         4.32154         1.97614 
        1.60764         4.29405         1.95803 
        1.61376          4.2715          1.9402 
        1.61989         4.24722         1.92258 
        1.62604         4.21528         1.90514 
        1.63218         4.20528         1.88792 
        1.63831         4.17427         1.87095 
        1.64444         4.14915         1.85419 
        1.65059         4.11048          1.8376 
        1.65673         4.10284         1.82122 
        1.66285         4.06512         1.80509 
        1.66898         4.04733         1.78915 
        1.67512         4.01928         1.77338 
        1.68127         3.99763         1.75777 
         1.6874          3.9845          1.7424 
        1.69353         3.94468         1.72721 
        1.69967         3.93036         1.71217 
        1.70581         3.91153         1.69731 
        1.71193         3.88809         1.68269 
        1.71806          3.8697         1.66821 
        1.72421         3.84451         1.65387 
        1.73035         3.82878         1.63972 
        1.73649         3.80159         1.62573 
        1.74262         3.77681         1.61192 
        1.74876         3.76739         1.59825 
        1.75489         3.74457         1.58478 
        1.76101         3.71275         1.57146 
        1.76715         3.70155         1.55828 
        1.77329         3.68511         1.54524 
        1.77943          3.6483         1.53233 
        1.78557         3.64129          1.5196 
        1.79171         3.61999           1.507 
        1.79785         3.59815         1.49455 
        1.80399         3.57846         1.48224 
        1.81012         3.56425         1.47009 
        1.81625         3.54158         1.45807 
        1.82239         3.52234         1.44618 
        1.82853         3.50131         1.43442 
        1.83466         3.49305          1.4228 
        1.84078         3.47305         1.41133 
        1.84692         3.45968         1.39996 
        1.85306         3.42953          1.3887 
         1.8592         3.41071         1.37759 
        1.86533         3.39618          1.3666 
        1.87147         3.38453         1.35572 
        1.87761         3.36284         1.34496 
        1.88375         3.34477         1.33432 
        1.88988         3.32565         1.32381 
        1.89601          3.3123         1.31341 
        1.90215         3.29478         1.30311 
        1.90829         3.27293         1.29292 
        1.91442          3.2636         1.28285 
        1.92056         3.24088         1.27289 
         1.9267         3.22975         1.26303 
        1.93284         3.21559         1.25326 
        1.93897         3.19951         1.24362 
        1.94509         3.17687          1.2341 
        1.95123         3.16191         1.22465 
        1.95737         3.14367          1.2153 
        1.96349         3.13512         1.20606 
        1.96964         3.12575          1.1969 
        1.97578         3.10005         1.18783 
        1.98192         3.09081         1.17887 
        1.98805         3.07764            1.17 
        1.99419         3.06174         1.16122 
        2.00033         3.05217         1.15253 
        2.00647         3.03225         1.14393 
         2.0126         3.02241         1.13543 
        2.01874         2.99799         1.12701 
        2.02488         2.99145         1.11866 
        2.03101         2.96822         1.11041 
        2.03714         2.95872         1.10226 
        2.04328         2.94612         1.09417 
        2.04941         2.92438         1.08618 
        2.05554          2.9187         1.07827 
        2.06167         2.90742         1.07042 
        2.06781         2.89374         1.06266 
        2.07396         2.88285         1.05496 
        2.08009         2.86752         1.04735 
        2.08622         2.85016         1.03982 
        2.09237         2.84252         1.03235 
        2.09851         2.82789         1.02496 
        2.10464         2.81906         1.01765 
        2.11077         2.80269         1.01042 
        2.11691         2.79066         1.00324 
        2.12305         2.78113        0.996134 
        2.12918         2.77219        0.989113 
        2.13531         2.75785        0.982158 
        2.14145         2.74452        0.975255 
         2.1476         2.72794        0.968409 
        2.15372         2.71757        0.961664 
        2.15985         2.70763        0.954976 
        2.16599          2.6964        0.948332 
        2.17213         2.67912        0.941759 
        2.17827         2.67235        0.935249 
         2.1844         2.66004        0.928807 
        2.19054          2.6521        0.922423 
        2.19666         2.63677        0.916108 
         2.2028         2.62463        0.909847 
        2.20893         2.61575        0.903641 
        2.21508         2.60185        0.897485 
        2.22122         2.59073        0.891385 
        2.22736         2.57989        0.885355 
        2.23349         2.57342        0.879381 
        2.23962         2.55826         0.87346 
        2.24577         2.54981        0.867588 
         2.2519         2.53906        0.861778 
        2.25802          2.5309         0.85603 
        2.26417         2.52082        0.850319 
        2.27031         2.50769        0.844654 
        2.27644          2.4994        0.839058 
        2.28257         2.48576        0.833512 
        2.28872         2.47962        0.828007 
        2.29486         2.46622        0.822552 
        2.30099         2.45615        0.817157 
        2.30712         2.44388        0.811808 
        2.31326         2.43742        0.806497 
         2.3194         2.42752        0.801238 
        2.32553         2.41712        0.796034 
        2.33166         2.40977        0.790878 
         2.3378         2.39933        0.785761 
        2.34394         2.38922        0.780687 
        2.35007         2.37838        0.775666 
        2.35619         2.37359        0.770694 
        2.36233         2.36232        0.765755 
        2.36848         2.35092        0.760848 
        2.37462         2.34467        0.755995 
        2.38075         2.33325        0.751188 
        2.38689         2.32692         0.74642 
        2.39303         2.31631        0.741693 
        2.39916         2.30751        0.737013 
        2.40529         2.29846        0.732373 
        2.41143         2.28888        0.727769 
        2.41757          2.2797        0.723203 
         2.4237         2.27396        0.718685 
        2.42983         2.25643        0.714206 
        2.43598         2.25885        0.709752 
        2.44211         2.24376        0.705345 
        2.44823         2.23938        0.700984 
        2.45437         2.22788        0.696648 
        2.46052         2.22228        0.692346 
        2.46665         2.21439        0.688087 
        2.47279         2.20399        0.683865 
        2.47892         2.19745        0.679676 
        2.48507         2.18952        0.675518 
         2.4912          2.1759        0.671402 
