# k  (h/Mpc)    P(k)  (Mpc/h)^3    P_linear(k)  (Mpc/h)^3
     0.00783031         15575.9         15799.3 
       0.013688         20071.3           19886 
       0.019231         20536.1         20518.2 
      0.0249154         18860.8           19308 
      0.0312784         16744.8         16986.6 
      0.0375637         14557.8         14610.3 
      0.0433917         12479.8           12768 
      0.0492413         11256.9         11386.9 
      0.0555754         9970.25         10350.5 
      0.0619321         9574.43         9614.34 
       0.067871         8707.21         9028.77 
      0.0738098         8112.63         8418.78 
      0.0800417         7318.82         7696.29 
      0.0862327          6672.3         6914.88 
      0.0921407         6085.75         6174.01 
      0.0982031         5405.47         5490.68 
       0.104506         5022.97         4915.71 
       0.110769          4607.9         4496.08 
       0.116806         4318.28         4215.07 
       0.122832         4114.72         4015.32 
       0.129052         3840.03         3844.55 
       0.135211          3667.8          3668.1 
       0.141259          3529.6         3463.92 
       0.147318         3335.48         3226.73 
       0.153489         3056.47         2967.71 
       0.159709         2881.14         2714.29 
       0.165845         2760.14         2494.49 
       0.171974         2594.12         2317.94 
       0.178125         2462.79         2185.26 
       0.184229         2353.79          2089.3 
        0.19034         2235.61         2014.72 
       0.196428         2197.16         1946.55 
       0.202534          2118.1         1872.18 
       0.208729         2028.58         1784.42 
       0.214876          1948.5            1686 
       0.220989          1881.2          1583.1 
       0.227147         1799.63          1482.8 
        0.23329         1726.77         1393.43 
       0.239377          1699.7         1319.61 
       0.245482         1595.61         1260.65 
       0.251667         1587.73         1213.38 
       0.257832         1526.23         1173.88 
       0.263955         1477.86         1136.96 
       0.270079         1429.31         1098.25 
        0.27624          1413.9         1055.55 
       0.282372         1355.22         1009.52 
        0.28843         1349.06         962.569 
       0.294538         1283.21         916.468 
       0.300721         1275.13         873.606 
        0.30691         1226.54         836.104 
       0.313033         1202.28         804.553 
       0.319153         1183.97         777.738 
       0.325316            1145         753.832 
        0.33145         1120.58         731.398 
       0.337538         1100.95         709.023 
       0.343633         1077.73         685.745 
       0.349808         1042.64         661.243 
       0.355968         1035.19         636.425 
       0.362074         1025.47         612.386 
       0.368217         993.294         589.566 
       0.374374         957.412         568.719 
       0.380519         959.163         550.054 
       0.386598         932.518         533.492 
       0.392688         929.121         518.333 
        0.39888         902.503         503.734 
       0.405048         892.056         489.514 
       0.411186         879.537         475.352 
       0.417313         861.036          461.07 
       0.423458         846.626         446.802 
       0.429607         835.822         432.814 
       0.435692         819.097         419.524 
       0.441815         812.521         406.956 
       0.447964         795.468         395.236 
       0.454126         788.802         384.313 
       0.460267         769.707         374.142 
       0.466387         760.306         364.516 
        0.47254         755.974         355.133 
       0.478662         748.095         345.953 
       0.484765         727.137         336.933 
       0.490885         722.744         328.014 
       0.497035         707.525         319.227 
       0.503198          703.44         310.705 
       0.509342         695.723         302.584 
       0.515458         692.072         294.904 
       0.521598         675.186         287.572 
       0.527764         662.821         280.566 
       0.533884         661.329          273.92 
           0.54         654.607         267.511 
       0.546137         648.899         261.246 
       0.552299         640.168         255.079 
       0.558452         635.391         249.058 
       0.564573         627.027          243.22 
       0.570708         620.408         237.538 
       0.576825         603.629         232.054 
       0.582926         606.493         226.777 
       0.589034          600.46         221.691 
       0.595184         594.959         216.776 
       0.601379         586.585          212.01 
       0.607522         578.326         207.439 
       0.613639         578.695         203.015 
       0.619772          566.18         198.685 
       0.625918         562.829         194.451 
       0.632068         555.597         190.325 
       0.638161         553.518          186.35 
         0.6443         543.695         182.462 
       0.650464         541.849         178.677 
       0.656582         537.579         175.031 
       0.662703         535.358         171.493 
       0.668861         526.225         168.039 
       0.675024         522.032         164.684 
       0.681124         518.535         161.459 
       0.687237         514.305         158.316 
       0.693381         507.607         155.241 
       0.699536           499.5         152.241 
       0.705665          499.28         149.327 
       0.711789         496.279         146.489 
       0.717957         491.699         143.702 
        0.72409          489.02         141.002 
       0.730186         481.849         138.389 
       0.736317         478.982         135.831 
       0.742472          476.38         133.332 
       0.748622         471.108         130.901 
        0.75476         464.315         128.539 
       0.760888         460.166         126.239 
       0.767043         460.353         123.988 
       0.773185          455.65         121.795 
       0.779291         450.754         119.667 
       0.785407         447.591         117.586 
       0.791564         442.603          115.54 
       0.797719         440.582         113.544 
       0.803834         435.903         111.607 
       0.809972         434.559         109.709 
       0.816124         433.355         107.851 
       0.822261         427.061         106.042 
       0.828378         424.918         104.281 
       0.834502         420.194         102.558 
       0.840667          417.05         100.864 
       0.846816         415.183         99.2138 
       0.852925         411.987         97.6111 
       0.859047         410.372         96.0406 
       0.865192         405.206         94.4998 
       0.871341         401.856         92.9919 
       0.877463         401.456         91.5239 
       0.883569         397.525         90.0914 
       0.889708         394.897         88.6823 
       0.895864         393.026         87.2999 
       0.902008         389.572           85.95 
       0.908149         385.224         84.6296 
       0.914301         382.914         83.3349 
       0.920448         380.919         82.0687 
       0.926574         375.159         80.8333 
       0.932687         375.135         79.6261 
       0.938823         371.236         78.4393 
       0.944975         371.357         77.2741 
       0.951105         366.825         76.1369 
       0.957225         364.502         75.0246 
       0.963368         360.439         73.9309 
       0.969511         359.354         72.8591 
       0.975621         357.037         71.8143 
       0.981748         355.135         70.7874 
       0.987916         353.017         69.7743 
        0.99406         347.287         68.7848 
        1.00019         346.202         67.8165 
        1.00632         344.654         66.8679 
        1.01246         341.714          65.936 
        1.01859         342.026         65.0235 
        1.02471         336.831         64.1294 
        1.03085         335.385         63.2492 
        1.03698         334.078         62.3874 
        1.04314         330.976          61.538 
        1.04929         327.745         60.7065 
        1.05541         328.614         59.8938 
        1.06154         323.002          59.094 
        1.06769         322.012         58.3077 
        1.07382         319.738         57.5382 
        1.07993         317.905         56.7845 
        1.08607          316.88         56.0412 
        1.09222          313.61         55.3106 
        1.09836         311.609         54.5939 
        1.10449         308.971         53.8907 
        1.11063         305.674         53.1992 
        1.11677         306.059         52.5202 
         1.1229         303.722         51.8542 
        1.12903         301.578         51.1992 
        1.13518         298.684         50.5551 
        1.14131         297.293         49.9224 
        1.14745         295.653         49.3009 
        1.15359         293.668           48.69 
        1.15973         291.717         48.0891 
        1.16584         289.563         47.5012 
        1.17197         289.365         46.9223 
        1.17811         285.899         46.3512 
        1.18424         283.814         45.7914 
        1.19038         282.899         45.2392 
        1.19652         280.594         44.6964 
        1.20267         279.638         44.1624 
        1.20881           277.7         43.6374 
        1.21495         275.516         43.1217 
        1.22108          273.97         42.6144 
         1.2272         272.281         42.1165 
        1.23334         270.686         41.6255 
        1.23949          268.56         41.1411 
        1.24562         267.622         40.6658 
        1.25174         265.661         40.1987 
        1.25789         263.429         39.7376 
        1.26402         261.493         39.2845 
        1.27014         259.973         38.8396 
        1.27628         258.541         38.4003 
        1.28244         258.178          37.967 
        1.28858         255.472         37.5409 
        1.29471         253.905         37.1223 
        1.30084         252.247         36.7105 
        1.30697         250.892         36.3044 
        1.31312          248.29         35.9038 
        1.31925         247.477         35.5105 
        1.32537         246.617         35.1236 
        1.33151         244.224          34.741 
        1.33765         242.401         34.3643 
        1.34378         241.669          33.994 
        1.34992         240.219         33.6289 
        1.35606         239.526         33.2684 
         1.3622         237.244         32.9139 
        1.36833         235.375         32.5653 
        1.37445         234.338          32.222 
        1.38059         232.308         31.8826 
        1.38675         231.413         31.5473 
        1.39288         230.047         31.2181 
        1.39901         229.129         30.8939 
        1.40515         227.354         30.5734 
         1.4113         226.061         30.2577 
        1.41742         224.283         29.9476 
        1.42355         223.328         29.6413 
         1.4297         221.399         29.3384 
        1.43585         220.319         29.0398 
        1.44198         219.293         28.7466 
        1.44809         217.792         28.4579 
        1.45423         216.592         28.1722 
        1.46036         215.316         27.8909 
        1.46649          213.69         27.6133 
        1.47263         212.541         27.3393 
        1.47877         211.093         27.0691 
        1.48491         209.315         26.8022 
        1.49104         208.666         26.5394 
        1.49718         206.962           26.28 
        1.50333         206.205         26.0236 
        1.50947         204.869         25.7712 
         1.5156         203.043         25.5224 
        1.52172         202.361          25.277 
        1.52787         200.628         25.0343 
          1.534         200.161         24.7951 
        1.54013         198.383         24.5592 
        1.54627         197.415          24.326 
        1.55241         196.158         24.0958 
        1.55855         194.718         23.8689 
        1.56467         193.728         23.6456 
         1.5708         193.039         23.4244 
        1.57695          191.71         23.2058 
        1.58308         190.543         22.9905 
        1.58922         188.806         22.7777 
        1.59535         187.518         22.5678 
         1.6015         186.935         22.3602 
        1.60764         185.738         22.1553 
        1.61376         184.724         21.9535 
        1.61989         183.757         21.7541 
        1.62604         182.478         21.5567 
        1.63218         181.487         21.3619 
        1.63831         180.119         21.1699 
        1.64444         179.402         20.9803 
        1.65059         178.264         20.7925 
        1.65673         177.016         20.6072 
        1.66285         175.861         20.4247 
        1.66898         174.868         20.2443 
        1.67512          174.46         20.0658 
        1.68127         172.507         19.8893 
         1.6874         171.815         19.7153 
        1.69353         170.724         19.5435 
        1.69967         169.455         19.3733 
        1.70581         168.796         19.2052 
        1.71193         167.529         19.0397 
        1.71806         166.932         18.8759 
        1.72421         165.656         18.7136 
        1.73035         164.969         18.5534 
        1.73649         164.002         18.3952 
        1.74262         162.929         18.2389 
        1.74876         161.835         18.0843 
        1.75489         161.031         17.9318 
        1.76101         159.645         17.7812 
        1.76715         159.288          17.632 
        1.77329         158.195         17.4844 
        1.77943         157.467         17.3384 
        1.78557         156.503         17.1943 
        1.79171         155.687         17.0518 
        1.79785         154.515         16.9109 
        1.80399         153.645         16.7716 
        1.81012         152.717         16.6341 
        1.81625         152.184         16.4982 
        1.82239         150.957         16.3636 
        1.82853         150.463         16.2305 
        1.83466         149.284         16.0991 
        1.84078         148.656         15.9692 
        1.84692         147.245         15.8406 
        1.85306         147.004         15.7132 
         1.8592          145.96         15.5875 
        1.86533         145.227         15.4632 
        1.87147         144.076         15.3401 
        1.87761          143.31         15.2182 
        1.88375         142.289         15.0979 
        1.88988         141.321          14.979 
        1.89601         141.024         14.8613 
        1.90215         139.923         14.7447 
        1.90829         139.194         14.6295 
        1.91442         138.477         14.5155 
        1.92056          137.66         14.4028 
         1.9267         136.878         14.2912 
        1.93284         135.886         14.1807 
        1.93897         135.386         14.0716 
        1.94509         134.615         13.9638 
        1.95123          133.97          13.857 
        1.95737         133.168         13.7511 
        1.96349         132.385         13.6467 
        1.96964         131.373          13.543 
        1.97578         130.641         13.4403 
        1.98192         130.111          13.339 
        1.98805         129.274         13.2386 
        1.99419         128.519         13.1393 
        2.00033         127.815         13.0409 
        2.00647         127.181         12.9436 
         2.0126         126.106         12.8475 
        2.01874         125.602         12.7521 
        2.02488         125.213         12.6577 
        2.03101         123.922         12.5644 
        2.03714         123.597         12.4721 
        2.04328         122.629         12.3806 
        2.04941         122.211         12.2901 
        2.05554         121.281         12.2006 
        2.06167         120.893         12.1119 
        2.06781         120.047          12.024 
        2.07396         119.361         11.9369 
        2.08009         118.815         11.8508 
        2.08622         117.908         11.7656 
        2.09237         117.394         11.6811 
        2.09851         116.761         11.5974 
        2.10464          116.36         11.5147 
        2.11077         115.579         11.4329 
        2.11691         114.997         11.3517 
        2.12305         114.156         11.2713 
        2.12918         113.449         11.1918 
        2.13531         112.959         11.1131 
        2.14145         112.181          11.035 
         2.1476         111.303         10.9576 
        2.15372         111.208         10.8812 
        2.15985          110.62         10.8056 
        2.16599         109.717         10.7304 
        2.17213         109.181          10.656 
        2.17827         108.616         10.5824 
         2.1844         107.826         10.5095 
        2.19054         107.479         10.4372 
        2.19666         106.793         10.3658 
         2.2028          106.12         10.2949 
        2.20893         105.771         10.2247 
        2.21508         105.024         10.1551 
        2.22122          104.48          10.086 
        2.22736         103.947         10.0178 
        2.23349          103.42         9.95022 
        2.23962         102.785         9.88322 
        2.24577         102.244         9.81677 
         2.2519         101.882         9.75103 
        2.25802         100.935           9.686 
        2.26417         100.626         9.62137 
        2.27031          99.899         9.55728 
        2.27644         99.4911         9.49396 
        2.28257         98.7863         9.43121 
        2.28872         98.4489         9.36891 
        2.29486         97.7791         9.30719 
        2.30099          97.285         9.24614 
        2.30712         96.7519         9.18562 
        2.31326         96.1517         9.12553 
         2.3194         95.6792         9.06602 
        2.32553         95.1888         9.00713 
        2.33166         94.6747          8.9488 
         2.3378         94.3166          8.8909 
        2.34394         93.7544         8.83349 
        2.35007         93.0978         8.77667 
        2.35619         92.7654         8.72042 
        2.36233         92.2166         8.66452 
        2.36848         91.6614         8.60901 
        2.37462         91.3223         8.55409 
        2.38075         90.6323         8.49971 
        2.38689         90.2255         8.44575 
        2.39303          89.602         8.39227 
        2.39916         89.3578         8.33931 
        2.40529         89.0233         8.28681 
        2.41143          88.328         8.23472 
        2.41757         87.8622         8.18306 
         2.4237         87.3883         8.13193 
        2.42983         86.8171         8.08124 
        2.43598         86.3587         8.03086 
        2.44211         86.1998         7.98098 
        2.44823         85.6475         7.93164 
        2.45437          84.954         7.88258 
        2.46052         84.4729          7.8339 
        2.46665         84.2383         7.78571 
        2.47279         83.7146         7.73794 
        2.47892         83.2981         7.69054 
        2.48507         82.8637         7.64349 
         2.4912         82.5072         7.59693 
