# k  (h/Mpc)    Pcb(k)  (Mpc/h)^3    Pcb_linear(k)  (Mpc/h)^3
     0.00783031         17754.9         18022.1 
       0.013688         21763.3         21547.3 
       0.019231         21213.5         21157.5 
      0.0249154         18541.8         18944.7 
      0.0312784         15667.7         15833.8 
      0.0375637         13101.7         13072.2 
      0.0433917         10973.3         11141.5 
      0.0492413         9781.54         9819.15 
      0.0555754          8647.3          8902.6 
      0.0619321         8304.74         8266.62 
       0.067871         7521.15         7723.12 
      0.0738098         6929.83         7109.12 
      0.0800417         6147.34         6364.22 
      0.0862327          5486.5          5581.3 
      0.0921407         4922.15         4880.97 
      0.0982031         4315.44         4282.05 
       0.104506         3999.02         3822.15 
       0.110769         3679.86         3518.71 
       0.116806         3472.38          3330.7 
       0.122832         3319.48         3193.46 
       0.129052         3093.22         3053.93 
       0.135211         2932.97         2884.42 
       0.141259         2794.31         2679.85 
       0.147318         2609.45         2451.09 
       0.153489         2368.39         2219.57 
       0.159709         2217.72         2013.37 
       0.165845         2114.63         1851.77 
       0.171974            1995         1734.21 
       0.178125         1898.21         1652.01 
       0.184229         1816.27         1591.68 
        0.19034          1721.5         1537.12 
       0.196428         1685.62         1476.71 
       0.202534         1620.82         1404.48 
       0.208729         1540.38         1320.57 
       0.214876         1471.02         1233.11 
       0.220989         1413.58         1149.89 
       0.227147         1351.35         1076.32 
        0.23329         1294.19         1016.39 
       0.239377         1270.08         969.897 
       0.245482         1189.68         933.038 
       0.251667         1183.26         901.133 
       0.257832         1135.79         870.388 
       0.263955          1098.2          837.85 
       0.270079         1058.02         802.288 
        0.27624         1044.99         764.339 
       0.282372         1001.57         726.339 
        0.28843         990.142           690.8 
       0.294538         939.173         658.585 
       0.300721         933.064         630.452 
        0.30691         895.809         606.457 
       0.313033         877.813         585.809 
       0.319153         859.228         566.894 
       0.325316         832.449         548.377 
        0.33145         812.174          529.66 
       0.337538         797.236         510.612 
       0.343633         778.074         491.305 
       0.349808         750.337         472.115 
       0.355968         744.913         453.903 
       0.362074         736.702         437.254 
       0.368217         713.681         422.045 
       0.374374         685.162         408.245 
       0.380519         685.245         395.607 
       0.386598          665.45         383.807 
       0.392688         662.941         372.376 
        0.39888         643.144         360.911 
       0.405048         633.741         349.571 
       0.411186          624.58         338.464 
       0.417313         611.662         327.674 
       0.423458         599.649         317.315 
       0.429607         592.247         307.543 
       0.435692         578.368         298.471 
       0.441815          572.82         289.908 
       0.447964         561.213         281.801 
       0.454126         554.193         274.045 
       0.460267         541.104         266.568 
       0.466387         534.704         259.319 
        0.47254         529.352         252.204 
       0.478662         525.033         245.295 
       0.484765         507.542         238.618 
       0.490885          503.93         232.177 
       0.497035         493.982         225.981 
       0.503198         489.958          220.05 
       0.509342         486.004         214.405 
       0.515458         481.747          209.03 
       0.521598         468.876          203.84 
       0.527764         461.939         198.797 
       0.533884         459.184         193.936 
           0.54         453.552         189.221 
       0.546137          450.78         184.627 
       0.552299         443.283         180.154 
       0.558452         440.436         175.834 
       0.564573          434.83         171.682 
       0.570708         428.492         167.674 
       0.576825         418.269         163.824 
       0.582926         418.032         160.118 
       0.589034         414.077         156.527 
       0.595184         410.868          153.02 
       0.601379         403.904         149.594 
       0.607522          398.64         146.296 
       0.613639         397.425         143.108 
       0.619772         389.704         140.005 
       0.625918         387.825         136.986 
       0.632068         381.653         134.056 
       0.638161         380.092          131.24 
         0.6443         374.168         128.489 
       0.650464         371.431         125.811 
       0.656582         367.807         123.233 
       0.662703         367.257         120.728 
       0.668861         361.249         118.279 
       0.675024         357.956         115.894 
       0.681124         354.932         113.598 
       0.687237         351.883         111.358 
       0.693381         346.741         109.169 
       0.699536         342.615         107.035 
       0.705665          340.77         104.968 
       0.711789           339.4          102.96 
       0.717957         336.514         100.992 
        0.72409           334.1         99.0877 
       0.730186         329.594         97.2447 
       0.736317         326.859          95.439 
       0.742472         324.778         93.6727 
       0.748622         321.833         91.9527 
        0.75476         317.897         90.2796 
       0.760888         314.746          88.651 
       0.767043         314.951         87.0564 
       0.773185         311.552         85.5047 
       0.779291         307.122         84.0003 
       0.785407         306.365         82.5305 
       0.791564         302.716         81.0872 
       0.797719         300.359         79.6796 
       0.803834         297.203         78.3148 
       0.809972         296.767         76.9775 
       0.816124         295.761         75.6689 
       0.822261         292.433         74.3944 
       0.828378         290.068         73.1534 
       0.834502         287.278         71.9398 
       0.840667         285.259         70.7461 
       0.846816         283.872         69.5831 
       0.852925         282.164         68.4538 
       0.859047         279.886         67.3473 
       0.865192         276.466         66.2619 
       0.871341         274.407         65.1999 
       0.877463         273.988         64.1661 
       0.883569         272.074         63.1576 
       0.889708         269.168         62.1658 
       0.895864         267.905          61.193 
       0.902008         265.614         60.2431 
       0.908149         263.596         59.3142 
       0.914301         261.011         58.4035 
       0.920448         259.707          57.513 
       0.926574         256.871         56.6443 
       0.932687         256.964         55.7955 
       0.938823         254.104         54.9612 
       0.944975         253.417         54.1422 
       0.951105         251.513         53.3429 
       0.957225         249.944         52.5613 
       0.963368         246.527         51.7929 
       0.969511         245.788         51.0399 
       0.975621         243.795          50.306 
       0.981748         243.073         49.5849 
       0.987916         241.576         48.8735 
        0.99406          238.64         48.1788 
        1.00019         237.879         47.4991 
        1.00632         236.613         46.8332 
        1.01246         234.636         46.1793 
        1.01859          235.01          45.539 
        1.02471         231.066         44.9117 
        1.03085         230.008         44.2942 
        1.03698         228.891         43.6897 
        1.04314         226.804         43.0941 
        1.04929         225.494          42.511 
        1.05541         225.747         41.9411 
        1.06154         222.392         41.3803 
        1.06769         222.044         40.8291 
        1.07382         220.275         40.2897 
        1.07993         218.935         39.7614 
        1.08607         218.504         39.2404 
        1.09222         216.479         38.7283 
        1.09836         214.927          38.226 
        1.10449         213.034         37.7333 
        1.11063         211.446         37.2488 
        1.11677         210.945          36.773 
         1.1229         209.136         36.3064 
        1.12903         208.396         35.8475 
        1.13518         206.979         35.3962 
        1.14131         205.328          34.953 
        1.14745         205.332         34.5176 
        1.15359         203.397         34.0897 
        1.15973         201.706         33.6688 
        1.16584         200.703          33.257 
        1.17197         200.683         32.8515 
        1.17811         198.066         32.4516 
        1.18424          197.28         32.0596 
        1.19038         196.786         31.6729 
        1.19652         194.979         31.2928 
        1.20267         194.615          30.919 
        1.20881         192.992         30.5514 
        1.21495         191.852         30.1904 
        1.22108         190.652         29.8354 
         1.2272         189.422         29.4869 
        1.23334         189.006         29.1432 
        1.23949         187.052         28.8043 
        1.24562         186.385         28.4717 
        1.25174         185.493         28.1448 
        1.25789         184.276         27.8222 
        1.26402         182.435         27.5052 
        1.27014          181.43          27.194 
        1.27628         180.702         26.8867 
        1.28244         180.639         26.5836 
        1.28858         178.642         26.2856 
        1.29471         177.574         25.9928 
        1.30084         176.826         25.7048 
        1.30697         175.306         25.4208 
        1.31312         174.193         25.1406 
        1.31925         173.297         24.8656 
        1.32537         173.033          24.595 
        1.33151          171.36         24.3275 
        1.33765         170.252         24.0641 
        1.34378         169.743         23.8052 
        1.34992         168.894         23.5499 
        1.35606         168.755         23.2978 
         1.3622         166.871         23.0499 
        1.36833         165.662         22.8062 
        1.37445          165.15         22.5662 
        1.38059         163.746         22.3289 
        1.38675         163.281         22.0945 
        1.39288         162.384         21.8643 
        1.39901         161.929         21.6376 
        1.40515         160.234         21.4136 
         1.4113         159.734         21.1929 
        1.41742         158.459         20.9761 
        1.42355         157.864          20.762 
         1.4297         156.686         20.5502 
        1.43585         156.041         20.3415 
        1.44198         155.343         20.1365 
        1.44809         154.572         19.9347 
        1.45423         153.903          19.735 
        1.46036         152.608         19.5384 
        1.46649          151.72         19.3443 
        1.47263         150.911         19.1528 
        1.47877         149.838          18.964 
        1.48491         148.625         18.7774 
        1.49104         148.604         18.5938 
        1.49718         147.262         18.4125 
        1.50333         146.532         18.2333 
        1.50947         145.769         18.0569 
         1.5156         145.077         17.8831 
        1.52172         144.353         17.7116 
        1.52787         143.145          17.542 
          1.534         142.747         17.3749 
        1.54013         141.971         17.2101 
        1.54627          141.14         17.0471 
        1.55241         140.183         16.8863 
        1.55855         139.457         16.7278 
        1.56467         138.493         16.5717 
         1.5708         137.635         16.4172 
        1.57695         137.385         16.2645 
        1.58308         136.634          16.114 
        1.58922         136.019         15.9654 
        1.59535         135.048         15.8187 
         1.6015         134.582         15.6737 
        1.60764         133.863         15.5305 
        1.61376         132.941         15.3896 
        1.61989         132.197         15.2502 
        1.62604         131.213         15.1123 
        1.63218         131.111         14.9762 
        1.63831         130.116         14.8421 
        1.64444         129.403         14.7096 
        1.65059         128.725         14.5784 
        1.65673         127.878         14.4489 
        1.66285         127.437         14.3214 
        1.66898         126.602         14.1954 
        1.67512         126.118         14.0706 
        1.68127         125.309         13.9473 
         1.6874         124.484         13.8257 
        1.69353         124.152         13.7056 
        1.69967         123.362         13.5867 
        1.70581          122.59         13.4693 
        1.71193         122.018         13.3537 
        1.71806         121.514         13.2392 
        1.72421         120.861         13.1258 
        1.73035         120.538         13.0139 
        1.73649         119.683         12.9033 
        1.74262         118.926         12.7941 
        1.74876          118.46         12.6861 
        1.75489         117.649         12.5796 
        1.76101         116.884         12.4744 
        1.76715          116.51         12.3702 
        1.77329         116.023          12.267 
        1.77943         115.284          12.165 
        1.78557         114.915         12.0644 
        1.79171         113.929         11.9648 
        1.79785         113.412         11.8664 
        1.80399         112.753          11.769 
        1.81012         112.303          11.673 
        1.81625         111.817          11.578 
        1.82239         111.297          11.484 
        1.82853         110.485          11.391 
        1.83466         109.939         11.2992 
        1.84078         109.455         11.2085 
        1.84692         108.607         11.1186 
        1.85306         108.409         11.0296 
         1.8592         107.689         10.9417 
        1.86533          106.99         10.8549 
        1.87147         106.458         10.7689 
        1.87761         105.766         10.6838 
        1.88375         105.306         10.5997 
        1.88988         104.779         10.5166 
        1.89601         104.158         10.4343 
        1.90215         103.601         10.3529 
        1.90829         103.198         10.2724 
        1.91442         102.732         10.1927 
        1.92056          101.94         10.1139 
         1.9267         101.709         10.0359 
        1.93284         101.107         9.95872 
        1.93897         100.467         9.88246 
        1.94509         100.141         9.80717 
        1.95123         99.5444         9.73247 
        1.95737         98.9912         9.65851 
        1.96349         98.4851          9.5855 
        1.96964         97.7023         9.51304 
        1.97578         97.2774          9.4413 
        1.98192         97.0863         9.37044 
        1.98805         96.4348         9.30031 
        1.99419         96.0747          9.2309 
        2.00033          95.414         9.16216 
        2.00647         95.1327         9.09414 
         2.0126         94.4395         9.02693 
        2.01874         93.8531          8.9603 
        2.02488          93.624         8.89429 
        2.03101         92.9023         8.82906 
        2.03714         92.3592         8.76455 
        2.04328         92.0242         8.70062 
        2.04941         91.5842         8.63738 
        2.05554         91.0344         8.57481 
        2.06167         90.7112         8.51278 
        2.06781         90.0347         8.45136 
        2.07396         89.7952         8.39046 
        2.08009         89.3654         8.33026 
        2.08622         88.7219         8.27073 
        2.09237         88.4447         8.21166 
        2.09851         87.9907         8.15317 
        2.10464         87.5168         8.09534 
        2.11077         86.9939         8.03814 
        2.11691         86.7217         7.98138 
        2.12305         86.1689         7.92516 
        2.12918         85.6776         7.86961 
        2.13531         85.2923          7.8146 
        2.14145         84.7014         7.75999 
         2.1476          84.283         7.70584 
        2.15372         83.9972         7.65247 
        2.15985         83.5655         7.59957 
        2.16599         82.9912         7.54701 
        2.17213         82.7049           7.495 
        2.17827         82.2094          7.4435 
         2.1844         81.7782         7.39253 
        2.19054           81.51         7.34202 
        2.19666         81.0731         7.29206 
         2.2028         80.6926         7.24252 
        2.20893         80.2756         7.19341 
        2.21508         79.8286         7.14471 
        2.22122         79.4444         7.09644 
        2.22736         79.0326         7.04872 
        2.23349         78.6259         7.00145 
        2.23962         78.3416         6.95459 
        2.24577         77.9811         6.90812 
         2.2519         77.6257         6.86214 
        2.25802         77.1716         6.81665 
        2.26417          76.779         6.77145 
        2.27031         76.3834         6.72662 
        2.27644         75.8531         6.68233 
        2.28257         75.5488         6.63844 
        2.28872         75.3433         6.59486 
        2.29486         74.7892         6.55169 
        2.30099         74.1932         6.50899 
        2.30712         74.1063         6.46665 
        2.31326         73.7005         6.42462 
         2.3194         73.3378         6.38298 
        2.32553         73.0422         6.34179 
        2.33166         72.6762         6.30098 
         2.3378         72.1823         6.26047 
        2.34394         71.8265         6.22031 
        2.35007         71.5656         6.18055 
        2.35619         71.1997          6.1412 
        2.36233         70.8108         6.10209 
        2.36848         70.4738         6.06324 
        2.37462         70.0455         6.02482 
        2.38075         69.8188         5.98677 
        2.38689         69.4209         5.94901 
        2.39303         69.0073         5.91159 
        2.39916         68.7221         5.87452 
        2.40529         68.5767         5.83778 
        2.41143         67.9585         5.80133 
        2.41757         67.7814         5.76518 
         2.4237          67.429          5.7294 
        2.42983         67.0879         5.69392 
        2.43598          66.712         5.65866 
        2.44211         66.4651         5.62375 
        2.44823         66.1342         5.58922 
        2.45437         65.7112         5.55488 
        2.46052         65.5016          5.5208 
        2.46665          65.197         5.48707 
        2.47279         64.7877         5.45364 
        2.47892         64.5337         5.42046 
        2.48507          64.123         5.38753 
         2.4912         63.8453         5.35493 
