# k  (h/Mpc)    P(k)  (Mpc/h)^3    P_linear(k)  (Mpc/h)^3
     0.00783031         8891.32         9024.44 
       0.013688         10828.2         10776.5 
       0.019231         10592.8         10575.7 
      0.0249154         9328.68          9466.6 
      0.0312784         7867.14         7910.34 
      0.0375637         6552.77         6529.74 
      0.0433917         5518.69         5564.84 
      0.0492413         4901.31         4904.04 
      0.0555754         4369.01         4446.05 
      0.0619321         4157.88         4128.26 
       0.067871         3800.03         3856.73 
      0.0738098         3497.89         3550.03 
      0.0800417          3110.7         3177.99 
      0.0862327         2761.13         2786.99 
      0.0921407         2451.77         2437.25 
      0.0982031         2143.67         2138.17 
       0.104506         1965.69          1908.5 
       0.110769         1807.33         1756.97 
       0.116806          1698.3         1663.08 
       0.122832         1632.19         1594.55 
       0.129052         1531.73         1524.87 
       0.135211         1450.66         1440.22 
       0.141259         1370.99         1338.07 
       0.147318          1270.7         1223.85 
       0.153489          1149.7         1108.24 
       0.159709         1065.39         1005.28 
       0.165845         1003.68         924.595 
       0.171974         938.836         865.891 
       0.178125         895.876          824.85 
       0.184229         862.379         794.722 
        0.19034         811.786         767.482 
       0.196428         796.054          737.32 
       0.202534         767.906         701.249 
       0.208729         723.888         659.355 
       0.214876         680.613         615.687 
       0.220989         651.121         574.134 
       0.227147         614.038         537.401 
        0.23329         585.932         507.474 
       0.239377         570.522         484.263 
       0.245482         533.115         465.859 
       0.251667         527.993         449.929 
       0.257832         509.737         434.578 
       0.263955         491.976         418.331 
       0.270079         472.481         400.574 
        0.27624         464.231         381.627 
       0.282372         444.673         362.654 
        0.28843         429.859          344.91 
       0.294538         408.722         328.824 
       0.300721         404.304         314.778 
        0.30691         385.464         302.797 
       0.313033         377.007         292.488 
       0.319153         363.517         283.044 
       0.325316         353.959         273.799 
        0.33145         342.483         264.453 
       0.337538         337.212         254.943 
       0.343633         325.659         245.303 
       0.349808         314.628         235.721 
       0.355968         310.056         226.628 
       0.362074          302.73         218.316 
       0.368217         294.259         210.721 
       0.374374         283.112         203.832 
       0.380519         279.498         197.521 
       0.386598         272.268          191.63 
       0.392688         269.031         185.923 
        0.39888         261.773         180.198 
       0.405048         255.472         174.536 
       0.411186         250.064         168.991 
       0.417313         245.064         163.603 
       0.423458         239.953         158.431 
       0.429607         234.735         153.552 
       0.435692         227.976         149.023 
       0.441815         226.094         144.747 
       0.447964         221.662           140.7 
       0.454126         213.153         136.827 
       0.460267         210.475         133.094 
       0.466387         207.838         129.474 
        0.47254         203.166         125.922 
       0.478662         202.078         122.472 
       0.484765         195.512         119.138 
       0.490885         192.815         115.922 
       0.497035         189.952         112.829 
       0.503198         185.321         109.868 
       0.509342         183.047         107.049 
       0.515458         180.444         104.366 
       0.521598         177.217         101.774 
       0.527764         174.742         99.2563 
       0.533884         172.288         96.8295 
           0.54         169.451          94.475 
       0.546137         168.236         92.1815 
       0.552299          164.99         89.9484 
       0.558452         162.668          87.791 
       0.564573         160.006         85.7185 
       0.570708          157.02          83.717 
       0.576825         155.126          81.795 
       0.582926         152.479         79.9444 
       0.589034         150.632         78.1514 
       0.595184         148.822         76.4008 
       0.601379         147.023           74.69 
       0.607522         143.979         73.0434 
       0.613639         143.242         71.4518 
       0.619772         140.203         69.9024 
       0.625918         138.736         68.3952 
       0.632068         137.118         66.9321 
       0.638161         135.965          65.526 
         0.6443         134.078         64.1524 
       0.650464         132.663         62.8157 
       0.656582         130.839         61.5284 
       0.662703         129.226         60.2777 
       0.668861         127.223         59.0548 
       0.675024         125.789         57.8643 
       0.681124          124.96         56.7177 
       0.687237         122.708         55.5995 
       0.693381         121.026         54.5062 
       0.699536         120.142         53.4407 
       0.705665         120.054         52.4089 
       0.711789         117.279         51.4063 
       0.717957         116.923         50.4237 
        0.72409          115.14         49.4729 
       0.730186         113.367         48.5527 
       0.736317         112.743         47.6512 
       0.742472         111.903         46.7693 
       0.748622          110.76         45.9105 
        0.75476         109.719         45.0752 
       0.760888         108.178          44.262 
       0.767043         107.548         43.4659 
       0.773185          106.35         42.6912 
       0.779291         104.887           41.94 
       0.785407         104.292         41.2061 
       0.791564          103.37         40.4855 
       0.797719         101.636         39.7827 
       0.803834         101.185         39.1013 
       0.809972         99.9024         38.4336 
       0.816124         99.5249         37.7802 
       0.822261         98.5481         37.1439 
       0.828378         97.6623         36.5243 
       0.834502         97.0764         35.9184 
       0.840667         95.8073         35.3224 
       0.846816         94.7131         34.7417 
       0.852925         94.1223         34.1779 
       0.859047         92.9263         33.6254 
       0.865192         92.4225         33.0835 
       0.871341         91.6608         32.5532 
       0.877463         90.5581         32.0371 
       0.883569         90.0501         31.5336 
       0.889708         89.3597         31.0384 
       0.895864         88.6043         30.5527 
       0.902008         87.8632         30.0784 
       0.908149         87.3585         29.6146 
       0.914301         86.4553         29.1599 
       0.920448         85.8347         28.7153 
       0.926574         85.1467         28.2816 
       0.932687         84.9848         27.8578 
       0.938823         83.6146         27.4412 
       0.944975         82.8864         27.0323 
       0.951105         82.4006         26.6333 
       0.957225         81.4715          26.243 
       0.963368         81.0479         25.8593 
       0.969511         80.7788         25.4834 
       0.975621         80.3225          25.117 
       0.981748          79.557         24.7569 
       0.987916         78.8206         24.4017 
        0.99406          78.302         24.0549 
        1.00019         77.7071         23.7155 
        1.00632         77.1929         23.3831 
        1.01246         76.6391         23.0566 
        1.01859         75.6398         22.7369 
        1.02471         75.6156         22.4237 
        1.03085         74.8696         22.1154 
        1.03698         74.4751         21.8136 
        1.04314         73.7605         21.5162 
        1.04929         73.2942          21.225 
        1.05541         72.6387         20.9405 
        1.06154         72.4987         20.6605 
        1.06769         72.0318         20.3853 
        1.07382         71.6657          20.116 
        1.07993         71.1407         19.8522 
        1.08607           70.57         19.5921 
        1.09222         70.2485         19.3364 
        1.09836         69.6758         19.0856 
        1.10449         69.3159         18.8396 
        1.11063         68.7323         18.5977 
        1.11677         68.3902         18.3601 
         1.1229         67.7274         18.1272 
        1.12903         67.0435         17.8981 
        1.13518         67.2984         17.6727 
        1.14131         66.7726         17.4515 
        1.14745         66.0442         17.2341 
        1.15359         65.8202         17.0204 
        1.15973         65.3127         16.8103 
        1.16584         64.9001         16.6047 
        1.17197         64.5314         16.4022 
        1.17811         64.1984         16.2026 
        1.18424         63.6699         16.0068 
        1.19038         63.2786         15.8138 
        1.19652         63.0736          15.624 
        1.20267         62.4584         15.4374 
        1.20881         62.2075         15.2538 
        1.21495         61.7185         15.0736 
        1.22108         61.4773         14.8963 
         1.2272          60.841         14.7223 
        1.23334         60.6405         14.5507 
        1.23949         60.4302         14.3815 
        1.24562         59.9544         14.2154 
        1.25174         59.6958         14.0523 
        1.25789         59.4464         13.8912 
        1.26402         59.0317         13.7329 
        1.27014         58.4839         13.5775 
        1.27628         58.2759         13.4241 
        1.28244         57.8641         13.2727 
        1.28858         57.6372          13.124 
        1.29471         57.4044         12.9778 
        1.30084         57.0497          12.834 
        1.30697          56.672         12.6922 
        1.31312         56.3018         12.5523 
        1.31925         56.1133          12.415 
        1.32537         55.8812         12.2799 
        1.33151         55.2912         12.1463 
        1.33765         55.1195         12.0148 
        1.34378         54.7889         11.8855 
        1.34992         54.5162         11.7581 
        1.35606         54.2237         11.6322 
         1.3622         53.8139         11.5084 
        1.36833         53.6196         11.3868 
        1.37445         53.3978         11.2669 
        1.38059         52.9753         11.1484 
        1.38675         52.6972         11.0314 
        1.39288         52.4458         10.9165 
        1.39901          52.259         10.8033 
        1.40515         51.9225         10.6915 
         1.4113         51.7166         10.5813 
        1.41742         51.5205          10.473 
        1.42355         51.0787         10.3661 
         1.4297         50.9234         10.2604 
        1.43585         50.6062         10.1562 
        1.44198          50.319         10.0538 
        1.44809         50.1572         9.95308 
        1.45423         49.8878         9.85335 
        1.46036         49.6927         9.75518 
        1.46649         49.4028         9.65831 
        1.47263         49.0544         9.56269 
        1.47877         48.8871         9.46841 
        1.48491         48.8158         9.37526 
        1.49104         48.3849         9.28357 
        1.49718         47.9372         9.19305 
        1.50333          47.891         9.10359 
        1.50947          47.699         9.01551 
         1.5156         47.3768         8.92873 
        1.52172         47.2492          8.8431 
        1.52787         47.1203         8.75843 
          1.534         46.7783         8.67498 
        1.54013         46.5151          8.5927 
        1.54627         46.3712         8.51135 
        1.55241          45.977         8.43104 
        1.55855         45.8205         8.35189 
        1.56467          45.433         8.27398 
         1.5708         45.4861         8.19685 
        1.57695         45.2134         8.12058 
        1.58308         44.9213         8.04547 
        1.58922         44.9176         7.97126 
        1.59535         44.6951         7.89802 
         1.6015         44.2654          7.8256 
        1.60764         44.0875         7.75413 
        1.61376         43.8967         7.68375 
        1.61989         43.6344         7.61419 
        1.62604         43.5304         7.54534 
        1.63218         43.4229         7.47738 
        1.63831         43.1462         7.41042 
        1.64444         42.9055         7.34426 
        1.65059         42.6509         7.27875 
        1.65673         42.4721         7.21411 
        1.66285         42.2365         7.15044 
        1.66898         42.0499         7.08752 
        1.67512         41.8393         7.02524 
        1.68127         41.6173         6.96366 
         1.6874         41.5074         6.90295 
        1.69353         41.2465           6.843 
        1.69967         41.0647         6.78363 
        1.70581          41.017         6.72499 
        1.71193         40.8007         6.66727 
        1.71806          40.418         6.61011 
        1.72421         40.3284         6.55351 
        1.73035         40.1397         6.49763 
        1.73649         39.8028         6.44243 
        1.74262         39.7887         6.38791 
        1.74876         39.6618         6.33398 
        1.75489         39.4231          6.2808 
        1.76101         39.2525         6.22824 
        1.76715         39.0661         6.17622 
        1.77329         38.8993         6.12473 
        1.77943         38.7332          6.0738 
        1.78557          38.544         6.02353 
        1.79171         38.3307         5.97383 
        1.79785          38.156         5.92468 
        1.80399         38.0885         5.87609 
        1.81012         37.8589         5.82812 
        1.81625         37.5871          5.7807 
        1.82239         37.5156         5.73375 
        1.82853         37.2508         5.68734 
        1.83466         37.1549         5.64149 
        1.84078         36.8679          5.5962 
        1.84692         36.7742         5.55133 
        1.85306         36.5885          5.5069 
         1.8592         36.3907         5.46303 
        1.86533         36.2901         5.41966 
        1.87147         36.1779         5.37672 
        1.87761         36.0339         5.33422 
        1.88375           35.82         5.29223 
        1.88988         35.7649         5.25075 
        1.89601         35.5267         5.20968 
        1.90215         35.3897         5.16902 
        1.90829         35.3084         5.12882 
        1.91442         35.0843         5.08904 
        1.92056         34.9371         5.04972 
         1.9267         34.7133         5.01078 
        1.93284         34.5602         4.97222 
        1.93897         34.4907         4.93415 
        1.94509         34.2507         4.89656 
        1.95123         34.1843         4.85926 
        1.95737         33.9425         4.82233 
        1.96349         33.8284         4.78588 
        1.96964         33.7306          4.7497 
        1.97578         33.5333         4.71388 
        1.98192         33.3997         4.67851 
        1.98805         33.2908         4.64349 
        1.99419         33.0833         4.60884 
        2.00033         32.9512         4.57452 
        2.00647         32.8026         4.54056 
         2.0126         32.6567           4.507 
        2.01874         32.5725         4.47373 
        2.02488         32.4519         4.44077 
        2.03101         32.2561         4.40821 
        2.03714         32.1161           4.376 
        2.04328         31.9643         4.34408 
        2.04941         31.8434          4.3125 
        2.05554         31.6762         4.28126 
        2.06167         31.5971         4.25029 
        2.06781         31.4103         4.21962 
        2.07396         31.3098         4.18922 
        2.08009         31.2179         4.15916 
        2.08622         31.0061         4.12944 
        2.09237         30.8739         4.09995 
        2.09851         30.7405         4.07074 
        2.10464         30.6641         4.04187 
        2.11077         30.5208         4.01331 
        2.11691         30.3775         3.98497 
        2.12305         30.2509          3.9569 
        2.12918         30.1779         3.92917 
        2.13531         30.0015          3.9017 
        2.14145         29.9449         3.87444 
         2.1476         29.7468          3.8474 
        2.15372         29.5954         3.82076 
        2.15985         29.4802         3.79434 
        2.16599         29.4772          3.7681 
        2.17213          29.337         3.74213 
        2.17827         29.0855         3.71642 
         2.1844         28.9964         3.69097 
        2.19054         28.8899         3.66575 
        2.19666         28.7842         3.64081 
         2.2028         28.6355         3.61607 
        2.20893         28.5691         3.59155 
        2.21508         28.4544         3.56724 
        2.22122         28.2418         3.54314 
        2.22736         28.2133         3.51931 
        2.23349         28.0759         3.49571 
        2.23962         27.9264         3.47231 
        2.24577           27.81         3.44911 
         2.2519          27.737         3.42615 
        2.25802         27.5743         3.40344 
        2.26417         27.5231         3.38088 
        2.27031          27.418         3.35849 
        2.27644         27.2278         3.33638 
        2.28257         27.1482         3.31447 
        2.28872         27.0231         3.29271 
        2.29486         26.9829         3.27115 
        2.30099         26.8219         3.24983 
        2.30712         26.7379         3.22869 
        2.31326         26.6806         3.20771 
         2.3194         26.5434         3.18692 
        2.32553         26.3774         3.16635 
        2.33166         26.2769         3.14598 
         2.3378         26.1517         3.12575 
        2.34394         26.0366          3.1057 
        2.35007         25.9526         3.08585 
        2.35619         25.8661          3.0662 
        2.36233         25.8057         3.04668 
        2.36848         25.6323         3.02728 
        2.37462         25.5457          3.0081 
        2.38075         25.4606          2.9891 
        2.38689            25.4         2.97024 
        2.39303         25.2376         2.95156 
        2.39916         25.1083         2.93305 
        2.40529         24.9965         2.91471 
        2.41143         24.9312         2.89651 
        2.41757         24.8565         2.87846 
         2.4237         24.7039          2.8606 
        2.42983         24.6026         2.84288 
        2.43598          24.524         2.82528 
        2.44211         24.4127         2.80785 
        2.44823         24.3044         2.79061 
        2.45437         24.2157         2.77346 
        2.46052          24.111         2.75645 
        2.46665         24.0768         2.73961 
        2.47279         23.9431         2.72291 
        2.47892         23.8339         2.70635 
        2.48507         23.7364         2.68991 
         2.4912         23.6857         2.67363 
