# k  (h/Mpc)    P(k)  (Mpc/h)^3    P_linear(k)  (Mpc/h)^3
     0.00783031         17607.5         17860.2 
       0.013688         20499.4           20298 
       0.019231         18949.7         18867.7 
      0.0249154         15577.5         15855.8 
      0.0312784         12265.1         12326.4 
      0.0375637         9683.94          9595.8 
      0.0433917         7885.88         7932.04 
      0.0492413         6983.68            6958 
      0.0555754         6264.17         6393.33 
      0.0619321         6079.18         6016.46 
       0.067871         5513.33         5613.41 
      0.0738098         4991.26         5067.95 
      0.0800417         4293.16         4375.22 
      0.0862327         3684.86         3678.65 
      0.0921407         3208.42         3112.41 
      0.0982031            2769         2689.75 
       0.104506         2575.88          2422.5 
       0.110769         2412.43         2288.62 
       0.116806          2318.6         2223.47 
       0.122832         2241.28         2161.43 
       0.129052         2083.37         2056.21 
       0.135211         1940.43         1897.24 
       0.141259         1804.51            1705 
       0.147318         1643.92         1508.77 
       0.153489         1468.44         1336.23 
       0.159709         1365.73         1208.18 
       0.165845         1302.93         1128.41 
       0.171974         1242.72         1084.06 
       0.178125         1195.57         1057.58 
       0.184229         1151.56          1031.3 
        0.19034         1084.58         992.233 
       0.196428         1052.34         936.523 
       0.202534         1003.06         868.205 
       0.208729         938.614         795.804 
       0.214876         884.802         730.719 
       0.220989         844.919         678.973 
       0.227147         807.943         641.573 
        0.23329         774.674         616.501 
       0.239377         759.848         598.718 
       0.245482         710.008         582.384 
       0.251667         705.422         562.984 
       0.257832         676.028         538.764 
       0.263955         650.616         510.539 
       0.270079         621.875         480.697 
        0.27624         611.371         452.031 
       0.282372         586.583         427.244 
        0.28843         572.587         407.404 
       0.294538         542.667         391.753 
       0.300721          538.75         379.065 
        0.30691         515.661         367.734 
       0.313033          504.92         356.359 
       0.319153         489.578         343.888 
       0.325316         475.557         330.154 
        0.33145         460.588         315.818 
       0.337538         451.997         301.814 
       0.343633         438.126         288.823 
       0.349808         421.568          277.19 
       0.355968         417.434         267.244 
       0.362074         411.098         258.688 
       0.368217         398.877         250.941 
       0.374374         381.419         243.488 
       0.380519          379.52         235.982 
       0.386598         368.959         228.361 
       0.392688         365.588          220.55 
        0.39888         355.222         212.681 
       0.405048         347.568         205.166 
       0.411186         341.674         198.186 
       0.417313         334.626         191.841 
       0.423458         326.893         186.047 
       0.429607         322.128         180.686 
       0.435692          313.45         175.674 
       0.441815         310.158         170.781 
       0.447964         303.399         165.903 
       0.454126         296.381          161.05 
       0.460267         290.625         156.291 
       0.466387         286.627         151.675 
        0.47254         281.493         147.225 
       0.478662          280.25         143.048 
       0.484765         269.804         139.141 
       0.490885          267.03          135.44 
       0.497035         262.098           131.9 
       0.503198         258.128         128.494 
       0.509342         256.231           125.2 
       0.515458         252.493         121.991 
       0.521598         246.001         118.832 
       0.527764         243.248         115.745 
       0.533884         240.402         112.785 
           0.54          236.75         109.945 
       0.546137          235.45          107.21 
       0.552299         230.575         104.578 
       0.558452         229.223          102.06 
       0.564573         225.801         99.6518 
       0.570708         220.868         97.3195 
       0.576825         217.525         95.0614 
       0.582926         214.958         92.8651 
       0.589034         212.788         90.7229 
       0.595184         210.933         88.6284 
       0.601379         207.193         86.5868 
       0.607522         204.523         84.6328 
       0.613639         202.949         82.7543 
       0.619772         199.008         80.9333 
       0.625918          197.84         79.1666 
       0.632068          194.55         77.4526 
       0.638161          193.48         75.8044 
         0.6443         190.455          74.192 
       0.650464         188.632         72.6202 
       0.656582         185.942         71.1047 
       0.662703         185.767         69.6315 
       0.668861         182.614         68.1912 
       0.675024         180.034         66.7906 
       0.681124         178.821         65.4437 
       0.687237         176.684         64.1319 
       0.693381         173.863         62.8509 
       0.699536         172.495         61.6038 
       0.705665         170.836         60.3969 
       0.711789         169.254         59.2241 
       0.717957         168.753          58.075 
        0.72409          166.53         56.9631 
       0.730186         164.404         55.8872 
       0.736317         162.564         54.8332 
       0.742472         161.351         53.8025 
       0.748622         159.998         52.7994 
        0.75476         158.449         51.8241 
       0.760888         156.776         50.8751 
       0.767043         156.186         49.9462 
       0.773185         154.859         49.0427 
       0.779291         151.901          48.167 
       0.785407          151.46         47.3116 
       0.791564          150.28         46.4718 
       0.797719         147.595          45.653 
       0.803834          146.93         44.8594 
       0.809972         146.212          44.082 
       0.816124         145.214         43.3215 
       0.822261         144.197         42.5812 
       0.828378         142.666         41.8607 
       0.834502         141.969         41.1563 
       0.840667         140.102         40.4638 
       0.846816         138.842         39.7892 
       0.852925         138.119         39.1345 
       0.859047         136.957         38.4932 
       0.865192         135.374         37.8643 
       0.871341         134.323         37.2492 
       0.877463         133.286         36.6506 
       0.883569         133.002         36.0667 
       0.889708          131.41         35.4927 
       0.895864         130.213         34.9298 
       0.902008         129.294         34.3804 
       0.908149         128.902         33.8432 
       0.914301         127.298         33.3167 
       0.920448          126.46         32.8021 
       0.926574         125.492         32.3001 
       0.932687         125.472         31.8099 
       0.938823         123.653         31.3281 
       0.944975         122.895         30.8553 
       0.951105         122.041          30.394 
       0.957225         121.321          29.943 
       0.963368         119.502         29.4998 
       0.969511         119.293         29.0655 
       0.975621         118.282         28.6424 
       0.981748         118.139         28.2268 
       0.987916         116.889         27.8168 
        0.99406         115.992         27.4165 
        1.00019          115.76          27.025 
        1.00632         114.488         26.6415 
        1.01246         113.889          26.265 
        1.01859          113.45         25.8963 
        1.02471         112.035         25.5353 
        1.03085         111.086           25.18 
        1.03698         110.783         24.8322 
        1.04314         109.589         24.4896 
        1.04929         109.318         24.1542 
        1.05541         108.494         23.8266 
        1.06154         107.931         23.5042 
        1.06769         107.585         23.1873 
        1.07382         106.531         22.8774 
        1.07993         105.965         22.5739 
        1.08607         105.183         22.2746 
        1.09222         104.866         21.9805 
        1.09836         104.001         21.6921 
        1.10449         103.004         21.4093 
        1.11063         102.517         21.1312 
        1.11677         101.843         20.8582 
         1.1229         101.214         20.5905 
        1.12903         100.862         20.3273 
        1.13518         100.439         20.0685 
        1.14131         99.4529         19.8144 
        1.14745         99.1812         19.5649 
        1.15359         98.4032         19.3196 
        1.15973          97.984         19.0785 
        1.16584         97.0628         18.8426 
        1.17197         96.5029         18.6104 
        1.17811         96.0699         18.3814 
        1.18424         95.6426         18.1569 
        1.19038         95.4391         17.9356 
        1.19652         94.6829         17.7181 
        1.20267          93.849         17.5042 
        1.20881         93.5372         17.2939 
        1.21495         92.6074         17.0874 
        1.22108         92.4238         16.8843 
         1.2272          91.575          16.685 
        1.23334         91.1822         16.4885 
        1.23949         90.7936         16.2948 
        1.24562          90.129         16.1047 
        1.25174         89.8608         15.9179 
        1.25789         89.3141         15.7335 
        1.26402         88.2474         15.5524 
        1.27014          88.112         15.3746 
        1.27628         87.8035         15.1991 
        1.28244         87.4075          15.026 
        1.28858         86.9904         14.8558 
        1.29471         86.2653         14.6887 
        1.30084          86.141         14.5243 
        1.30697         85.2677         14.3621 
        1.31312         84.8888         14.2022 
        1.31925         84.3925         14.0453 
        1.32537         83.9661         13.8909 
        1.33151         83.3797         13.7383 
        1.33765         83.0061         13.5881 
        1.34378         82.6797         13.4404 
        1.34992         82.3275         13.2948 
        1.35606         81.8386         13.1511 
         1.3622         81.2368         13.0098 
        1.36833         80.9374         12.8709 
        1.37445         80.5147         12.7341 
        1.38059         79.7934         12.5989 
        1.38675         79.3666         12.4653 
        1.39288         79.3631         12.3343 
        1.39901         78.8115         12.2051 
        1.40515         78.2469         12.0776 
         1.4113         77.9726         11.9519 
        1.41742         77.5521         11.8285 
        1.42355          77.185         11.7066 
         1.4297         76.9253         11.5861 
        1.43585         76.3706         11.4673 
        1.44198          75.891         11.3507 
        1.44809         75.6828         11.2359 
        1.45423         75.4165         11.1223 
        1.46036         74.9008         11.0105 
        1.46649         74.4293         10.9001 
        1.47263         73.9636         10.7912 
        1.47877         73.7259         10.6839 
        1.48491         73.2391         10.5778 
        1.49104          73.058         10.4734 
        1.49718         72.6912         10.3704 
        1.50333         72.4223         10.2686 
        1.50947         71.8976         10.1683 
         1.5156         71.7216         10.0696 
        1.52172          71.279         9.97214 
        1.52787         70.8812          9.8758 
          1.534         70.4464         9.78086 
        1.54013         70.0852         9.68726 
        1.54627         69.8897         9.59472 
        1.55241          69.445         9.50338 
        1.55855         69.1399         9.41337 
        1.56467         68.9265         9.32477 
         1.5708         68.4824         9.23707 
        1.57695         68.3833         9.15036 
        1.58308         67.9028         9.06498 
        1.58922         67.5728         8.98063 
        1.59535         67.3495         8.89739 
         1.6015         66.8616         8.81509 
        1.60764         66.6341         8.73388 
        1.61376         66.3355         8.65392 
        1.61989         66.0455          8.5749 
        1.62604         65.6679         8.49669 
        1.63218         65.5142         8.41951 
        1.63831         64.8275         8.34348 
        1.64444         64.5957         8.26835 
        1.65059         64.4479         8.19398 
        1.65673         63.9554         8.12061 
        1.66285          63.756         8.04834 
        1.66898           63.57         7.97693 
        1.67512         63.0181         7.90626 
        1.68127         62.9457         7.83638 
         1.6874         62.4929          7.7675 
        1.69353         62.2461          7.6995 
        1.69967         62.0083         7.63215 
        1.70581         61.7261         7.56564 
        1.71193         61.4597         7.50018 
        1.71806         61.1152         7.43536 
        1.72421         60.9258         7.37117 
        1.73035         60.5829         7.30782 
        1.73649         60.3425         7.24523 
        1.74262         59.9619         7.18343 
        1.74876         59.7677          7.1223 
        1.75489         59.4595         7.06202 
        1.76101         59.2643         7.00245 
        1.76715         58.7883         6.94349 
        1.77329         58.6063         6.88514 
        1.77943         58.3308         6.82743 
        1.78557         58.1203         6.77047 
        1.79171         57.7642         6.71416 
        1.79785         57.4073         6.65847 
        1.80399         57.3044         6.60344 
        1.81012         57.0478          6.5491 
        1.81625         56.7859         6.49539 
        1.82239          56.463         6.44221 
        1.82853         56.2767         6.38966 
        1.83466         56.0308         6.33774 
        1.84078         55.6338         6.28646 
        1.84692         55.4862         6.23566 
        1.85306         55.1874         6.18537 
         1.8592         55.0307         6.13571 
        1.86533         54.7029         6.08662 
        1.87147         54.3351         6.03802 
        1.87761         54.2632         5.98993 
        1.88375         54.0097         5.94242 
        1.88988         53.5781         5.89548 
        1.89601         53.5091         5.84902 
        1.90215         53.0778         5.80303 
        1.90829         52.9121         5.75755 
        1.91442         52.7773         5.71256 
        1.92056         52.5154          5.6681 
         1.9267         52.2701         5.62406 
        1.93284         51.9541         5.58047 
        1.93897          51.778         5.53742 
        1.94509          51.626         5.49492 
        1.95123         51.3273         5.45276 
        1.95737         51.0487         5.41101 
        1.96349         50.8439         5.36981 
        1.96964         50.5464         5.32893 
        1.97578         50.3177         5.28845 
        1.98192         50.3262         5.24847 
        1.98805         49.9109          5.2089 
        1.99419         49.7036         5.16975 
        2.00033         49.5384         5.13097 
        2.00647         49.3205         5.09261 
         2.0126         48.9785          5.0547 
        2.01874         48.7792         5.01712 
        2.02488         48.6552         4.97989 
        2.03101         48.4339         4.94311 
        2.03714         48.1647         4.90674 
        2.04328         47.9676         4.87069 
        2.04941         47.7117         4.83503 
        2.05554         47.5719         4.79976 
        2.06167          47.431         4.76479 
        2.06781         47.0929         4.73016 
        2.07396         46.9679         4.69584 
        2.08009         46.7647         4.66191 
        2.08622         46.4121         4.62836 
        2.09237         46.3392         4.59507 
        2.09851          46.187          4.5621 
        2.10464         45.8921         4.52952 
        2.11077         45.6663         4.49729 
        2.11691         45.4309         4.46531 
        2.12305         45.3406         4.43363 
        2.12918         45.1818         4.40234 
        2.13531         44.8314         4.37136 
        2.14145         44.6415         4.34059 
         2.1476          44.434         4.31009 
        2.15372         44.2819         4.28004 
        2.15985         44.1411         4.25024 
        2.16599         43.9392         4.22065 
        2.17213         43.7656         4.19136 
        2.17827         43.5304         4.16237 
         2.1844         43.2796         4.13367 
        2.19054          43.103         4.10523 
        2.19666         42.9192         4.07711 
         2.2028         42.8488         4.04922 
        2.20893         42.5379         4.02158 
        2.21508          42.453         3.99417 
        2.22122         42.2624           3.967 
        2.22736         42.0028         3.94015 
        2.23349         41.8865         3.91355 
        2.23962         41.6529         3.88718 
        2.24577         41.4134         3.86103 
         2.2519         41.2646         3.83516 
        2.25802         41.1419         3.80957 
        2.26417         40.9447         3.78415 
        2.27031          40.816         3.75893 
        2.27644         40.5612         3.73402 
        2.28257         40.3618         3.70933 
        2.28872         40.1744         3.68482 
        2.29486         40.0761         3.66054 
        2.30099         39.9176         3.63653 
        2.30712         39.6959         3.61272 
        2.31326         39.5324         3.58909 
         2.3194         39.3161         3.56568 
        2.32553         39.1733         3.54252 
        2.33166         38.9785         3.51957 
         2.3378         38.8597          3.4968 
        2.34394         38.6968         3.47422 
        2.35007         38.5401         3.45188 
        2.35619          38.341         3.42976 
        2.36233         38.1453         3.40778 
        2.36848         38.0661         3.38594 
        2.37462         37.8277         3.36435 
        2.38075         37.7535         3.34297 
        2.38689         37.5596         3.32175 
        2.39303         37.3166         3.30072 
        2.39916         37.1799          3.2799 
        2.40529         37.0723         3.25926 
        2.41143         36.9294         3.23878 
        2.41757          36.756         3.21847 
         2.4237         36.5716         3.19837 
        2.42983         36.4671         3.17844 
        2.43598          36.303         3.15863 
        2.44211         36.1164         3.13903 
        2.44823         35.9983         3.11963 
        2.45437         35.8011         3.10035 
        2.46052         35.6602         3.08121 
        2.46665         35.5113         3.06227 
        2.47279         35.2898          3.0435 
        2.47892         35.2169         3.02487 
        2.48507         35.0879         3.00637 
         2.4912         34.9407         2.98807 
