# k  (h/Mpc)    Pcb(k)  (Mpc/h)^3    Pcb_linear(k)  (Mpc/h)^3
     0.00783031         5793.95         5864.16 
       0.013688         7166.53         7140.37 
       0.019231          7088.9         7076.42 
      0.0249154         6290.61         6362.87 
      0.0312784          5309.6         5327.08 
      0.0375637         4425.14         4407.28 
      0.0433917         3752.56         3773.44 
      0.0492413         3350.62         3349.46 
      0.0555754         3022.77          3062.8 
      0.0619321         2880.28         2861.79 
       0.067871         2649.12         2678.65 
      0.0738098          2432.7          2460.7 
      0.0800417         2156.14         2192.25 
      0.0862327          1900.3         1913.13 
      0.0921407         1677.61          1669.6 
      0.0982031         1470.09         1468.44 
       0.104506         1350.26         1320.86 
       0.110769         1252.79         1228.58 
       0.116806         1185.48         1173.12 
       0.122832         1145.74          1129.9 
       0.129052         1078.67          1079.6 
       0.135211         1015.46         1014.06 
       0.141259         950.372         934.946 
       0.147318         873.604         849.237 
       0.153489         787.823         766.446 
       0.159709         727.277         696.769 
       0.165845         686.294         645.581 
       0.171974         644.717         610.732 
       0.178125         619.875         587.259 
       0.184229         600.156          568.94 
        0.19034         566.288         549.639 
       0.196428         552.319         525.767 
       0.202534         530.143         496.489 
       0.208729         496.055         463.374 
       0.214876         462.799         430.566 
       0.220989         441.462         401.238 
       0.227147         414.674         377.032 
        0.23329          396.68         358.574 
       0.239377          386.44         344.858 
       0.245482           363.8         333.813 
       0.251667         359.489          323.31 
       0.257832         347.488          311.94 
       0.263955         334.182         299.077 
       0.270079          320.17         284.857 
        0.27624         312.266         270.098 
       0.282372         298.611         256.036 
        0.28843           286.5         243.619 
       0.294538         273.506         233.013 
       0.300721         269.592         224.139 
        0.30691          257.51         216.678 
       0.313033         251.292         210.021 
       0.319153         241.134         203.502 
       0.325316         235.813          196.65 
        0.33145         227.311         189.459 
       0.337538         223.093          182.08 
       0.343633         214.996         174.772 
       0.349808         207.873         167.764 
       0.355968         203.688         161.399 
       0.362074         197.882         155.805 
       0.368217         192.327         150.804 
       0.374374         186.215          146.27 
       0.380519         182.736         141.998 
       0.386598         177.874         137.848 
       0.392688         174.978         133.678 
        0.39888         170.289         129.387 
       0.405048         166.055          125.14 
       0.411186         162.233         121.031 
       0.417313         158.337         117.128 
       0.423458         154.772         113.486 
       0.429607          151.03          110.12 
       0.435692         146.191         107.027 
       0.441815         144.992         104.102 
       0.447964         142.398         101.292 
       0.454126         136.142         98.5378 
       0.460267         134.587         95.8347 
       0.466387         132.395         93.1851 
        0.47254         129.645         90.5755 
       0.478662          128.23          88.058 
       0.484765         124.435         85.6576 
       0.490885         122.285         83.3751 
       0.497035          120.68            81.2 
       0.503198         117.311         79.1271 
       0.509342         115.105         77.1528 
       0.515458         113.398         75.2594 
       0.521598         111.706         73.4112 
       0.527764         109.977         71.5963 
       0.533884         108.202         69.8377 
           0.54          106.11         68.1308 
       0.546137         105.084         66.4734 
       0.552299         103.378         64.8682 
       0.558452         101.036         63.3254 
       0.564573         99.2329         61.8508 
       0.570708         97.8369         60.4309 
       0.576825         96.4437         59.0666 
       0.582926         94.5079         57.7491 
       0.589034         92.8291         56.4659 
       0.595184         91.6706         55.2072 
       0.601379         90.5014         53.9737 
       0.607522         88.3523         52.7858 
       0.613639         88.1167         51.6393 
       0.619772          86.106          50.526 
       0.625918         85.1945         49.4456 
       0.632068         84.1857         48.3981 
       0.638161         83.1038         47.3919 
         0.6443         81.9511         46.4086 
       0.650464         80.8875         45.4505 
       0.656582         79.8132         44.5269 
       0.662703         78.3262         43.6287 
       0.668861         77.4062         42.7498 
       0.675024         76.4948         41.8936 
       0.681124         75.4787         41.0689 
       0.687237         74.1157         40.2645 
       0.693381         73.3775          39.478 
       0.699536         72.3573         38.7117 
       0.705665         72.6185         37.9698 
       0.711789         70.6322          37.249 
       0.717957         70.1072         36.5427 
        0.72409         69.1305         35.8591 
       0.730186         67.9945         35.1975 
       0.736317         67.8053         34.5491 
       0.742472         66.9104         33.9146 
       0.748622         66.2142         33.2966 
        0.75476         65.4656         32.6952 
       0.760888         64.5089         32.1095 
       0.767043         63.8725          31.536 
       0.773185         63.0868         30.9778 
       0.779291         62.6747         30.4364 
       0.785407          62.104         29.9075 
       0.791564         61.2771         29.3879 
       0.797719         60.2851         28.8812 
       0.803834         60.0785         28.3899 
       0.809972         59.0312         27.9084 
       0.816124         58.5059         27.4371 
       0.822261         58.0656         26.9781 
       0.828378         57.6365         26.5312 
       0.834502         56.9723         26.0941 
       0.840667         56.4319         25.6641 
       0.846816         55.6539          25.245 
       0.852925         55.2141         24.8381 
       0.859047         54.4828         24.4394 
       0.865192         54.1518         24.0483 
       0.871341         53.8908         23.6655 
       0.877463          52.859         23.2928 
       0.883569         52.5192         22.9292 
       0.889708         52.2176         22.5716 
       0.895864         51.7244         22.2208 
       0.902008         51.2374         21.8782 
       0.908149          50.838         21.5432 
       0.914301         50.4481         21.2147 
       0.920448         49.9172         20.8934 
       0.926574         49.4445         20.5799 
       0.932687         49.1135         20.2737 
       0.938823         48.3577         19.9726 
       0.944975         48.2101          19.677 
       0.951105         47.7289         19.3885 
       0.957225         47.1317         19.1063 
       0.963368         47.1148         18.8289 
       0.969511         46.6909          18.557 
       0.975621         46.3113         18.2919 
       0.981748         45.7651         18.0315 
       0.987916         45.4735         17.7745 
        0.99406         45.1979         17.5235 
        1.00019         44.6496         17.2779 
        1.00632         44.4314         17.0373 
        1.01246         44.1079          16.801 
        1.01859          43.496         16.5695 
        1.02471         43.5366         16.3428 
        1.03085         43.0894         16.1195 
        1.03698          42.619         15.9009 
        1.04314         42.2701         15.6855 
        1.04929         42.0216         15.4746 
        1.05541         41.5677         15.2684 
        1.06154         41.5221         15.0656 
        1.06769         41.1195         14.8661 
        1.07382         40.8606          14.671 
        1.07993         40.6718         14.4798 
        1.08607         40.2018         14.2913 
        1.09222         40.0512         14.1059 
        1.09836         39.7173         13.9241 
        1.10449         39.4132         13.7457 
        1.11063         38.9572         13.5703 
        1.11677         38.7735          13.398 
         1.1229          38.612         13.2291 
        1.12903         38.0766         13.0629 
        1.13518          38.107         12.8995 
        1.14131         37.9142          12.739 
        1.14745         37.4065         12.5814 
        1.15359         37.3817         12.4263 
        1.15973         36.9336         12.2739 
        1.16584          36.682         12.1247 
        1.17197         36.5912         11.9779 
        1.17811         36.2687          11.833 
        1.18424         35.9234         11.6909 
        1.19038         35.8584         11.5508 
        1.19652         35.6874         11.4131 
        1.20267         35.4145         11.2776 
        1.20881         35.1189         11.1444 
        1.21495         34.8747         11.0135 
        1.22108         34.6762         10.8848 
         1.2272          34.302         10.7585 
        1.23334         34.2125         10.6339 
        1.23949         34.1099          10.511 
        1.24562          33.812         10.3903 
        1.25174         33.6862         10.2718 
        1.25789         33.4358         10.1547 
        1.26402         33.2131         10.0398 
        1.27014         32.8968         9.92683 
        1.27628         32.7795         9.81532 
        1.28244         32.5724         9.70532 
        1.28858         32.4509         9.59717 
        1.29471         32.2984         9.49092 
        1.30084         32.0972         9.38638 
        1.30697         31.8421         9.28327 
        1.31312         31.5648         9.18157 
        1.31925         31.4825         9.08173 
        1.32537         31.3296         8.98348 
        1.33151         31.0852         8.88634 
        1.33765         31.0412          8.7907 
        1.34378         30.8335         8.69667 
        1.34992         30.4874         8.60396 
        1.35606         30.3645         8.51241 
         1.3622         30.2058         8.42236 
        1.36833         30.0182         8.33384 
        1.37445         30.0197         8.24664 
        1.38059         29.7858         8.16044 
        1.38675         29.4918         8.07527 
        1.39288         29.4631         7.99166 
        1.39901         29.1953         7.90928 
        1.40515         29.0885         7.82788 
         1.4113         28.9662         7.74767 
        1.41742         28.6763          7.6689 
        1.42355         28.6317         7.59108 
         1.4297         28.4524         7.51411 
        1.43585          28.397         7.43825 
        1.44198         28.1218         7.36373 
        1.44809          28.007         7.29038 
        1.45423         27.8984         7.21777 
        1.46036         27.8078         7.14627 
        1.46649         27.5912         7.07573 
        1.47263         27.4408         7.00609 
        1.47877         27.3562         6.93743 
        1.48491         27.2241         6.86958 
        1.49104         27.0918         6.80279 
        1.49718         26.8395         6.73684 
        1.50333         26.8029         6.67167 
        1.50947         26.6841         6.60749 
         1.5156         26.5034         6.54426 
        1.52172         26.3194         6.48187 
        1.52787         26.3297         6.42016 
          1.534         26.0958         6.35934 
        1.54013         25.9147         6.29937 
        1.54627         25.8705         6.24007 
        1.55241         25.6917         6.18152 
        1.55855         25.5635         6.12382 
        1.56467         25.4194         6.06701 
         1.5708         25.3877         6.01077 
        1.57695         25.1239         5.95515 
        1.58308         25.1605         5.90038 
        1.58922         24.9932         5.84626 
        1.59535          24.831         5.79284 
         1.6015         24.7114         5.74002 
        1.60764          24.658         5.68789 
        1.61376         24.4564         5.63655 
        1.61989         24.3005         5.58581 
        1.62604         24.2938         5.53558 
        1.63218         24.1262           5.486 
        1.63831         24.0539         5.43715 
        1.64444         23.9148         5.38888 
        1.65059         23.7669         5.34109 
        1.65673         23.6604         5.29392 
        1.66285         23.5779         5.24747 
        1.66898         23.4776         5.20155 
        1.67512         23.4045          5.1561 
        1.68127         23.2274         5.11116 
         1.6874         23.1337         5.06686 
        1.69353         23.0566          5.0231 
        1.69967         22.8957         4.97977 
        1.70581         22.8159         4.93697 
        1.71193         22.7283         4.89483 
        1.71806          22.599          4.8531 
        1.72421         22.4884         4.81178 
        1.73035         22.3851         4.77099 
        1.73649         22.3275         4.73068 
        1.74262         22.2177         4.69087 
        1.74876         22.1594          4.6515 
        1.75489         22.0134         4.61266 
        1.76101         21.9195         4.57428 
        1.76715         21.8384         4.53628 
        1.77329         21.7668         4.49867 
        1.77943         21.6263         4.46147 
        1.78557         21.5541         4.42475 
        1.79171         21.4758         4.38844 
        1.79785         21.3308         4.35253 
        1.80399           21.24         4.31703 
        1.81012         21.2194         4.28198 
        1.81625         21.0998         4.24733 
        1.82239         21.0724         4.21301 
        1.82853         20.8805          4.1791 
        1.83466          20.775         4.14559 
        1.84078         20.6573         4.11248 
        1.84692         20.6497         4.07969 
        1.85306         20.5262         4.04721 
         1.8592         20.4341         4.01514 
        1.86533         20.3499         3.98344 
        1.87147         20.2612         3.95205 
        1.87761         20.2384         3.92098 
        1.88375         20.1407         3.89028 
        1.88988         20.0533         3.85995 
        1.89601         19.9086         3.82993 
        1.90215         19.8671          3.8002 
        1.90829         19.8217          3.7708 
        1.91442         19.7057         3.74171 
        1.92056         19.6282         3.71296 
         1.9267          19.533         3.68448 
        1.93284         19.4383         3.65629 
        1.93897         19.3891         3.62844 
        1.94509         19.3073         3.60095 
        1.95123         19.1974         3.57367 
        1.95737         19.1461         3.54665 
        1.96349         19.0551         3.51999 
        1.96964         18.9676         3.49353 
        1.97578         18.9228         3.46732 
        1.98192         18.7991         3.44144 
        1.98805         18.7608         3.41582 
        1.99419         18.6723         3.39047 
        2.00033         18.5499         3.36536 
        2.00647         18.4969         3.34051 
         2.0126         18.4183         3.31595 
        2.01874         18.3457         3.29161 
        2.02488         18.3238         3.26749 
        2.03101         18.2316         3.24366 
        2.03714         18.1539         3.22008 
        2.04328         18.0581         3.19672 
        2.04941         17.9827         3.17361 
        2.05554         17.9558         3.15074 
        2.06167         17.8858         3.12807 
        2.06781         17.8138         3.10562 
        2.07396         17.7486         3.08336 
        2.08009         17.6865         3.06136 
        2.08622         17.5664         3.03959 
        2.09237         17.5177           3.018 
        2.09851         17.4581         2.99661 
        2.10464         17.3952         2.97547 
        2.11077         17.2774         2.95456 
        2.11691           17.26          2.9338 
        2.12305         17.1776         2.91325 
        2.12918         17.1118         2.89294 
        2.13531         17.0471         2.87282 
        2.14145         16.9753         2.85285 
         2.1476         16.9165         2.83304 
        2.15372         16.8545         2.81353 
        2.15985         16.7476         2.79418 
        2.16599         16.7232         2.77495 
        2.17213          16.663         2.75593 
        2.17827         16.5898         2.73709 
         2.1844          16.511         2.71845 
        2.19054         16.4492         2.69997 
        2.19666         16.4274         2.68169 
         2.2028         16.3731         2.66357 
        2.20893         16.2681          2.6456 
        2.21508         16.1958         2.62778 
        2.22122         16.1217         2.61012 
        2.22736         16.0963         2.59266 
        2.23349         16.0141         2.57537 
        2.23962         15.9447         2.55822 
        2.24577         15.8734         2.54121 
         2.2519         15.8632         2.52439 
        2.25802         15.8077         2.50774 
        2.26417         15.7563          2.4912 
        2.27031         15.6611         2.47479 
        2.27644         15.6211         2.45858 
        2.28257         15.5466         2.44251 
        2.28872         15.4815         2.42656 
        2.29486         15.4307         2.41076 
        2.30099         15.3714         2.39513 
        2.30712         15.3588         2.37963 
        2.31326         15.2727         2.36424 
         2.3194         15.2299           2.349 
        2.32553         15.1541         2.33392 
        2.33166         15.0713         2.31898 
         2.3378         15.0281         2.30414 
        2.34394         14.9873         2.28944 
        2.35007         14.9114         2.27488 
        2.35619          14.829         2.26047 
        2.36233         14.8166         2.24615 
        2.36848           14.77         2.23193 
        2.37462           14.74         2.21785 
        2.38075         14.6529         2.20392 
        2.38689         14.6295         2.19009 
        2.39303          14.549         2.17638 
        2.39916         14.5099         2.16281 
        2.40529         14.4434         2.14935 
        2.41143         14.4047           2.136 
        2.41757         14.3523         2.12275 
         2.4237         14.2934         2.10965 
        2.42983         14.2468         2.09665 
        2.43598         14.1981         2.08373 
        2.44211         14.1395         2.07094 
        2.44823         14.0767         2.05829 
        2.45437         14.0556         2.04571 
        2.46052         13.9982         2.03322 
        2.46665          13.941         2.02086 
        2.47279         13.8706         2.00861 
        2.47892         13.8509         1.99645 
        2.48507         13.8098         1.98439 
         2.4912         13.7554         1.97244 
