# k  (h/Mpc)    P(k)  (Mpc/h)^3    P_linear(k)  (Mpc/h)^3
     0.00783031         17232.6         17548.2 
       0.013688         21467.6           21303 
       0.019231         21108.6         21088.5 
      0.0249154         18522.2         18950.3 
      0.0312784         15676.7         15858.9 
      0.0375637         13136.4         13117.3 
      0.0433917         11048.2         11228.9 
      0.0492413         9915.65         9966.07 
      0.0555754         8837.12         9112.26 
      0.0619321         8533.64         8513.57 
       0.067871         7744.11         7968.34 
      0.0738098         7120.99         7319.66 
      0.0800417         6288.86         6520.88 
      0.0862327         5589.83         5690.44 
      0.0921407         5008.67         4965.98 
      0.0982031         4403.07         4367.55 
       0.104506         4105.08         3928.54 
       0.110769         3806.85         3654.01 
       0.116806         3614.46         3489.01 
       0.122832         3467.35         3360.45 
       0.129052         3230.25         3210.82 
       0.135211         3051.05         3015.86 
       0.141259          2894.8         2780.55 
       0.147318         2693.94         2525.63 
       0.153489         2441.94          2279.4 
       0.159709         2290.33         2072.16 
       0.165845         2195.35         1919.92 
       0.171974         2080.62         1816.27 
       0.178125         1986.87         1746.46 
       0.184229         1906.36         1691.98 
        0.19034         1807.68         1634.57 
       0.196428         1767.61         1563.57 
       0.202534         1696.09          1476.5 
       0.208729         1609.58         1378.02 
       0.214876         1536.48         1280.45 
       0.220989         1477.31         1193.23 
       0.227147         1414.03         1121.24 
        0.23329         1357.42         1066.35 
       0.239377         1335.19         1025.55 
       0.245482         1252.65         992.705 
       0.251667         1246.64         961.469 
       0.257832         1196.69         927.654 
       0.263955         1156.64         889.407 
       0.270079         1114.52         847.115 
        0.27624         1100.49          803.22 
       0.282372         1054.79         761.402 
        0.28843         1044.33         724.476 
       0.294538         991.257         692.937 
       0.300721         985.464         666.543 
        0.30691         946.808         644.356 
       0.313033         928.136         624.559 
       0.319153         909.782         605.175 
       0.325316         881.285         584.793 
        0.33145         860.175         563.411 
       0.337538         844.407         541.468 
       0.343633         824.861         519.732 
       0.349808         795.827         498.893 
       0.355968         790.287         479.966 
       0.362074         782.049         463.329 
       0.368217         757.708         448.456 
       0.374374         727.815         434.974 
       0.380519         728.618          422.27 
       0.386598         707.599         409.929 
       0.392688         705.032         397.527 
        0.39888          684.34         384.766 
       0.405048         674.732         372.138 
       0.411186         665.317         359.918 
       0.417313         651.652         348.312 
       0.423458         639.042          337.48 
       0.429607         631.528         327.473 
       0.435692         616.879         318.271 
       0.441815         611.334         309.576 
       0.447964         599.025         301.216 
       0.454126         592.156         293.028 
       0.460267         578.023         284.989 
       0.466387         571.432         277.111 
        0.47254         566.082         269.349 
       0.478662          561.48         261.864 
       0.484765         543.268         254.723 
       0.490885         539.497         247.937 
       0.497035         529.067         241.468 
       0.503198         524.996         235.304 
       0.509342         520.656         229.433 
       0.515458          516.53         223.803 
       0.521598         502.934         218.308 
       0.527764         495.289         212.909 
       0.533884         492.676          207.68 
           0.54         486.895         202.604 
       0.546137          483.81         197.675 
       0.552299         476.128         192.902 
       0.558452         473.174         188.314 
       0.564573         467.198         183.928 
       0.570708         460.823         179.706 
       0.576825         449.524         175.649 
       0.582926         449.905         171.731 
       0.589034         445.663         167.916 
       0.595184         442.106         164.172 
       0.601379         434.984         160.504 
       0.607522         429.316         156.972 
       0.613639         428.343         153.562 
       0.619772         419.892         150.251 
       0.625918         418.011         147.038 
       0.632068         411.559         143.923 
       0.638161         409.903         140.931 
         0.6443         403.558         138.007 
       0.650464         400.887         135.158 
       0.656582         397.232         132.411 
       0.662703         396.552         129.741 
       0.668861          390.15         127.127 
       0.675024          386.77         124.581 
       0.681124         383.653         122.128 
       0.687237         380.433         119.736 
       0.693381         375.089         117.397 
       0.699536         370.518         115.118 
       0.705665         368.736         112.912 
       0.711789         367.375         110.769 
       0.717957         364.145         108.668 
        0.72409         361.879         106.636 
       0.730186         356.812         104.668 
       0.736317         354.187          102.74 
       0.742472         352.071         100.853 
       0.748622         348.708         99.0152 
        0.75476          344.42         97.2268 
       0.760888         341.125         95.4853 
       0.767043         341.517         93.7797 
       0.773185         337.863         92.1197 
       0.779291         333.317         90.5099 
       0.785407         332.408         88.9368 
       0.791564         328.453         87.3919 
       0.797719         326.261         85.8851 
       0.803834         322.826          84.424 
       0.809972         322.409          82.992 
       0.816124         321.325         81.5907 
       0.822261         317.637         80.2258 
       0.828378         315.299         78.8967 
       0.834502         312.241         77.5968 
       0.840667         310.085         76.3181 
       0.846816         308.656          75.072 
       0.852925         306.854          73.862 
       0.859047         304.586         72.6763 
       0.865192         300.989         71.5131 
       0.871341         298.694         70.3748 
       0.877463         298.397         69.2667 
       0.883569         296.239         68.1854 
       0.889708         293.319          67.122 
       0.895864         292.052         66.0787 
       0.902008         289.588           65.06 
       0.908149         287.193         64.0636 
       0.914301         284.645         63.0867 
       0.920448         283.253         62.1313 
       0.926574          279.98         61.1992 
       0.932687         280.175         60.2884 
       0.938823         277.133         59.3931 
       0.944975         276.691          58.514 
       0.951105         274.474         57.6561 
       0.957225         272.744          56.817 
       0.963368         269.128         55.9919 
       0.969511         268.456         55.1834 
       0.975621          266.39         54.3953 
       0.981748         265.582         53.6208 
       0.987916         264.075         52.8565 
        0.99406          260.65         52.1102 
        1.00019         259.878         51.3799 
        1.00632         258.626         50.6644 
        1.01246          256.53         49.9615 
        1.01859         257.013         49.2733 
        1.02471         252.751         48.5989 
        1.03085         251.664          47.935 
        1.03698         250.588          47.285 
        1.04314         248.294         46.6444 
        1.04929         246.733         46.0172 
        1.05541         247.193         45.4042 
        1.06154         243.369          44.801 
        1.06769         243.047         44.2078 
        1.07382         241.171         43.6275 
        1.07993           239.8          43.059 
        1.08607         239.364         42.4983 
        1.09222          237.07         41.9472 
        1.09836         235.498         41.4065 
        1.10449         233.471         40.8761 
        1.11063         231.722         40.3544 
        1.11677         231.285         39.8422 
         1.1229         229.347         39.3397 
        1.12903          228.51         38.8456 
        1.13518          226.94         38.3597 
        1.14131         225.254         37.8824 
        1.14745         225.253         37.4135 
        1.15359         223.232         36.9526 
        1.15973          221.43         36.4993 
        1.16584         220.283         36.0557 
        1.17197         220.375         35.6189 
        1.17811         217.482          35.188 
        1.18424         216.537         34.7656 
        1.19038         216.055          34.349 
        1.19652         214.138         33.9394 
        1.20267         213.814         33.5366 
        1.20881         212.006         33.1404 
        1.21495         210.794         32.7513 
        1.22108         209.535         32.3685 
         1.2272         208.238         31.9928 
        1.23334         207.706         31.6222 
        1.23949         205.654         31.2567 
        1.24562         205.014          30.898 
        1.25174         204.013         30.5455 
        1.25789         202.678         30.1974 
        1.26402         200.702         29.8555 
        1.27014         199.731         29.5197 
        1.27628          198.82         29.1881 
        1.28244         198.829          28.861 
        1.28858         196.666         28.5394 
        1.29471         195.567         28.2234 
        1.30084         194.624         27.9125 
        1.30697         193.174         27.6059 
        1.31312         191.814         27.3035 
        1.31925         190.953         27.0066 
        1.32537         190.642         26.7144 
        1.33151         188.797         26.4255 
        1.33765         187.607         26.1411 
        1.34378         187.109         25.8615 
        1.34992         186.151         25.5858 
        1.35606         186.117         25.3136 
         1.3622         184.084         25.0458 
        1.36833         182.702         24.7825 
        1.37445         182.161         24.5232 
        1.38059         180.634         24.2669 
        1.38675         180.145         24.0136 
        1.39288         179.219          23.765 
        1.39901         178.641           23.52 
        1.40515         176.873          23.278 
         1.4113         176.283         23.0394 
        1.41742         174.942         22.8052 
        1.42355         174.272         22.5738 
         1.4297         172.955         22.3449 
        1.43585          172.32         22.1193 
        1.44198         171.588         21.8977 
        1.44809         170.746         21.6796 
        1.45423          169.98         21.4636 
        1.46036         168.664          21.251 
        1.46649         167.669         21.0413 
        1.47263         166.823         20.8342 
        1.47877         165.662           20.63 
        1.48491         164.305         20.4282 
        1.49104         164.301         20.2296 
        1.49718         162.778         20.0335 
        1.50333         162.093         19.8397 
        1.50947         161.195         19.6489 
         1.5156         160.372         19.4608 
        1.52172         159.692         19.2753 
        1.52787         158.273         19.0918 
          1.534          157.95         18.9109 
        1.54013         157.026         18.7326 
        1.54627         156.074         18.5562 
        1.55241         155.121         18.3821 
        1.55855         154.366         18.2105 
        1.56467         153.226         18.0416 
         1.5708         152.429         17.8744 
        1.57695         152.129          17.709 
        1.58308         151.254         17.5461 
        1.58922         150.546         17.3852 
        1.59535         149.447         17.2263 
         1.6015         148.946         17.0692 
        1.60764         148.174         16.9142 
        1.61376          147.23         16.7615 
        1.61989          146.43         16.6106 
        1.62604         145.374         16.4613 
        1.63218         145.159         16.3138 
        1.63831         144.101         16.1686 
        1.64444         143.401          16.025 
        1.65059         142.648         15.8829 
        1.65673         141.713         15.7427 
        1.66285         141.186         15.6045 
        1.66898         140.267          15.468 
        1.67512         139.841         15.3328 
        1.68127         138.832         15.1992 
         1.6874         138.002         15.0674 
        1.69353         137.574         14.9373 
        1.69967         136.696         14.8085 
        1.70581         135.943         14.6812 
        1.71193         135.244         14.5559 
        1.71806         134.687         14.4318 
        1.72421         134.026         14.3089 
        1.73035         133.677         14.1876 
        1.73649         132.723         14.0677 
        1.74262         131.919         13.9493 
        1.74876          131.36         13.8323 
        1.75489          130.52         13.7168 
        1.76101         129.619         13.6026 
        1.76715         129.328         13.4896 
        1.77329         128.754         13.3778 
        1.77943         127.953         13.2672 
        1.78557          127.58          13.158 
        1.79171         126.556           13.05 
        1.79785          125.94         12.9432 
        1.80399         125.264         12.8376 
        1.81012          124.74         12.7334 
        1.81625          124.21         12.6304 
        1.82239         123.617         12.5283 
        1.82853         122.791         12.4275 
        1.83466         122.177         12.3278 
        1.84078         121.631         12.2294 
        1.84692         120.671         12.1319 
        1.85306         120.505         12.0353 
         1.8592         119.664         11.9399 
        1.86533         118.995         11.8456 
        1.87147         118.335         11.7523 
        1.87761         117.576         11.6599 
        1.88375         117.064         11.5686 
        1.88988          116.44         11.4784 
        1.89601         115.862         11.3891 
        1.90215          115.27         11.3007 
        1.90829         114.769         11.2133 
        1.91442         114.304         11.1268 
        1.92056         113.457         11.0413 
         1.9267         113.188         10.9566 
        1.93284         112.464         10.8728 
        1.93897          111.84           10.79 
        1.94509         111.466         10.7082 
        1.95123         110.827         10.6271 
        1.95737         110.243         10.5468 
        1.96349         109.689         10.4675 
        1.96964         108.802         10.3888 
        1.97578         108.291         10.3108 
        1.98192         108.044         10.2339 
        1.98805         107.383         10.1577 
        1.99419         106.949         10.0823 
        2.00033         106.264         10.0076 
        2.00647         105.935         9.93373 
         2.0126         105.166         9.86071 
        2.01874         104.581         9.78832 
        2.02488         104.323         9.71659 
        2.03101         103.523         9.64572 
        2.03714         102.997         9.57562 
        2.04328         102.524         9.50614 
        2.04941         102.054         9.43742 
        2.05554         101.447         9.36942 
        2.06167         101.143           9.302 
        2.06781         100.339         9.23524 
        2.07396         100.143         9.16905 
        2.08009          99.597         9.10361 
        2.08622         98.9104          9.0389 
        2.09237         98.5908         8.97468 
        2.09851         98.0652         8.91109 
        2.10464         97.5993         8.84822 
        2.11077         97.0348         8.78603 
        2.11691          96.734          8.7243 
        2.12305         96.1187         8.66317 
        2.12918         95.5516         8.60278 
        2.13531         95.1413         8.54295 
        2.14145           94.47         8.48356 
         2.1476         94.0509         8.42467 
        2.15372         93.7077         8.36663 
        2.15985         93.2536         8.30909 
        2.16599         92.6082         8.25192 
        2.17213         92.3112         8.19536 
        2.17827         91.7602         8.13934 
         2.1844         91.2778          8.0839 
        2.19054         90.9722         8.02895 
        2.19666         90.5354          7.9746 
         2.2028         90.0462          7.9207 
        2.20893         89.6599         7.86728 
        2.21508         89.1422         7.81429 
        2.22122         88.7251         7.76177 
        2.22736         88.2354         7.70985 
        2.23349         87.8399         7.65841 
        2.23962         87.5136         7.60742 
        2.24577         87.0905         7.55685 
         2.2519         86.7199         7.50681 
        2.25802         86.1592         7.45731 
        2.26417         85.7893         7.40812 
        2.27031         85.3333         7.35933 
        2.27644         84.7581         7.31112 
        2.28257         84.4064         7.26335 
        2.28872           84.21         7.21591 
        2.29486         83.5768         7.16891 
        2.30099         82.9792         7.12243 
        2.30712         82.8551         7.07634 
        2.31326         82.3895         7.03058 
         2.3194         81.9827         6.98526 
        2.32553         81.6933         6.94041 
        2.33166         81.2573         6.89598 
         2.3378         80.7128         6.85187 
        2.34394         80.3643         6.80814 
        2.35007         80.0698         6.76485 
        2.35619         79.6367           6.722 
        2.36233         79.1808         6.67941 
        2.36848         78.8159         6.63711 
        2.37462         78.3768         6.59527 
        2.38075         78.0986         6.55382 
        2.38689         77.6794          6.5127 
        2.39303         77.2028         6.47194 
        2.39916          76.931         6.43157 
        2.40529         76.7353         6.39156 
        2.41143          76.059         6.35185 
        2.41757         75.8708         6.31246 
         2.4237         75.5004         6.27349 
        2.42983         75.0933         6.23484 
        2.43598         74.6791         6.19642 
        2.44211         74.4673         6.15839 
        2.44823         74.0454         6.12077 
        2.45437          73.572         6.08336 
        2.46052         73.3166         6.04623 
        2.46665         73.0334         6.00948 
        2.47279         72.5541         5.97304 
        2.47892         72.2641         5.93689 
        2.48507         71.8635           5.901 
         2.4912         71.5627         5.86548 
