# k  (h/Mpc)    P(k)  (Mpc/h)^3    P_linear(k)  (Mpc/h)^3
     0.00783031         761.957         767.493 
       0.013688         992.881         1002.92 
       0.019231         1070.23         1074.96 
      0.0249154         1055.72         1056.43 
      0.0312784          977.45         979.438 
      0.0375637         883.573          886.47 
      0.0433917         807.342         806.794 
      0.0492413         739.542         741.089 
      0.0555754         686.412         685.616 
      0.0619321         635.534         640.632 
       0.067871         600.353         602.061 
      0.0738098         561.452         562.509 
      0.0800417         518.429         518.368 
      0.0862327         472.231         473.181 
      0.0921407         430.588         431.633 
      0.0982031         393.857         393.487 
       0.104506         358.932         360.581 
       0.110769         333.691          334.96 
       0.116806         316.529          315.76 
       0.122832         299.036         300.011 
       0.129052         285.165         285.171 
       0.135211         271.125         270.227 
       0.141259         254.473         254.593 
       0.147318         236.906         238.188 
       0.153489         221.421         221.567 
       0.159709         206.793         205.979 
       0.165845         191.564         192.557 
       0.171974         182.791         181.422 
       0.178125         173.735         172.347 
       0.184229         165.171         164.874 
        0.19034         159.675         158.221 
       0.196428         153.092         151.783 
       0.202534         145.019          145.11 
       0.208729         139.201         138.015 
       0.214876         132.901         130.817 
       0.220989         124.308         123.826 
       0.227147         119.628         117.286 
        0.23329         114.123         111.492 
       0.239377         109.476         106.533 
       0.245482         104.773         102.256 
       0.251667         100.432         98.4351 
       0.257832         97.8759          94.904 
       0.263955           93.63         91.4753 
       0.270079         90.2185         88.0081 
        0.27624         86.1823         84.4629 
       0.282372         82.9346         80.9419 
        0.28843         80.6653         77.5686 
       0.294538         77.2192         74.3757 
       0.300721         73.7997         71.4219 
        0.30691         71.8773         68.7619 
       0.313033         69.2275         66.3896 
       0.319153         67.8051         64.2114 
       0.325316         64.7676         62.1382 
        0.33145         62.7403         60.1334 
       0.337538         60.9414         58.1642 
       0.343633         59.1615          56.209 
       0.349808         57.1251         54.2611 
       0.355968         55.1959         52.3828 
       0.362074         53.8583         50.6135 
       0.368217         52.1635         48.9479 
       0.374374         51.0551         47.3957 
       0.380519         48.9984         45.9534 
       0.386598         47.5629          44.612 
       0.392688         46.2149         43.3289 
        0.39888         45.2177         42.0672 
       0.405048         44.0693         40.8407 
       0.411186          42.834         39.6452 
       0.417313         41.6553         38.4827 
       0.423458         40.3676         37.3547 
       0.429607         39.6179         36.2719 
       0.435692         38.7938         35.2527 
       0.441815         37.4107         34.2794 
       0.447964         36.3159         33.3508 
       0.454126         35.6745         32.4642 
       0.460267         35.2121         31.6162 
       0.466387         34.1716         30.7988 
        0.47254         33.5692         30.0005 
       0.478662         32.6096         29.2287 
       0.484765         31.8863         28.4806 
       0.490885         30.9956         27.7535 
       0.497035         30.3237         27.0486 
       0.503198         29.6792         26.3699 
       0.509342         28.8997         25.7201 
       0.515458         28.4848         25.0985 
       0.521598         27.8322         24.4982 
       0.527764         27.4322         23.9168 
       0.533884         26.6505         23.3584 
           0.54         26.1553         22.8166 
       0.546137         25.4005         22.2884 
       0.552299         24.9705         21.7735 
       0.558452         24.4659         21.2751 
       0.564573         24.1236         20.7945 
       0.570708         23.5569         20.3282 
       0.576825         23.1489         19.8785 
       0.582926         22.6915         19.4449 
       0.589034         22.2818         19.0249 
       0.595184         21.9757         18.6152 
       0.601379         21.3933         18.2148 
       0.607522         21.0438          17.829 
       0.613639         20.5981         17.4556 
       0.619772         20.3052         17.0917 
       0.625918         19.8791         16.7374 
       0.632068         19.6619          16.393 
       0.638161         19.2632         16.0615 
         0.6443         18.9182          15.737 
       0.650464          18.464         15.4205 
       0.656582         18.3374         15.1153 
       0.662703         18.0828         14.8185 
       0.668861         17.5969         14.5281 
       0.675024         17.3504         14.2455 
       0.681124         17.2758         13.9733 
       0.687237         16.9037         13.7076 
       0.693381         16.4881         13.4475 
       0.699536         16.4064         13.1936 
       0.705665         16.1041         12.9474 
       0.711789         15.7816         12.7077 
       0.717957         15.4725         12.4726 
        0.72409         15.3291         12.2449 
       0.730186         15.2034         12.0243 
       0.736317         14.8877         11.8081 
       0.742472          14.697         11.5965 
       0.748622         14.4736         11.3903 
        0.75476         14.1196         11.1896 
       0.760888         14.0254         10.9941 
       0.767043         13.7453         10.8024 
       0.773185         13.5848         10.6158 
       0.779291         13.5092         10.4346 
       0.785407         13.2402         10.2574 
       0.791564         13.0968         10.0832 
       0.797719         12.8448         9.91325 
       0.803834         12.7372         9.74831 
       0.809972         12.5088         9.58658 
       0.816124         12.3613          9.4282 
       0.822261         12.2089         9.27387 
       0.828378         12.0305          9.1235 
       0.834502         11.9042         8.97636 
       0.840667         11.7844         8.83154 
       0.846816         11.5522         8.69034 
       0.852925         11.4398         8.55315 
       0.859047         11.3004         8.41865 
       0.865192         11.1453         8.28662 
       0.871341         10.9837         8.15736 
       0.877463         10.8629         8.03146 
       0.883569         10.7583         7.90856 
       0.889708         10.6004         7.78762 
       0.895864         10.4692         7.66891 
       0.902008         10.3264         7.55295 
       0.908149         10.1974         7.43948 
       0.914301         10.1182         7.32817 
       0.920448         9.97496         7.21926 
       0.926574         9.92031         7.11295 
       0.932687         9.75594         7.00903 
       0.938823         9.61682         6.90683 
       0.944975         9.53722         6.80645 
       0.951105         9.39336         6.70843 
       0.957225          9.3333         6.61252 
       0.963368          9.2312         6.51818 
       0.969511         9.12442         6.42568 
       0.975621         9.01237         6.33549 
       0.981748         8.86534          6.2468 
       0.987916         8.79368         6.15927 
        0.99406         8.74411         6.07375 
        1.00019         8.64751         5.99004 
        1.00632         8.56118         5.90799 
        1.01246         8.44527         5.82736 
        1.01859         8.35371         5.74838 
        1.02471         8.23604         5.67096 
        1.03085         8.20416         5.59471 
        1.03698         8.11364         5.52003 
        1.04314         8.03489         5.44641 
        1.04929         7.91851          5.3743 
        1.05541          7.8535          5.3038 
        1.06154         7.78674          5.2344 
        1.06769         7.75241         5.16615 
        1.07382         7.61559         5.09934 
        1.07993         7.53057         5.03387 
        1.08607         7.49302         4.96929 
        1.09222          7.3915         4.90578 
        1.09836         7.37952         4.84347 
        1.10449         7.22558         4.78231 
        1.11063         7.19963         4.72215 
        1.11677         7.13746         4.66305 
         1.1229         7.06472         4.60507 
        1.12903         7.01781         4.54803 
        1.13518         6.91003         4.49192 
        1.14131         6.85318         4.43679 
        1.14745         6.77411         4.38262 
        1.15359         6.72616         4.32935 
        1.15973         6.65937         4.27694 
        1.16584         6.60523         4.22565 
        1.17197         6.53927         4.17512 
        1.17811          6.4779         4.12527 
        1.18424         6.42297         4.07639 
        1.19038         6.36897         4.02815 
        1.19652         6.32702         3.98072 
        1.20267         6.27149         3.93406 
        1.20881         6.20834         3.88816 
        1.21495          6.1559         3.84306 
        1.22108          6.1116          3.7987 
         1.2272         6.03489         3.75513 
        1.23334         6.02705         3.71216 
        1.23949         5.95477         3.66976 
        1.24562         5.90574         3.62814 
        1.25174          5.8657         3.58723 
        1.25789         5.78801         3.54683 
        1.26402         5.74776         3.50712 
        1.27014         5.70789         3.46812 
        1.27628         5.64917          3.4296 
        1.28244         5.62315         3.39159 
        1.28858         5.58429         3.35422 
        1.29471         5.50887         3.31749 
        1.30084         5.46776         3.28134 
        1.30697         5.43887         3.24569 
        1.31312          5.3945         3.21051 
        1.31925         5.35035         3.17597 
        1.32537         5.31658         3.14197 
        1.33151         5.26497         3.10835 
        1.33765         5.22721         3.07524 
        1.34378         5.19869         3.04269 
        1.34992          5.1552         3.01058 
        1.35606         5.11686         2.97887 
         1.3622         5.07997         2.94767 
        1.36833         5.02847           2.917 
        1.37445         4.98676         2.88678 
        1.38059         4.95666          2.8569 
        1.38675         4.91734         2.82738 
        1.39288         4.89248         2.79838 
        1.39901         4.83983         2.76981 
        1.40515         4.81011         2.74158 
         1.4113         4.77967         2.71375 
        1.41742         4.73778         2.68642 
        1.42355         4.70087         2.65941 
         1.4297         4.67992         2.63269 
        1.43585         4.64327         2.60635 
        1.44198         4.60883         2.58048 
        1.44809         4.58547           2.555 
        1.45423         4.55237         2.52977 
        1.46036         4.51944         2.50493 
        1.46649         4.47191         2.48042 
        1.47263         4.46043         2.45622 
        1.47877         4.42927         2.43235 
        1.48491         4.39306         2.40876 
        1.49104         4.36456         2.38553 
        1.49718         4.33824         2.36259 
        1.50333         4.30485         2.33992 
        1.50947         4.27034          2.3176 
         1.5156         4.25148          2.2956 
        1.52172         4.22511         2.27388 
        1.52787         4.19628         2.25241 
          1.534         4.17009         2.23123 
        1.54013          4.1368         2.21036 
        1.54627         4.11122         2.18971 
        1.55241         4.07866         2.16932 
        1.55855         4.06124         2.14923 
        1.56467         4.03354         2.12944 
         1.5708         4.00667         2.10985 
        1.57695         3.97037         2.09047 
        1.58308         3.94558         2.07139 
        1.58922         3.93768         2.05253 
        1.59535         3.90248         2.03391 
         1.6015         3.87204         2.01549 
        1.60764         3.85486         1.99732 
        1.61376          3.8276         1.97942 
        1.61989         3.80113         1.96172 
        1.62604         3.77688          1.9442 
        1.63218         3.76341         1.92691 
        1.63831         3.74508         1.90987 
        1.64444         3.71628         1.89303 
        1.65059         3.69948         1.87635 
        1.65673         3.66818         1.85989 
        1.66285         3.64723         1.84368 
        1.66898         3.62836         1.82765 
        1.67512         3.59862         1.81178 
        1.68127         3.57511         1.79609 
         1.6874         3.57209         1.78062 
        1.69353         3.53064         1.76534 
        1.69967         3.51854          1.7502 
        1.70581         3.50413         1.73525 
        1.71193         3.46975         1.72053 
        1.71806         3.45372         1.70595 
        1.72421         3.43837         1.69151 
        1.73035         3.41336         1.67725 
        1.73649         3.40318         1.66316 
        1.74262         3.38059         1.64924 
        1.74876         3.35826         1.63548 
        1.75489         3.34414          1.6219 
        1.76101         3.31834         1.60848 
        1.76715         3.30774         1.59519 
        1.77329         3.28338         1.58204 
        1.77943         3.26702         1.56902 
        1.78557         3.24935         1.55618 
        1.79171         3.23724         1.54348 
        1.79785         3.21488         1.53091 
        1.80399         3.19706         1.51849 
        1.81012          3.1761         1.50623 
        1.81625         3.15739          1.4941 
        1.82239          3.1432         1.48209 
        1.82853         3.12564         1.47022 
        1.83466          3.1022         1.45849 
        1.84078         3.08912          1.4469 
        1.84692         3.07356         1.43542 
        1.85306         3.06113         1.42405 
         1.8592         3.04346         1.41282 
        1.86533           3.026         1.40172 
        1.87147         3.01112         1.39072 
        1.87761         2.99869         1.37984 
        1.88375         2.98091         1.36908 
        1.88988         2.96729         1.35846 
        1.89601         2.94506         1.34794 
        1.90215          2.9296         1.33752 
        1.90829         2.92271         1.32722 
        1.91442         2.90137         1.31703 
        1.92056         2.89253         1.30695 
         1.9267         2.87911         1.29697 
        1.93284         2.86258         1.28709 
        1.93897         2.83933         1.27732 
        1.94509         2.83611         1.26768 
        1.95123          2.8159         1.25812 
        1.95737         2.80582         1.24865 
        1.96349         2.78983          1.2393 
        1.96964         2.77598         1.23002 
        1.97578         2.76101         1.22083 
        1.98192         2.74335         1.21175 
        1.98805         2.73816         1.20276 
        1.99419          2.7205         1.19386 
        2.00033         2.70431         1.18505 
        2.00647          2.6986         1.17634 
         2.0126         2.68473         1.16772 
        2.01874         2.67072         1.15918 
        2.02488         2.65482         1.15071 
        2.03101         2.64446         1.14235 
        2.03714         2.63593         1.13407 
        2.04328         2.61845         1.12587 
        2.04941         2.60705         1.11776 
        2.05554         2.59688         1.10973 
        2.06167         2.58093         1.10177 
        2.06781         2.57054         1.09389 
        2.07396         2.55813         1.08608 
        2.08009         2.54951         1.07835 
        2.08622         2.53514         1.07071 
        2.09237         2.52802         1.06312 
        2.09851         2.50786         1.05561 
        2.10464         2.50705         1.04819 
        2.11077         2.49446         1.04084 
        2.11691         2.47774         1.03355 
        2.12305         2.46751         1.02633 
        2.12918         2.45435         1.01919 
        2.13531         2.44366         1.01212 
        2.14145         2.43532         1.00511 
         2.1476         2.42047        0.998149 
        2.15372          2.4083        0.991291 
        2.15985         2.39949         0.98449 
        2.16599         2.39335        0.977734 
        2.17213         2.38167        0.971049 
        2.17827          2.3681        0.964428 
         2.1844         2.35782        0.957875 
        2.19054          2.3488         0.95138 
        2.19666         2.33867        0.944955 
         2.2028         2.32608        0.938584 
        2.20893         2.31649        0.932268 
        2.21508         2.31082        0.926003 
        2.22122         2.30106        0.919794 
        2.22736         2.28343        0.913654 
        2.23349         2.27712        0.907572 
        2.23962          2.2696        0.901542 
        2.24577         2.25838        0.895562 
         2.2519         2.24632        0.889644 
        2.25802         2.24344         0.88379 
        2.26417         2.23102        0.877971 
        2.27031         2.22063          0.8722 
        2.27644         2.21355        0.866497 
        2.28257         2.19795        0.860846 
        2.28872         2.19391        0.855234 
        2.29486         2.18396        0.849674 
        2.30099         2.17174        0.844174 
        2.30712         2.16891        0.838721 
        2.31326         2.15786        0.833307 
         2.3194         2.14769        0.827943 
        2.32553          2.1422        0.822636 
        2.33166         2.13537        0.817378 
         2.3378         2.12405        0.812158 
        2.34394         2.11369        0.806983 
        2.35007         2.10151         0.80186 
        2.35619         2.09836        0.796787 
        2.36233         2.08817        0.791747 
        2.36848         2.08176         0.78674 
        2.37462         2.07459        0.781786 
        2.38075         2.06367         0.77688 
        2.38689         2.05834        0.772012 
        2.39303         2.05136        0.767187 
        2.39916         2.03794        0.762408 
        2.40529         2.03444        0.757669 
        2.41143         2.02568        0.752968 
        2.41757         2.01904        0.748305 
         2.4237         2.01096        0.743689 
        2.42983         2.00019        0.739113 
        2.43598         1.99622        0.734563 
        2.44211           1.987        0.730059 
        2.44823         1.97965        0.725603 
        2.45437         1.97302        0.721172 
        2.46052         1.96481        0.716775 
        2.46665         1.95811        0.712421 
        2.47279         1.94744        0.708106 
        2.47892         1.94202        0.703823 
        2.48507          1.9332        0.699572 
         2.4912         1.92768        0.695364 
