# k  (h/Mpc)    Pcb(k)  (Mpc/h)^3    Pcb_linear(k)  (Mpc/h)^3
     0.00783031         6901.77         6931.36 
       0.013688         8882.39         9059.28 
       0.019231         9601.35         9710.68 
      0.0249154         9534.84         9543.61 
      0.0312784         8758.79         8848.25 
      0.0375637         7874.42         8008.48 
      0.0433917          7229.1         7288.73 
      0.0492413         6584.32         6695.17 
      0.0555754         6124.12         6194.04 
      0.0619321         5578.32         5787.66 
       0.067871         5304.45         5439.21 
      0.0738098         4978.23         5081.89 
      0.0800417         4597.16         4683.11 
      0.0862327         4178.12         4274.88 
      0.0921407         3817.17         3899.52 
      0.0982031         3514.18         3554.91 
       0.104506         3183.82         3257.62 
       0.110769         2966.16         3026.15 
       0.116806         2842.78         2852.69 
       0.122832         2668.19         2710.41 
       0.129052         2542.96         2576.35 
       0.135211         2447.33         2441.33 
       0.141259         2282.61         2300.09 
       0.147318         2113.27         2151.88 
       0.153489         1995.09         2001.73 
       0.159709         1901.06         1860.89 
       0.165845         1742.01         1739.64 
       0.171974         1697.57         1639.04 
       0.178125         1633.84         1557.05 
       0.184229         1521.55         1489.53 
        0.19034         1491.59         1429.43 
       0.196428         1444.41         1371.27 
       0.202534         1355.93         1310.98 
       0.208729         1326.47         1246.88 
       0.214876         1273.63         1181.85 
       0.220989         1194.83         1118.69 
       0.227147            1168         1059.61 
        0.23329         1124.56         1007.26 
       0.239377         1105.39         962.465 
       0.245482         1052.41         923.817 
       0.251667         1013.26         889.302 
       0.257832         1002.77           857.4 
       0.263955         952.244         826.424 
       0.270079         924.258         795.099 
        0.27624         885.336         763.071 
       0.282372         868.629         731.261 
        0.28843         861.063         700.786 
       0.294538         818.599         671.939 
       0.300721         794.987         645.253 
        0.30691         782.433         621.223 
       0.313033         751.204          599.79 
       0.319153         739.713         580.111 
       0.325316         726.535         561.381 
        0.33145         712.109         543.269 
       0.337538         687.586         525.479 
       0.343633         668.116         507.815 
       0.349808         652.468         490.216 
       0.355968         640.549         473.247 
       0.362074          622.37         457.263 
       0.368217         617.634         442.214 
       0.374374         606.581         428.192 
       0.380519         583.807         415.161 
       0.386598         577.237         403.043 
       0.392688         566.262         391.451 
        0.39888         551.184         380.051 
       0.405048         542.902         368.971 
       0.411186         539.761         358.171 
       0.417313          532.86         347.668 
       0.423458         517.244         337.477 
       0.429607         505.194         327.695 
       0.435692         496.914         318.487 
       0.441815         489.594         309.693 
       0.447964         479.152         301.305 
       0.454126         473.066         293.294 
       0.460267         466.114         285.633 
       0.466387         459.234         278.248 
        0.47254         452.656         271.037 
       0.478662         442.077         264.063 
       0.484765         437.915         257.305 
       0.490885         433.509         250.736 
       0.497035          426.12         244.368 
       0.503198         424.402         238.236 
       0.509342          413.58         232.366 
       0.515458         408.295          226.75 
       0.521598         401.081         221.327 
       0.527764         395.644         216.074 
       0.533884          394.83         211.029 
           0.54         388.211         206.135 
       0.546137          380.08         201.362 
       0.552299         379.355         196.711 
       0.558452         373.493         192.208 
       0.564573         369.531         187.866 
       0.570708         364.779         183.653 
       0.576825         358.562          179.59 
       0.582926         355.272         175.673 
       0.589034         350.962         171.878 
       0.595184         348.801         168.177 
       0.601379         342.373          164.56 
       0.607522         337.142         161.075 
       0.613639         334.964         157.701 
       0.619772         333.108         154.413 
       0.625918         328.865         151.212 
       0.632068         323.411         148.101 
       0.638161         320.315         145.106 
         0.6443         318.681         142.174 
       0.650464         313.728         139.315 
       0.656582         311.032         136.557 
       0.662703         308.905         133.876 
       0.668861         303.946         131.253 
       0.675024         302.665           128.7 
       0.681124         299.148          126.24 
       0.687237         296.128          123.84 
       0.693381         293.696          121.49 
       0.699536         290.138         119.196 
       0.705665           287.1         116.972 
       0.711789         285.078         114.807 
       0.717957         281.681         112.682 
        0.72409         279.531         110.625 
       0.730186         280.018         108.632 
       0.736317         275.152         106.679 
       0.742472         271.612         104.767 
       0.748622         268.309         102.905 
        0.75476         268.892         101.092 
       0.760888         265.717         99.3249 
       0.767043         262.668         97.5935 
       0.773185         260.884          95.907 
       0.779291         257.148         94.2701 
       0.785407         256.077         92.6693 
       0.791564         253.545          91.096 
       0.797719         250.133         89.5603 
       0.803834         251.226         88.0701 
       0.809972         248.981          86.609 
       0.816124         245.844         85.1782 
       0.822261         243.082         83.7839 
       0.828378          243.38         82.4253 
       0.834502          239.18          81.096 
       0.840667         238.767         79.7876 
       0.846816         235.931          78.512 
       0.852925          234.37         77.2725 
       0.859047         231.935         76.0574 
       0.865192         231.548         74.8646 
       0.871341         228.401         73.6968 
       0.877463          226.62         72.5594 
       0.883569           226.3          71.449 
       0.889708          224.53         70.3564 
       0.895864         222.451          69.284 
       0.902008         220.512         68.2364 
       0.908149         218.303         67.2112 
       0.914301         217.966         66.2056 
       0.920448         216.468         65.2216 
       0.926574         214.161         64.2613 
       0.932687          213.14         63.3224 
       0.938823         211.495         62.3991 
       0.944975         209.515         61.4922 
       0.951105         208.062         60.6066 
       0.957225         207.294         59.7402 
       0.963368          205.53         58.8878 
       0.969511         203.081         58.0522 
       0.975621         202.046         57.2373 
       0.981748          200.47         56.4361 
       0.987916          199.57         55.6453 
        0.99406         198.128         54.8727 
        1.00019         196.859         54.1164 
        1.00632         196.133         53.3751 
        1.01246         194.468         52.6467 
        1.01859         192.697         51.9331 
        1.02471         191.293         51.2337 
        1.03085         190.291         50.5448 
        1.03698         188.779         49.8701 
        1.04314         188.193          49.205 
        1.04929         187.171         48.5536 
        1.05541         185.753         47.9167 
        1.06154         184.721         47.2897 
        1.06769          182.73          46.673 
        1.07382         182.083         46.0695 
        1.07993         180.905          45.478 
        1.08607          179.24         44.8945 
        1.09222         178.638         44.3208 
        1.09836         177.151         43.7578 
        1.10449         175.738         43.2053 
        1.11063         174.717         42.6618 
        1.11677         174.014         42.1278 
         1.1229         172.513          41.604 
        1.12903         172.047         41.0887 
        1.13518         170.796         40.5818 
        1.14131         169.757         40.0837 
        1.14745         168.297         39.5943 
        1.15359          166.73          39.113 
        1.15973         166.255         38.6396 
        1.16584         165.445         38.1762 
        1.17197         164.518         37.7197 
        1.17811          163.02         37.2693 
        1.18424          162.07         36.8277 
        1.19038         161.395         36.3919 
        1.19652         160.002         35.9634 
        1.20267         159.183         35.5419 
        1.20881         158.139         35.1272 
        1.21495         157.812         34.7198 
        1.22108         156.323         34.3189 
         1.2272         155.269         33.9254 
        1.23334         154.783         33.5371 
        1.23949          154.18          33.154 
        1.24562         152.728          32.778 
        1.25174         151.398         32.4084 
        1.25789         151.214         32.0434 
        1.26402         150.328         31.6847 
        1.27014         149.339         31.3324 
        1.27628          147.65         30.9844 
        1.28244          147.44          30.641 
        1.28858         146.295         30.3033 
        1.29471          145.43         29.9715 
        1.30084         144.655         29.6449 
        1.30697         144.235         29.3228 
        1.31312         143.114          29.005 
        1.31925         141.943         28.6929 
        1.32537         141.474         28.3858 
        1.33151         140.839          28.082 
        1.33765         139.353         27.7829 
        1.34378         139.486         27.4888 
        1.34992         138.679         27.1988 
        1.35606         137.531         26.9123 
         1.3622          137.16         26.6305 
        1.36833         135.646         26.3533 
        1.37445         135.253         26.0803 
        1.38059         134.495         25.8104 
        1.38675         133.581         25.5436 
        1.39288         132.924         25.2817 
        1.39901         131.722         25.0236 
        1.40515          131.57         24.7685 
         1.4113           130.8         24.5171 
        1.41742         129.799         24.2701 
        1.42355         129.253         24.0261 
         1.4297         128.392         23.7848 
        1.43585         127.429         23.5468 
        1.44198          126.68          23.313 
        1.44809         125.856         23.0829 
        1.45423         125.453          22.855 
        1.46036         124.497         22.6306 
        1.46649         123.804         22.4091 
        1.47263         123.458         22.1904 
        1.47877         122.481         21.9748 
        1.48491         121.649         21.7617 
        1.49104         120.575         21.5518 
        1.49718         120.668         21.3446 
        1.50333         119.843         21.1398 
        1.50947         119.308         20.9381 
         1.5156         118.533         20.7393 
        1.52172         117.773         20.5431 
        1.52787         117.013         20.3491 
          1.534         116.754         20.1578 
        1.54013         116.047         19.9692 
        1.54627          115.06         19.7827 
        1.55241          114.47         19.5985 
        1.55855         113.977          19.417 
        1.56467         112.958         19.2382 
         1.5708         112.728         19.0612 
        1.57695         112.171         18.8861 
        1.58308         111.502         18.7137 
        1.58922         111.119         18.5433 
        1.59535         110.483         18.3751 
         1.6015         109.807         18.2088 
        1.60764         109.061         18.0446 
        1.61376          108.43         17.8828 
        1.61989         107.755          17.723 
        1.62604         107.246         17.5647 
        1.63218         106.867         17.4085 
        1.63831         105.995         17.2545 
        1.64444         105.528         17.1024 
        1.65059         104.878         16.9517 
        1.65673         104.193          16.803 
        1.66285          103.72         16.6565 
        1.66898         102.976         16.5117 
        1.67512         102.755         16.3684 
        1.68127         102.069         16.2266 
         1.6874         101.498         16.0868 
        1.69353          100.83         15.9487 
        1.69967         100.635          15.812 
        1.70581         100.019         15.6769 
        1.71193         99.3922         15.5439 
        1.71806         98.5939         15.4122 
        1.72421         98.2444         15.2817 
        1.73035         97.9936         15.1529 
        1.73649         97.2439         15.0256 
        1.74262         96.5152         14.8999 
        1.74876         96.1618         14.7755 
        1.75489         95.4636         14.6528 
        1.76101         94.9959         14.5316 
        1.76715         94.6166         14.4115 
        1.77329         93.9622         14.2927 
        1.77943         93.5671         14.1752 
        1.78557          93.195         14.0591 
        1.79171         92.5591         13.9444 
        1.79785          91.996         13.8309 
        1.80399         91.5688         13.7186 
        1.81012         90.9726         13.6078 
        1.81625         90.7416         13.4983 
        1.82239         90.4141         13.3898 
        1.82853          89.643         13.2825 
        1.83466         89.1286         13.1766 
        1.84078         88.7294         13.0719 
        1.84692         88.3975         12.9681 
        1.85306         87.8783         12.8654 
         1.8592         87.4632         12.7639 
        1.86533         86.8617         12.6636 
        1.87147         86.3656         12.5643 
        1.87761         85.8651          12.466 
        1.88375         85.3091         12.3688 
        1.88988         84.9588         12.2728 
        1.89601         84.4664         12.1778 
        1.90215         84.0042         12.0837 
        1.90829         83.6448         11.9906 
        1.91442         83.2816         11.8985 
        1.92056         82.6946         11.8075 
         1.9267          82.384         11.7173 
        1.93284          82.062          11.628 
        1.93897         81.6267         11.5398 
        1.94509         81.0722         11.4528 
        1.95123         80.7642         11.3663 
        1.95737         80.0281         11.2808 
        1.96349         79.7895         11.1963 
        1.96964         79.3885         11.1124 
        1.97578         78.8708         11.0294 
        1.98192         78.5311         10.9474 
        1.98805         78.0414         10.8662 
        1.99419         77.5786         10.7858 
        2.00033         77.1215         10.7062 
        2.00647         76.9483         10.6275 
         2.0126         76.4614         10.5496 
        2.01874         76.0916         10.4724 
        2.02488         75.7848          10.396 
        2.03101         75.3485         10.3204 
        2.03714         75.1027         10.2457 
        2.04328         74.6066         10.1716 
        2.04941         73.9836         10.0983 
        2.05554         73.8643         10.0257 
        2.06167         73.5482         9.95384 
        2.06781          72.886         9.88263 
        2.07396         72.6115         9.81202 
        2.08009          72.351         9.74221 
        2.08622         71.8874         9.67317 
        2.09237         71.4233         9.60466 
        2.09851         71.0327          9.5368 
        2.10464         70.7829         9.46971 
        2.11077         70.4006         9.40335 
        2.11691         70.0769         9.33748 
        2.12305         69.6233         9.27223 
        2.12918         69.2543         9.20777 
        2.13531         68.9575         9.14392 
        2.14145         68.4674         9.08052 
         2.1476         68.1906         9.01765 
        2.15372          67.912         8.95569 
        2.15985         67.4952         8.89426 
        2.16599         67.1179         8.83322 
        2.17213         66.8783         8.77283 
        2.17827          66.423         8.71301 
         2.1844         66.1381          8.6538 
        2.19054         65.7903         8.59513 
        2.19666         65.3255         8.53708 
         2.2028         65.2235         8.47952 
        2.20893         64.7058         8.42246 
        2.21508         64.3871         8.36586 
        2.22122         63.9919         8.30976 
        2.22736         63.6932          8.2543 
        2.23349         63.5258         8.19935 
        2.23962         63.0861         8.14487 
        2.24577         62.8357         8.09085 
         2.2519         62.4837         8.03738 
        2.25802         62.1993         7.98449 
        2.26417         61.8182         7.93192 
        2.27031         61.4932         7.87978 
        2.27644         61.2066         7.82826 
        2.28257         60.9508          7.7772 
        2.28872         60.7011         7.72651 
        2.29486         60.4239         7.67627 
        2.30099         59.9324         7.62659 
        2.30712           59.75         7.57732 
        2.31326         59.3836          7.5284 
         2.3194         59.1009         7.47995 
        2.32553         58.9087           7.432 
        2.33166         58.3897          7.3845 
         2.3378         58.1229         7.33734 
        2.34394         57.8882         7.29059 
        2.35007         57.5314          7.2443 
        2.35619         57.3566         7.19848 
        2.36233         56.9409         7.15294 
        2.36848         56.6938          7.1077 
        2.37462         56.4263         7.06295 
        2.38075         56.1859         7.01863 
        2.38689         55.8855         6.97465 
        2.39303         55.7202         6.93105 
        2.39916         55.4323         6.88787 
        2.40529          55.038         6.84507 
        2.41143         54.8022         6.80259 
        2.41757          54.458         6.76046 
         2.4237         54.3423         6.71876 
        2.42983         53.8859         6.67742 
        2.43598         53.6198         6.63632 
        2.44211         53.4553         6.59563 
        2.44823         53.1862         6.55537 
        2.45437         52.9145         6.51534 
        2.46052         52.5662         6.47561 
        2.46665          52.342         6.43628 
        2.47279         52.1273         6.39729 
        2.47892         51.8279          6.3586 
        2.48507         51.5776         6.32019 
         2.4912         51.2999         6.28217 
