# k  (h/Mpc)    P(k)  (Mpc/h)^3    P_linear(k)  (Mpc/h)^3
     0.00783031         1933.08         1946.48 
       0.013688         2509.73         2542.83 
       0.019231         2707.83         2725.12 
      0.0249154         2676.96         2677.94 
      0.0312784         2473.35         2482.63 
      0.0375637         2232.43         2246.91 
      0.0433917         2043.34         2044.91 
      0.0492413         1868.62         1878.35 
      0.0555754         1736.54         1737.72 
      0.0619321         1599.84         1623.69 
       0.067871         1515.16         1525.92 
      0.0738098         1418.24         1425.67 
      0.0800417         1310.32         1313.79 
      0.0862327         1192.38         1199.26 
      0.0921407         1087.47         1093.95 
      0.0982031          996.59         997.273 
       0.104506          906.01         913.872 
       0.110769         842.857         848.935 
       0.116806         802.555         800.272 
       0.122832         755.992         760.357 
       0.129052         721.666         722.746 
       0.135211         688.283         684.869 
       0.141259         644.737         645.245 
       0.147318         598.586         603.667 
       0.153489         561.159         561.544 
       0.159709         526.776         522.035 
       0.165845         485.706         488.019 
       0.171974          467.21         459.798 
       0.178125         445.055         436.797 
       0.184229         420.827         417.858 
        0.19034         408.502         400.997 
       0.196428         392.554          384.68 
       0.202534         370.106         367.768 
       0.208729         357.673         349.785 
       0.214876         342.654         331.544 
       0.220989         319.276         313.825 
       0.227147         309.751          297.25 
        0.23329         296.611         282.565 
       0.239377         286.138         269.999 
       0.245482         272.978         259.156 
       0.251667         261.829         249.474 
       0.257832         257.087         240.525 
       0.263955          244.56         231.835 
       0.270079         236.072         223.048 
        0.27624         225.513         214.063 
       0.282372          218.06         205.139 
        0.28843         214.317          196.59 
       0.294538         204.718         188.498 
       0.300721          195.85         181.011 
        0.30691         191.965          174.27 
       0.313033          184.63         168.258 
       0.319153         181.379         162.737 
       0.325316         174.008         157.483 
        0.33145         168.869         152.402 
       0.337538          163.95         147.411 
       0.343633         159.161         142.456 
       0.349808         154.161         137.519 
       0.355968         149.624         132.759 
       0.362074         146.625         128.275 
       0.368217         142.732         124.053 
       0.374374         139.834         120.119 
       0.380519         133.902         116.464 
       0.386598         130.628         113.065 
       0.392688         127.171         109.813 
        0.39888         124.804         106.615 
       0.405048          121.98         103.506 
       0.411186         119.241         100.477 
       0.417313         116.093         97.5302 
       0.423458         113.039         94.6714 
       0.429607         111.163         91.9272 
       0.435692         109.195         89.3441 
       0.441815         105.458         86.8774 
       0.447964          102.54         84.5241 
       0.454126         100.705          82.277 
       0.460267         99.9512         80.1278 
       0.466387          97.358         78.0562 
        0.47254          96.132         76.0332 
       0.478662         93.0633         74.0769 
       0.484765          91.413          72.181 
       0.490885         89.0645         70.3384 
       0.497035          88.167         68.5517 
       0.503198         85.9538         66.8317 
       0.509342         83.8993         65.1848 
       0.515458         82.9941         63.6094 
       0.521598         81.0276         62.0881 
       0.527764         80.1029         60.6146 
       0.533884         78.7903         59.1993 
           0.54         77.0581         57.8263 
       0.546137         74.9392         56.4875 
       0.552299         73.8623         55.1826 
       0.558452         72.4861         53.9194 
       0.564573         72.0631         52.7015 
       0.570708          69.972         51.5196 
       0.576825         69.2234         50.3798 
       0.582926         68.2595         49.2809 
       0.589034         67.0582         48.2165 
       0.595184         66.1719         47.1781 
       0.601379          64.444         46.1635 
       0.607522         63.6491         45.1858 
       0.613639         62.8304         44.2394 
       0.619772         61.8005         43.3171 
       0.625918         60.7132         42.4192 
       0.632068         60.2126         41.5463 
       0.638161         59.0117         40.7062 
         0.6443         58.3412         39.8837 
       0.650464          57.022         39.0816 
       0.656582          56.725          38.308 
       0.662703         56.1263         37.5558 
       0.668861         54.7697           36.82 
       0.675024         54.3618         36.1037 
       0.681124         53.7818         35.4138 
       0.687237         52.7461         34.7404 
       0.693381          51.989         34.0812 
       0.699536         51.7208         33.4378 
       0.705665         50.7982         32.8138 
       0.711789         49.9971         32.2064 
       0.717957         49.1732         31.6105 
        0.72409         48.7456         31.0333 
       0.730186         48.5052         30.4743 
       0.736317         47.6302         29.9264 
       0.742472         47.0828         29.3901 
       0.748622         46.3642         28.8675 
        0.75476         45.4068         28.3589 
       0.760888         45.3057         27.8633 
       0.767043           44.58         27.3776 
       0.773185         44.2443         26.9045 
       0.779291         43.7431         26.4453 
       0.785407         43.0283         25.9962 
       0.791564         42.9162         25.5549 
       0.797719         42.1414          25.124 
       0.803834         41.8657          24.706 
       0.809972         41.2094         24.2961 
       0.816124         40.8072         23.8948 
       0.822261         40.3842         23.5036 
       0.828378         40.0458         23.1225 
       0.834502         39.6677         22.7496 
       0.840667         39.2808         22.3826 
       0.846816         38.4981         22.0247 
       0.852925         38.4629          21.677 
       0.859047         38.0404         21.3361 
       0.865192         37.5289         21.0015 
       0.871341         37.1161         20.6739 
       0.877463         36.8128         20.3549 
       0.883569         36.6428         20.0434 
       0.889708         36.1358         19.7369 
       0.895864          35.719          19.436 
       0.902008         35.2971         19.1421 
       0.908149         35.0139         18.8545 
       0.914301         34.8341         18.5724 
       0.920448         34.3678         18.2964 
       0.926574         33.9966          18.027 
       0.932687         33.7099         17.7636 
       0.938823         33.3363         17.5046 
       0.944975         33.0634         17.2502 
       0.951105         32.7595         17.0018 
       0.957225         32.6093         16.7587 
       0.963368         32.1434         16.5196 
       0.969511         31.8855         16.2852 
       0.975621          31.603         16.0566 
       0.981748          31.262         15.8318 
       0.987916         31.0822           15.61 
        0.99406         30.7605         15.3933 
        1.00019         30.5295         15.1811 
        1.00632         30.2797         14.9731 
        1.01246         30.0738         14.7688 
        1.01859         29.7137         14.5686 
        1.02471         29.4597         14.3724 
        1.03085         29.3699         14.1792 
        1.03698         29.0916         13.9899 
        1.04314         28.7925         13.8033 
        1.04929         28.5033         13.6206 
        1.05541          28.417         13.4419 
        1.06154          28.224          13.266 
        1.06769         27.9205          13.093 
        1.07382         27.6098         12.9237 
        1.07993         27.3879         12.7578 
        1.08607         27.2707         12.5941 
        1.09222         27.0037         12.4332 
        1.09836         26.8434         12.2752 
        1.10449          26.613         12.1202 
        1.11063         26.4555         11.9678 
        1.11677         26.3529          11.818 
         1.1229         26.0879          11.671 
        1.12903          25.931         11.5265 
        1.13518         25.6644         11.3843 
        1.14131         25.5417         11.2445 
        1.14745         25.2121         11.1073 
        1.15359         25.0439         10.9723 
        1.15973         24.8384         10.8394 
        1.16584         24.6793         10.7094 
        1.17197         24.4685         10.5814 
        1.17811         24.3117         10.4551 
        1.18424         24.1589         10.3312 
        1.19038         24.0383         10.2089 
        1.19652          23.831         10.0887 
        1.20267         23.6876         9.97044 
        1.20881         23.4832         9.85411 
        1.21495          23.308         9.73982 
        1.22108         23.2926         9.62737 
         1.2272         23.0959         9.51698 
        1.23334         22.9389         9.40806 
        1.23949         22.7718          9.3006 
        1.24562          22.565         9.19512 
        1.25174         22.4671         9.09144 
        1.25789         22.3028         8.98904 
        1.26402         22.2104         8.88841 
        1.27014         22.0791         8.78958 
        1.27628         21.8303         8.69195 
        1.28244         21.8399         8.59562 
        1.28858         21.6014         8.50089 
        1.29471         21.3787          8.4078 
        1.30084         21.2745          8.3162 
        1.30697         21.2521         8.22583 
        1.31312         21.0272         8.13668 
        1.31925         20.9366         8.04914 
        1.32537         20.7972         7.96297 
        1.33151         20.6662         7.87777 
        1.33765         20.5651         7.79386 
        1.34378         20.4658         7.71135 
        1.34992         20.3205         7.62998 
        1.35606         20.1463         7.54962 
         1.3622         20.0008         7.47056 
        1.36833         19.9566         7.39282 
        1.37445         19.8692         7.31624 
        1.38059         19.7496         7.24051 
        1.38675          19.589         7.16567 
        1.39288         19.4407         7.09219 
        1.39901         19.3853         7.01979 
        1.40515         19.2429         6.94823 
         1.4113         19.1313          6.8777 
        1.41742         19.0525         6.80842 
        1.42355         18.8837         6.73998 
         1.4297         18.8156         6.67226 
        1.43585         18.7245         6.60551 
        1.44198         18.6402         6.53993 
        1.44809         18.5249         6.47536 
        1.45423         18.3904         6.41143 
        1.46036         18.3102         6.34848 
        1.46649         18.1899         6.28635 
        1.47263         18.1342         6.22501 
        1.47877         18.0288         6.16451 
        1.48491         17.9197         6.10473 
        1.49104         17.8063         6.04586 
        1.49718         17.7421         5.98773 
        1.50333          17.642         5.93028 
        1.50947         17.5487          5.8737 
         1.5156         17.4641         5.81794 
        1.52172         17.3687          5.7629 
        1.52787         17.2626         5.70848 
          1.534         17.2156         5.65482 
        1.54013          17.116         5.60191 
        1.54627         17.0053         5.54958 
        1.55241         16.8879         5.49791 
        1.55855         16.8631         5.44698 
        1.56467         16.7574         5.39683 
         1.5708         16.7024         5.34717 
        1.57695         16.5788         5.29807 
        1.58308         16.4758          5.2497 
        1.58922         16.4193          5.2019 
        1.59535         16.3027         5.15471 
         1.6015          16.193         5.10805 
        1.60764         16.1666         5.06198 
        1.61376         16.1135         5.01661 
        1.61989         15.9814         4.97177 
        1.62604         15.9488         4.92737 
        1.63218         15.8707         4.88355 
        1.63831         15.7647         4.84035 
        1.64444         15.6753         4.79767 
        1.65059         15.5933          4.7554 
        1.65673         15.5471         4.71369 
        1.66285         15.4635         4.67259 
        1.66898         15.4074         4.63198 
        1.67512         15.3269         4.59176 
        1.68127         15.2075         4.55199 
         1.6874          15.182         4.51278 
        1.69353         15.1008         4.47405 
        1.69967         15.0166         4.43569 
        1.70581         14.9577         4.39779 
        1.71193         14.9069         4.36049 
        1.71806         14.8544         4.32353 
        1.72421         14.7379         4.28693 
        1.73035         14.6771          4.2508 
        1.73649         14.6403         4.21509 
        1.74262         14.4988         4.17982 
        1.74876         14.5056         4.14493 
        1.75489         14.4206         4.11052 
        1.76101         14.3419          4.0765 
        1.76715         14.2974         4.04283 
        1.77329          14.232         4.00949 
        1.77943         14.1354         3.97652 
        1.78557          14.125         3.94396 
        1.79171         14.0381         3.91177 
        1.79785         14.0106         3.87993 
        1.80399          13.885         3.84845 
        1.81012         13.8689         3.81736 
        1.81625         13.7546         3.78663 
        1.82239         13.7062         3.75619 
        1.82853         13.6529         3.72611 
        1.83466         13.5674         3.69638 
        1.84078         13.5566         3.66701 
        1.84692         13.5004         3.63791 
        1.85306         13.4437         3.60909 
         1.8592         13.3862         3.58063 
        1.86533         13.3226         3.55249 
        1.87147         13.2464         3.52462 
        1.87761         13.2011         3.49704 
        1.88375         13.1436         3.46979 
        1.88988         13.0686         3.44286 
        1.89601         13.0429          3.4162 
        1.90215         12.9528          3.3898 
        1.90829         12.9136         3.36369 
        1.91442         12.8592         3.33786 
        1.92056         12.8482         3.31232 
         1.9267         12.7595         3.28702 
        1.93284         12.7421         3.26198 
        1.93897         12.6586         3.23724 
        1.94509         12.6037         3.21281 
        1.95123         12.5794         3.18857 
        1.95737          12.528         3.16456 
        1.96349         12.4218         3.14086 
        1.96964         12.4003         3.11734 
        1.97578         12.3572         3.09405 
        1.98192         12.2856         3.07104 
        1.98805         12.2496         3.04826 
        1.99419         12.2117         3.02572 
        2.00033         12.1663         3.00339 
        2.00647         12.1212         2.98129 
         2.0126         12.0708         2.95945 
        2.01874         11.9949          2.9378 
        2.02488         11.9656         2.91635 
        2.03101          11.902         2.89515 
        2.03714          11.854         2.87418 
        2.04328         11.8015          2.8534 
        2.04941         11.7467         2.83284 
        2.05554         11.7335         2.81249 
        2.06167         11.6779         2.79232 
        2.06781         11.6182         2.77234 
        2.07396         11.6016         2.75254 
        2.08009         11.5272         2.73295 
        2.08622         11.5118         2.71359 
        2.09237         11.4762         2.69437 
        2.09851         11.3896         2.67533 
        2.10464         11.3811         2.65651 
        2.11077         11.3059         2.63789 
        2.11691         11.3053         2.61942 
        2.12305         11.2318         2.60111 
        2.12918         11.1771         2.58303 
        2.13531         11.1545         2.56512 
        2.14145         11.1127         2.54733 
         2.1476         11.0637          2.5297 
        2.15372         11.0187         2.51231 
        2.15985         10.9888         2.49508 
        2.16599         10.9437         2.47796 
        2.17213         10.9283         2.46102 
        2.17827         10.8701         2.44423 
         2.1844         10.8401         2.42763 
        2.19054         10.7955         2.41117 
        2.19666         10.7558         2.39488 
         2.2028         10.7045         2.37873 
        2.20893         10.6812         2.36273 
        2.21508         10.6346         2.34685 
        2.22122         10.5753         2.33111 
        2.22736         10.5601         2.31555 
        2.23349          10.513         2.30014 
        2.23962         10.4844         2.28486 
        2.24577         10.4413          2.2697 
         2.2519         10.4176          2.2547 
        2.25802         10.3339         2.23987 
        2.26417         10.3339         2.22512 
        2.27031         10.2784         2.21049 
        2.27644         10.2439         2.19604 
        2.28257         10.1919         2.18172 
        2.28872         10.1877         2.16749 
        2.29486         10.1474          2.1534 
        2.30099         10.1103         2.13946 
        2.30712         10.0606         2.12564 
        2.31326          10.017         2.11192 
         2.3194         9.99213         2.09833 
        2.32553         9.93752         2.08488 
        2.33166         9.91023         2.07155 
         2.3378         9.88886         2.05832 
        2.34394         9.86335         2.04521 
        2.35007         9.79826         2.03222 
        2.35619         9.79151         2.01937 
        2.36233         9.73625         2.00659 
        2.36848          9.7129          1.9939 
        2.37462         9.68308         1.98135 
        2.38075         9.65465         1.96892 
        2.38689         9.62116         1.95658 
        2.39303         9.56454         1.94435 
        2.39916         9.54493         1.93224 
        2.40529         9.50774         1.92023 
        2.41143         9.48007         1.90831 
        2.41757         9.44769         1.89649 
         2.4237         9.40577          1.8848 
        2.42983         9.38857          1.8732 
        2.43598          9.3598         1.86167 
        2.44211         9.33785         1.85025 
        2.44823         9.28218         1.83896 
        2.45437         9.25471         1.82773 
        2.46052         9.23142         1.81658 
        2.46665         9.20611         1.80555 
        2.47279         9.17149         1.79461 
        2.47892         9.12199         1.78376 
        2.48507          9.1056         1.77298 
         2.4912         9.06928         1.76232 
