# k  (h/Mpc)    Pcb(k)  (Mpc/h)^3    Pcb_linear(k)  (Mpc/h)^3
     0.00783031         166.043          167.53 
       0.013688         203.986         204.765 
       0.019231         206.164         206.346 
      0.0249154         189.931         190.503 
      0.0312784         165.356         165.345 
      0.0375637         141.922         141.652 
      0.0433917         124.309         124.235 
      0.0492413         111.688         111.543 
      0.0555754         101.768         101.859 
      0.0619321         94.4819         94.3049 
       0.067871         87.4523         87.5599 
      0.0738098         80.1417         80.2718 
      0.0800417         71.8543         72.0224 
      0.0862327         63.8021         63.8393 
      0.0921407         56.8082         56.7839 
      0.0982031         50.8245         50.8454 
       0.104506         46.3505         46.2338 
       0.110769         43.0728         43.0012 
       0.116806         40.6597         40.7092 
       0.122832         38.7471         38.7347 
       0.129052         36.5424         36.6138 
       0.135211         34.1501         34.2308 
       0.141259         31.6456         31.6541 
       0.147318         29.0865         29.0315 
       0.153489         26.5854           26.56 
       0.159709         24.4886         24.4597 
       0.165845         22.9444         22.8384 
       0.171974         21.6286         21.6171 
       0.178125         20.6857         20.6633 
       0.184229         19.8743         19.8329 
        0.19034         18.9556         18.9881 
       0.196428         18.0735         18.0627 
       0.202534         17.1252         17.0489 
       0.208729         16.0249         15.9862 
       0.214876         14.9816          14.974 
       0.220989         14.1516         14.0742 
       0.227147         13.3238         13.3099 
        0.23329         12.7021          12.687 
       0.239377         12.1991         12.1767 
       0.245482         11.7259          11.726 
       0.251667         11.3258         11.2868 
       0.257832         10.8562         10.8362 
       0.263955         10.3972         10.3664 
       0.270079         9.92055         9.88328 
        0.27624         9.47251         9.40527 
       0.282372         9.02553         8.95887 
        0.28843         8.60478         8.56211 
       0.294538         8.25522         8.21095 
       0.300721         7.96811         7.90035 
        0.30691         7.66217         7.62181 
       0.313033         7.40677         7.36365 
       0.319153         7.11545         7.11102 
       0.325316         6.91546         6.85562 
        0.33145         6.65163         6.59993 
       0.337538         6.39884         6.34901 
       0.343633         6.14624          6.1067 
       0.349808         5.92758         5.87648 
       0.355968         5.71914         5.66484 
       0.362074         5.52067         5.47341 
       0.368217          5.3449         5.29621 
       0.374374         5.16261            5.13 
       0.380519         5.01846         4.97131 
       0.386598         4.87034         4.81798 
       0.392688         4.72818         4.66702 
        0.39888          4.5696         4.51626 
       0.405048         4.42636         4.37019 
       0.411186         4.29033         4.23088 
       0.417313         4.14911         4.09897 
       0.423458         4.03245         3.97439 
       0.429607         3.90554         3.85738 
       0.435692         3.79568         3.74786 
       0.441815         3.69183         3.64259 
       0.447964         3.60208          3.5408 
       0.454126         3.48905          3.4418 
       0.460267         3.39262         3.34562 
       0.466387         3.29431          3.2525 
        0.47254         3.20826         3.16199 
       0.478662         3.12574         3.07533 
       0.484765         3.03667         2.99253 
       0.490885          2.9596         2.91328 
       0.497035         2.89668         2.83721 
       0.503198         2.81564         2.76412 
       0.509342         2.74944         2.69392 
       0.515458         2.67576          2.6264 
       0.521598          2.6115         2.56072 
       0.527764         2.54097         2.49671 
       0.533884         2.48922         2.43506 
           0.54         2.42663         2.37542 
       0.546137         2.37126         2.31764 
       0.552299         2.31399         2.26175 
       0.558452         2.25392         2.20796 
       0.564573         2.20708         2.15632 
       0.570708         2.15666         2.10632 
       0.576825         2.10465          2.0581 
       0.582926         2.06329         2.01152 
       0.589034         2.00671         1.96629 
       0.595184         1.96549         1.92207 
       0.601379         1.92201         1.87883 
       0.607522         1.88531         1.83723 
       0.613639         1.85009         1.79708 
       0.619772         1.80232          1.7581 
       0.625918          1.7675         1.72026 
       0.632068         1.73432         1.68357 
       0.638161          1.6946          1.6483 
         0.6443         1.65934         1.61379 
       0.650464         1.62167         1.58013 
       0.656582          1.5933         1.54767 
       0.662703         1.56191          1.5161 
       0.668861         1.53499         1.48523 
       0.675024         1.50082          1.4552 
       0.681124         1.46808         1.42632 
       0.687237         1.44442         1.39817 
       0.693381         1.41729         1.37066 
       0.699536         1.38267         1.34385 
       0.705665          1.3584         1.31788 
       0.711789         1.33591         1.29262 
       0.717957         1.30799         1.26786 
        0.72409         1.28493         1.24389 
       0.730186         1.26042         1.22068 
       0.736317         1.24323         1.19795 
       0.742472         1.21914         1.17571 
       0.748622         1.19552         1.15407 
        0.75476         1.17146         1.13302 
       0.760888         1.15053         1.11252 
       0.767043         1.13668         1.09246 
       0.773185         1.11255         1.07294 
       0.779291         1.09392           1.054 
       0.785407         1.07556          1.0355 
       0.791564         1.05797         1.01733 
       0.797719         1.04139        0.999608 
       0.803834         1.02429         0.98242 
       0.809972         1.00623        0.965578 
       0.816124        0.988219        0.949095 
       0.822261        0.970341        0.933044 
       0.828378        0.956789        0.917414 
       0.834502        0.943129        0.902132 
       0.840667        0.924151          0.8871 
       0.846816        0.909841        0.872456 
       0.852925        0.898659        0.858236 
       0.859047        0.884071        0.844306 
       0.865192        0.868376         0.83064 
       0.871341        0.854896         0.81727 
       0.877463        0.844406        0.804256 
       0.883569         0.82917        0.791561 
       0.889708        0.816517        0.779075 
       0.895864        0.803933        0.766828 
       0.902008        0.790924        0.754872 
       0.908149        0.779186        0.743178 
       0.914301        0.764468        0.731715 
       0.920448        0.754687        0.720505 
       0.926574        0.743155         0.70957 
       0.932687        0.732093        0.698887 
       0.938823        0.724425        0.688386 
       0.944975        0.713021        0.678078 
       0.951105        0.703291        0.668018 
       0.957225        0.694788        0.658181 
       0.963368         0.68397        0.648509 
       0.969511        0.672904        0.639032 
       0.975621        0.662623        0.629796 
       0.981748        0.656186         0.62072 
       0.987916        0.645962        0.611766 
        0.99406        0.636317        0.603023 
        1.00019        0.629389        0.594469 
        1.00632        0.618284        0.586089 
        1.01246        0.610041        0.577858 
        1.01859        0.602965        0.569799 
        1.02471        0.594289        0.561905 
        1.03085        0.588283        0.554132 
        1.03698        0.578868        0.546524 
        1.04314        0.571731        0.539027 
        1.04929        0.563286        0.531688 
        1.05541         0.55719        0.524516 
        1.06154        0.548951         0.51746 
        1.06769        0.541265        0.510522 
        1.07382        0.535024        0.503735 
        1.07993        0.527071        0.497087 
        1.08607        0.522711        0.490533 
        1.09222        0.514515         0.48409 
        1.09836        0.510152         0.47777 
        1.10449        0.503292        0.471571 
        1.11063        0.495507        0.465476 
        1.11677        0.488575        0.459491 
         1.1229        0.483682        0.453622 
        1.12903        0.477036         0.44785 
        1.13518        0.472318        0.442175 
        1.14131        0.465833        0.436601 
        1.14745         0.45815        0.431127 
        1.15359        0.454461        0.425746 
        1.15973        0.447527        0.420455 
        1.16584        0.444492        0.415277 
        1.17197        0.438532         0.41018 
        1.17811        0.433964        0.405153 
        1.18424        0.429781        0.400225 
        1.19038        0.423441        0.395365 
        1.19652        0.417509        0.390587 
        1.20267        0.414361        0.385889 
        1.20881        0.408785        0.381269 
        1.21495        0.405173        0.376732 
        1.22108        0.400198         0.37227 
         1.2272        0.396113        0.367891 
        1.23334        0.390953        0.363572 
        1.23949        0.386771        0.359313 
        1.24562        0.382509        0.355133 
        1.25174        0.378614        0.351027 
        1.25789        0.374786        0.346973 
        1.26402        0.369276         0.34299 
        1.27014        0.365719        0.339079 
        1.27628        0.362619        0.335218 
        1.28244        0.357016        0.331409 
        1.28858        0.353941        0.327665 
        1.29471        0.351131        0.323987 
        1.30084        0.346446        0.320369 
        1.30697        0.342804        0.316801 
        1.31312        0.337973        0.313282 
        1.31925        0.335044        0.309828 
        1.32537        0.332152        0.306429 
        1.33151        0.329133         0.30307 
        1.33765        0.325521        0.299762 
        1.34378        0.321246        0.296511 
        1.34992        0.318489        0.293306 
        1.35606        0.315069        0.290141 
         1.3622        0.311912        0.287029 
        1.36833        0.308557         0.28397 
        1.37445        0.304598        0.280957 
        1.38059        0.301863        0.277978 
        1.38675        0.300348        0.275036 
        1.39288        0.296544        0.272148 
        1.39901        0.293724        0.269303 
        1.40515        0.291055        0.266492 
         1.4113        0.287417        0.263723 
        1.41742        0.284719        0.261003 
        1.42355        0.282745        0.258317 
         1.4297        0.279112        0.255661 
        1.43585        0.276811        0.253042 
        1.44198        0.274757        0.250471 
        1.44809        0.271403         0.24794 
        1.45423        0.268962        0.245435 
        1.46036        0.266299        0.242969 
        1.46649          0.2643        0.240536 
        1.47263        0.261402        0.238134 
        1.47877        0.258405        0.235766 
        1.48491        0.256465        0.233427 
        1.49104        0.253454        0.231124 
        1.49718        0.251307        0.228851 
        1.50333        0.249542        0.226604 
        1.50947        0.246934        0.224393 
         1.5156        0.244429        0.222214 
        1.52172        0.242395        0.220064 
        1.52787        0.240098        0.217939 
          1.534        0.237757        0.215844 
        1.54013        0.235435        0.213778 
        1.54627        0.233863        0.211736 
        1.55241        0.231333         0.20972 
        1.55855        0.228945        0.207734 
        1.56467        0.227969        0.205778 
         1.5708        0.225312        0.203843 
        1.57695        0.223392        0.201929 
        1.58308        0.221286        0.200044 
        1.58922         0.21956        0.198182 
        1.59535        0.217485        0.196344 
         1.6015         0.21543        0.194528 
        1.60764        0.213823        0.192734 
        1.61376        0.211406        0.190969 
        1.61989         0.20988        0.189224 
        1.62604        0.208307        0.187497 
        1.63218        0.206604        0.185793 
        1.63831        0.204885        0.184114 
        1.64444         0.20308        0.182455 
        1.65059        0.201284        0.180812 
        1.65673        0.199716        0.179192 
        1.66285        0.198261        0.177596 
        1.66898        0.196548        0.176018 
        1.67512        0.194504        0.174457 
        1.68127        0.192771        0.172914 
         1.6874        0.191703        0.171392 
        1.69353         0.18956         0.16989 
        1.69967         0.18865        0.168402 
        1.70581        0.186516        0.166932 
        1.71193        0.185171        0.165486 
        1.71806        0.183433        0.164054 
        1.72421         0.18247        0.162635 
        1.73035        0.180629        0.161236 
        1.73649        0.179511        0.159853 
        1.74262        0.177916        0.158487 
        1.74876        0.176395        0.157136 
        1.75489        0.175197        0.155804 
        1.76101        0.173466        0.154488 
        1.76715        0.172184        0.153185 
        1.77329        0.170615        0.151895 
        1.77943        0.169383         0.15062 
        1.78557        0.168368        0.149361 
        1.79171        0.167029        0.148117 
        1.79785        0.165635        0.146886 
        1.80399         0.16433         0.14567 
        1.81012        0.163133        0.144469 
        1.81625        0.161814        0.143282 
        1.82239        0.160678        0.142106 
        1.82853        0.159145        0.140944 
        1.83466        0.158136        0.139797 
        1.84078        0.156904        0.138663 
        1.84692        0.155645         0.13754 
        1.85306        0.154753        0.136429 
         1.8592        0.153271        0.135331 
        1.86533        0.152419        0.134246 
        1.87147        0.151205        0.133171 
        1.87761        0.150245        0.132108 
        1.88375        0.148831        0.131058 
        1.88988        0.147829         0.13002 
        1.89601        0.146592        0.128993 
        1.90215        0.145713        0.127976 
        1.90829        0.144391        0.126971 
        1.91442        0.143771        0.125976 
        1.92056        0.142433        0.124993 
         1.9267        0.141291        0.124019 
        1.93284        0.140304        0.123055 
        1.93897         0.13926        0.122103 
        1.94509        0.138559        0.121163 
        1.95123        0.137414        0.120231 
        1.95737        0.136598        0.119308 
        1.96349        0.135442        0.118397 
        1.96964        0.134378        0.117493 
        1.97578        0.133477        0.116597 
        1.98192        0.132704        0.115713 
        1.98805         0.13191        0.114838 
        1.99419        0.130632        0.113972 
        2.00033        0.129744        0.113115 
        2.00647        0.129181        0.112266 
         2.0126         0.12797        0.111428 
        2.01874        0.127326        0.110597 
        2.02488        0.126374        0.109774 
        2.03101        0.125533         0.10896 
        2.03714        0.124522        0.108156 
        2.04328        0.123908        0.107358 
        2.04941        0.122832         0.10657 
        2.05554        0.122176         0.10579 
        2.06167         0.12152        0.105017 
        2.06781        0.120411        0.104251 
        2.07396        0.119629        0.103492 
        2.08009         0.11886        0.102741 
        2.08622        0.118182        0.101999 
        2.09237        0.117418        0.101263 
        2.09851         0.11666        0.100534 
        2.10464        0.115913       0.0998133 
        2.11077        0.114992       0.0991005 
        2.11691        0.114328       0.0983932 
        2.12305        0.113538       0.0976926 
        2.12918        0.112948       0.0970006 
        2.13531        0.112008       0.0963152 
        2.14145         0.11118       0.0956349 
         2.1476        0.110622       0.0949603 
        2.15372        0.110124       0.0942956 
        2.15985        0.109225       0.0936366 
        2.16599        0.108478        0.092982 
        2.17213        0.107877       0.0923344 
        2.17827        0.107043        0.091693 
         2.1844        0.106566       0.0910584 
        2.19054        0.105817       0.0904295 
        2.19666        0.104956       0.0898074 
         2.2028        0.104468       0.0891906 
        2.20893         0.10399       0.0885793 
        2.21508        0.103047        0.087973 
        2.22122        0.102378       0.0873722 
        2.22736        0.102019       0.0867783 
        2.23349        0.101242         0.08619 
        2.23962        0.100753       0.0856068 
        2.24577       0.0999725       0.0850285 
         2.2519       0.0994831       0.0844563 
        2.25802       0.0987731       0.0838903 
        2.26417       0.0982559       0.0833279 
        2.27031       0.0975696       0.0827701 
        2.27644       0.0969964       0.0822191 
        2.28257       0.0963985       0.0816731 
        2.28872       0.0958735        0.081131 
        2.29486       0.0954651       0.0805939 
        2.30099       0.0946451       0.0800628 
        2.30712        0.094173       0.0795363 
        2.31326       0.0934291       0.0790135 
         2.3194       0.0932844       0.0784958 
        2.32553       0.0925962       0.0779836 
        2.33166       0.0921798       0.0774761 
         2.3378        0.091538       0.0769725 
        2.34394       0.0909344       0.0764732 
        2.35007       0.0903998        0.075979 
        2.35619       0.0897577       0.0754897 
        2.36233       0.0893166       0.0750036 
        2.36848       0.0889624       0.0745208 
        2.37462       0.0882322       0.0740433 
        2.38075       0.0879133       0.0735703 
        2.38689       0.0874105       0.0731011 
        2.39303       0.0870092       0.0726361 
        2.39916          0.0863       0.0721756 
        2.40529       0.0859063       0.0717191 
        2.41143       0.0853406       0.0712662 
        2.41757       0.0848826        0.070817 
         2.4237       0.0845406       0.0703725 
        2.42983       0.0839788       0.0699318 
        2.43598       0.0836739       0.0694938 
        2.44211       0.0830404       0.0690602 
        2.44823       0.0827487       0.0686313 
        2.45437       0.0820777       0.0682048 
        2.46052       0.0817649       0.0677816 
        2.46665       0.0811987       0.0673628 
        2.47279       0.0807401       0.0669476 
        2.47892       0.0801889       0.0665356 
        2.48507       0.0797862       0.0661267 
         2.4912        0.079455        0.065722 
