# k  (h/Mpc)    P(k)  (Mpc/h)^3    P_linear(k)  (Mpc/h)^3
     0.00783031           256.8          259.29 
       0.013688         315.624         316.691 
       0.019231         318.905         319.056 
      0.0249154         293.634         294.521 
      0.0312784         255.703         255.607 
      0.0375637         219.517          218.97 
      0.0433917         192.193         192.042 
      0.0492413         172.726         172.419 
      0.0555754         157.304         157.448 
      0.0619321         146.181         145.769 
       0.067871          135.21         135.342 
      0.0738098         123.901         124.076 
      0.0800417          111.06         111.325 
      0.0862327         98.6528         98.6756 
      0.0921407         87.8577         87.7699 
      0.0982031         78.5819         78.5906 
       0.104506         71.7248         71.4623 
       0.110769         66.6471         66.4657 
       0.116806          62.879         62.9229 
       0.122832         59.9483          59.871 
       0.129052         56.5081         56.5928 
       0.135211         52.8089         52.9094 
       0.141259         48.9626         48.9266 
       0.147318         45.0239         44.8728 
       0.153489         41.1431         41.0527 
       0.159709         37.9059         37.8063 
       0.165845         35.5473         35.3003 
       0.171974         33.4836         33.4127 
       0.178125         32.0316         31.9384 
       0.184229          30.783         30.6549 
        0.19034         29.3329         29.3492 
       0.196428         27.9908         27.9188 
       0.202534         26.5453         26.3518 
       0.208729         24.8336         24.7092 
       0.214876         23.2098         23.1446 
       0.220989         21.9482         21.7539 
       0.227147         20.6473         20.5725 
        0.23329         19.6879         19.6098 
       0.239377         18.9178          18.821 
       0.245482          18.169         18.1243 
       0.251667         17.5691         17.4455 
       0.257832         16.8391          16.749 
       0.263955         16.1325         16.0228 
       0.270079         15.3954         15.2761 
        0.27624         14.7162         14.5373 
       0.282372         14.0259         13.8473 
        0.28843         13.3679         13.2341 
       0.294538         12.8261         12.6913 
       0.300721         12.3921         12.2112 
        0.30691         11.9081         11.7806 
       0.313033         11.5139         11.3816 
       0.319153         11.0491         10.9912 
       0.325316         10.7593         10.5964 
        0.33145         10.3476         10.2012 
       0.337538         9.95895         9.81333 
       0.343633         9.56337         9.43881 
       0.349808         9.23034         9.08297 
       0.355968          8.9074         8.75582 
       0.362074          8.5985         8.45999 
       0.368217         8.32855         8.18608 
       0.374374         8.04124         7.92918 
       0.380519         7.82227         7.68391 
       0.386598         7.59521         7.44689 
       0.392688          7.3779          7.2136 
        0.39888         7.13045         6.98054 
       0.405048         6.91184         6.75478 
       0.411186         6.70211         6.53945 
       0.417313         6.47894         6.33557 
       0.423458         6.30047         6.14302 
       0.429607         6.10191         5.96215 
       0.435692          5.9306         5.79287 
       0.441815         5.77159         5.63016 
       0.447964         5.63647         5.47283 
       0.454126         5.45552         5.31982 
       0.460267         5.30863         5.17115 
       0.466387         5.15215         5.02723 
        0.47254          5.0232         4.88733 
       0.478662         4.89769         4.75337 
       0.484765         4.75636          4.6254 
       0.490885         4.63571         4.50291 
       0.497035         4.54503         4.38533 
       0.503198         4.41642         4.27236 
       0.509342         4.31341         4.16386 
       0.515458         4.19846         4.05948 
       0.521598         4.09986         3.95798 
       0.527764         3.98951         3.85904 
       0.533884         3.91193         3.76374 
           0.54         3.81337         3.67156 
       0.546137         3.72824         3.58226 
       0.552299         3.64057         3.49586 
       0.558452         3.54309         3.41273 
       0.564573         3.47383         3.33291 
       0.570708         3.39527         3.25562 
       0.576825         3.31235          3.1811 
       0.582926          3.2491         3.10911 
       0.589034         3.15776         3.03919 
       0.595184         3.09591         2.97084 
       0.601379         3.02739           2.904 
       0.607522         2.97311         2.83971 
       0.613639         2.92004         2.77766 
       0.619772         2.84216          2.7174 
       0.625918          2.7909         2.65892 
       0.632068         2.74111          2.6022 
       0.638161         2.67655         2.54769 
         0.6443         2.62154         2.49435 
       0.650464         2.56149         2.44233 
       0.656582         2.52076         2.39215 
       0.662703          2.4711         2.34335 
       0.668861         2.42973         2.29564 
       0.675024         2.37539         2.24923 
       0.681124         2.32454         2.20458 
       0.687237         2.28841         2.16108 
       0.693381         2.24612         2.11856 
       0.699536         2.18962         2.07712 
       0.705665          2.1524         2.03698 
       0.711789         2.11764         1.99794 
       0.717957         2.07401         1.95966 
        0.72409         2.03807         1.92261 
       0.730186         1.99992         1.88674 
       0.736317         1.97546         1.85161 
       0.742472         1.93788         1.81724 
       0.748622         1.89948         1.78378 
        0.75476         1.86105         1.75124 
       0.760888         1.82914         1.71957 
       0.767043         1.80788         1.68856 
       0.773185         1.76904         1.65838 
       0.779291         1.74185         1.62912 
       0.785407         1.71227         1.60052 
       0.791564           1.685         1.57244 
       0.797719         1.65961         1.54504 
       0.803834          1.6337         1.51848 
       0.809972         1.60532         1.49244 
       0.816124         1.57598         1.46697 
       0.822261         1.54761         1.44216 
       0.828378         1.52699           1.418 
       0.834502         1.50677         1.39438 
       0.840667          1.4748         1.37114 
       0.846816         1.45254         1.34851 
       0.852925         1.43661         1.32653 
       0.859047         1.41345           1.305 
       0.865192         1.38923         1.28388 
       0.871341         1.36846         1.26321 
       0.877463         1.35227          1.2431 
       0.883569         1.32728         1.22347 
       0.889708         1.30694         1.20417 
       0.895864         1.28802         1.18525 
       0.902008         1.26671         1.16676 
       0.908149         1.24938         1.14869 
       0.914301         1.22513         1.13097 
       0.920448         1.21014         1.11365 
       0.926574         1.19181         1.09675 
       0.932687         1.17487         1.08023 
       0.938823          1.1631           1.064 
       0.944975         1.14501         1.04807 
       0.951105          1.1301         1.03252 
       0.957225          1.1174         1.01732 
       0.963368         1.10013         1.00237 
       0.969511          1.0826        0.987718 
       0.975621         1.06567        0.973443 
       0.981748         1.05587        0.959414 
       0.987916         1.03975        0.945574 
        0.99406         1.02381        0.932061 
        1.00019         1.01359        0.918839 
        1.00632        0.996146        0.905886 
        1.01246        0.983257        0.893165 
        1.01859        0.972248        0.880708 
        1.02471        0.958172        0.868506 
        1.03085        0.948878        0.856493 
        1.03698        0.933754        0.844733 
        1.04314        0.923082        0.833145 
        1.04929         0.90955        0.821802 
        1.05541        0.900139        0.810717 
        1.06154        0.886933         0.79981 
        1.06769        0.875223        0.789087 
        1.07382        0.865177        0.778597 
        1.07993        0.851886        0.768322 
        1.08607        0.845884         0.75819 
        1.09222        0.832701        0.748231 
        1.09836        0.826018        0.738464 
        1.10449        0.815356        0.728883 
        1.11063        0.802516        0.719461 
        1.11677        0.791886         0.71021 
         1.1229         0.78369        0.701139 
        1.12903        0.773393        0.692218 
        1.13518        0.766257        0.683446 
        1.14131        0.755394        0.674831 
        1.14745         0.74259         0.66637 
        1.15359         0.73755        0.658052 
        1.15973        0.726061        0.649874 
        1.16584        0.722244        0.641872 
        1.17197        0.712283        0.633993 
        1.17811        0.704906        0.626223 
        1.18424        0.698776        0.618606 
        1.19038        0.688419        0.611094 
        1.19652        0.679056         0.60371 
        1.20267        0.674355        0.596448 
        1.20881         0.66476        0.589307 
        1.21495        0.659409        0.582295 
        1.22108        0.651552        0.575398 
         1.2272        0.645499         0.56863 
        1.23334        0.637172        0.561954 
        1.23949        0.630197        0.555371 
        1.24562        0.623766        0.548911 
        1.25174        0.617413        0.542563 
        1.25789        0.611249        0.536297 
        1.26402        0.602583        0.530141 
        1.27014        0.596646        0.524096 
        1.27628        0.592265        0.518128 
        1.28244        0.583131        0.512241 
        1.28858         0.57804        0.506454 
        1.29471        0.573498        0.500769 
        1.30084        0.565862        0.495177 
        1.30697        0.560142        0.489662 
        1.31312        0.552183        0.484223 
        1.31925         0.54816        0.478884 
        1.32537        0.543382        0.473631 
        1.33151        0.538715        0.468438 
        1.33765        0.532639        0.463327 
        1.34378        0.525678        0.458301 
        1.34992        0.521823        0.453347 
        1.35606        0.515834        0.448456 
         1.3622        0.510969        0.443645 
        1.36833        0.505824        0.438917 
        1.37445        0.499255         0.43426 
        1.38059        0.494917        0.429656 
        1.38675        0.493204        0.425108 
        1.39288        0.486451        0.420645 
        1.39901        0.481921        0.416247 
        1.40515        0.477596        0.411903 
         1.4113        0.471843        0.407622 
        1.41742        0.467521        0.403419 
        1.42355        0.465036        0.399267 
         1.4297        0.458775        0.395161 
        1.43585        0.454721        0.391114 
        1.44198        0.452344         0.38714 
        1.44809        0.446326        0.383228 
        1.45423        0.442416        0.379356 
        1.46036        0.438324        0.375544 
        1.46649         0.43486        0.371783 
        1.47263        0.430106        0.368071 
        1.47877        0.425504        0.364411 
        1.48491        0.422216        0.360795 
        1.49104        0.417445        0.357236 
        1.49718        0.414312        0.353722 
        1.50333        0.411072         0.35025 
        1.50947        0.407272        0.346832 
         1.5156         0.40299        0.343464 
        1.52172        0.399798        0.340141 
        1.52787        0.395861        0.336856 
          1.534        0.392649        0.333618 
        1.54013        0.388373        0.330425 
        1.54627        0.385742        0.327269 
        1.55241        0.381794        0.324154 
        1.55855        0.377942        0.321083 
        1.56467        0.376665        0.318061 
         1.5708        0.372249        0.315069 
        1.57695        0.369369        0.312111 
        1.58308        0.365869        0.309197 
        1.58922        0.363052        0.306319 
        1.59535        0.359546        0.303479 
         1.6015        0.356526        0.300671 
        1.60764        0.353866        0.297899 
        1.61376        0.349805         0.29517 
        1.61989        0.347715        0.292474 
        1.62604        0.344866        0.289805 
        1.63218        0.342361         0.28717 
        1.63831         0.33942        0.284575 
        1.64444        0.336294        0.282011 
        1.65059        0.333666        0.279472 
        1.65673        0.330745        0.276967 
        1.66285        0.328476          0.2745 
        1.66898        0.326012        0.272062 
        1.67512        0.322518        0.269649 
        1.68127        0.319723        0.267263 
         1.6874        0.318185        0.264911 
        1.69353        0.314934        0.262589 
        1.69967        0.312937         0.26029 
        1.70581        0.309802        0.258018 
        1.71193        0.307675        0.255783 
        1.71806        0.304849        0.253569 
        1.72421        0.302983        0.251377 
        1.73035         0.30003        0.249213 
        1.73649        0.298372        0.247075 
        1.74262         0.29581        0.244965 
        1.74876        0.293262        0.242877 
        1.75489          0.2913        0.240818 
        1.76101        0.288597        0.238783 
        1.76715        0.286452        0.236769 
        1.77329         0.28412        0.234776 
        1.77943        0.281885        0.232805 
        1.78557        0.280281         0.23086 
        1.79171        0.278071        0.228936 
        1.79785        0.275822        0.227034 
        1.80399        0.273639        0.225154 
        1.81012         0.27188        0.223297 
        1.81625        0.269677        0.221463 
        1.82239        0.267925        0.219646 
        1.82853        0.265173         0.21785 
        1.83466        0.263611        0.216077 
        1.84078        0.261464        0.214324 
        1.84692        0.259695        0.212589 
        1.85306        0.258174         0.21087 
         1.8592        0.255939        0.209174 
        1.86533        0.254463        0.207496 
        1.87147        0.252444        0.205836 
        1.87761        0.250912        0.204192 
        1.88375        0.248448        0.202569 
        1.88988        0.246952        0.200965 
        1.89601        0.244951        0.199377 
        1.90215        0.243456        0.197806 
        1.90829        0.241466        0.196252 
        1.91442        0.240219        0.194714 
        1.92056        0.238113        0.193194 
         1.9267        0.236314        0.191689 
        1.93284        0.234636          0.1902 
        1.93897        0.233143        0.188728 
        1.94509        0.231826        0.187276 
        1.95123        0.229769        0.185835 
        1.95737        0.228677        0.184408 
        1.96349        0.226786           0.183 
        1.96964        0.225094        0.181602 
        1.97578        0.223467        0.180218 
        1.98192        0.222298        0.178852 
        1.98805        0.220945        0.177499 
        1.99419        0.219014        0.176161 
        2.00033        0.217543        0.174835 
        2.00647        0.216591        0.173524 
         2.0126        0.214658        0.172228 
        2.01874        0.213481        0.170944 
        2.02488        0.212052        0.169671 
        2.03101         0.21046        0.168414 
        2.03714        0.208995         0.16717 
        2.04328        0.207905        0.165938 
        2.04941        0.206353        0.164719 
        2.05554        0.205199        0.163514 
        2.06167        0.204018        0.162318 
        2.06781        0.201998        0.161135 
        2.07396        0.200805        0.159961 
        2.08009        0.199519        0.158802 
        2.08622        0.198529        0.157655 
        2.09237        0.197455        0.156517 
        2.09851        0.196135         0.15539 
        2.10464        0.194737        0.154276 
        2.11077        0.193385        0.153174 
        2.11691        0.192169        0.152081 
        2.12305        0.191002        0.150998 
        2.12918         0.18986        0.149929 
        2.13531        0.188474        0.148869 
        2.14145        0.187252        0.147818 
         2.1476         0.18625        0.146775 
        2.15372         0.18535        0.145748 
        2.15985        0.183843        0.144729 
        2.16599        0.182487        0.143717 
        2.17213        0.181724        0.142716 
        2.17827        0.180479        0.141725 
         2.1844        0.179549        0.140744 
        2.19054        0.178342        0.139772 
        2.19666        0.176811         0.13881 
         2.2028        0.176198        0.137857 
        2.20893        0.175338        0.136912 
        2.21508        0.173727        0.135975 
        2.22122        0.172687        0.135047 
        2.22736         0.17201        0.134128 
        2.23349        0.170805        0.133219 
        2.23962        0.170024        0.132318 
        2.24577         0.16864        0.131424 
         2.2519        0.167977         0.13054 
        2.25802        0.166716        0.129665 
        2.26417        0.165837        0.128795 
        2.27031        0.164743        0.127933 
        2.27644        0.163878        0.127082 
        2.28257        0.162901        0.126238 
        2.28872        0.161953          0.1254 
        2.29486        0.161055         0.12457 
        2.30099        0.160112        0.123749 
        2.30712        0.159217        0.122935 
        2.31326        0.157916        0.122127 
         2.3194        0.157817        0.121327 
        2.32553        0.156794        0.120535 
        2.33166        0.155913        0.119751 
         2.3378        0.154918        0.118972 
        2.34394        0.153822          0.1182 
        2.35007        0.153011        0.117437 
        2.35619        0.152025         0.11668 
        2.36233        0.151074        0.115929 
        2.36848        0.150495        0.115183 
        2.37462        0.149371        0.114445 
        2.38075        0.148936        0.113714 
        2.38689        0.147912        0.112988 
        2.39303        0.147453         0.11227 
        2.39916        0.146124        0.111558 
        2.40529        0.145529        0.110852 
        2.41143        0.144735        0.110152 
        2.41757        0.143826        0.109458 
         2.4237        0.143223        0.108771 
        2.42983        0.142277         0.10809 
        2.43598        0.141882        0.107413 
        2.44211        0.140861        0.106743 
        2.44823        0.140396         0.10608 
        2.45437        0.139162        0.105421 
        2.46052        0.138671        0.104766 
        2.46665        0.137829        0.104119 
        2.47279        0.137032        0.103477 
        2.47892        0.136223        0.102841 
        2.48507        0.135451        0.102209 
         2.4912        0.134928        0.101583 
