# k  (h/Mpc)    Pcb(k)  (Mpc/h)^3    Pcb_linear(k)  (Mpc/h)^3
     0.00783031         13547.3         13738.2 
       0.013688         16916.5         16773.3 
       0.019231         16925.5         16895.8 
      0.0249154         15288.4           15595 
      0.0312784         13392.2         13533.6 
      0.0375637         11587.9         11593.3 
      0.0433917         9991.69         10167.3 
      0.0492413         9056.91         9128.23 
      0.0555754         8086.06          8335.5 
      0.0619321         7718.33         7717.13 
       0.067871         6971.52         7165.07 
      0.0738098         6394.57          6568.6 
      0.0800417         5683.98         5893.49 
      0.0862327         5113.53         5223.82 
      0.0921407         4638.29         4646.46 
      0.0982031         4137.67          4160.5 
       0.104506         3880.46         3783.13 
       0.110769         3599.06         3518.61 
       0.116806          3389.8         3331.06 
       0.122832         3231.81         3169.49 
       0.129052         2994.46         2995.94 
       0.135211          2820.3         2800.94 
       0.141259         2673.78         2590.09 
       0.147318         2497.72         2375.49 
       0.153489         2280.24         2173.26 
       0.159709         2150.76          2001.4 
       0.165845         2065.76         1868.73 
       0.171974         1953.33          1768.8 
       0.178125         1862.83         1690.76 
       0.184229         1786.83         1622.81 
        0.19034         1681.48         1553.69 
       0.196428         1644.32         1477.96 
       0.202534         1578.72         1395.01 
       0.208729         1498.32         1308.05 
       0.214876         1427.29         1225.23 
       0.220989         1376.94          1151.6 
       0.227147         1314.49         1089.06 
        0.23329         1263.09          1038.1 
       0.239377         1241.16         996.342 
       0.245482         1162.34         959.465 
       0.251667         1154.62         923.526 
       0.257832         1108.69         886.658 
       0.263955         1071.26         848.212 
       0.270079         1032.31         808.684 
        0.27624         1019.65         769.571 
       0.282372          976.22         733.044 
        0.28843         963.712         700.581 
       0.294538         914.916         671.848 
       0.300721          910.75         646.433 
        0.30691         871.921         623.642 
       0.313033         854.989         602.518 
       0.319153         836.268         581.847 
       0.325316         809.475         560.949 
        0.33145         789.136         540.028 
       0.337538         776.499         519.496 
       0.343633         755.584          499.67 
       0.349808         729.348         480.832 
       0.355968         724.542         463.515 
       0.362074         715.007         447.852 
       0.368217         693.665         433.353 
       0.374374         664.955         419.752 
       0.380519         664.282         406.768 
       0.386598         646.327         394.222 
       0.392688         643.859         381.871 
        0.39888         624.657         369.534 
       0.405048         614.102         357.582 
       0.411186         604.847         346.184 
       0.417313         592.613         335.391 
       0.423458         581.848         325.197 
       0.429607         572.954         315.623 
       0.435692         559.672         306.661 
       0.441815         555.127         298.048 
       0.447964         543.332         289.719 
       0.454126         533.934         281.619 
       0.460267         523.224         273.749 
       0.466387          517.42          266.13 
        0.47254         509.264         258.724 
       0.478662         507.019         251.633 
       0.484765         490.497         244.858 
       0.490885         486.653         238.373 
       0.497035         477.216         232.149 
       0.503198         472.001         226.169 
       0.509342         468.058         220.425 
       0.515458         463.898         214.899 
       0.521598         452.489         209.526 
       0.527764         444.396         204.289 
       0.533884         442.409         199.243 
           0.54         436.515         194.364 
       0.546137         434.317         189.636 
       0.552299         426.089         185.063 
       0.558452         423.894         180.662 
       0.564573         417.743         176.437 
       0.570708         411.459         172.345 
       0.576825         401.812           168.4 
       0.582926         401.168         164.589 
       0.589034         397.574         160.888 
       0.595184         393.867         157.269 
       0.601379         388.299         153.731 
       0.607522         382.734         150.328 
       0.613639         381.445         147.043 
       0.619772         372.492         143.853 
       0.625918         371.398         140.757 
       0.632068         365.562         137.754 
       0.638161          364.16         134.869 
         0.6443         357.766         132.045 
       0.650464         355.019         129.291 
       0.656582         352.858         126.635 
       0.662703          351.32         124.051 
       0.668861         345.034         121.526 
       0.675024          341.75         119.069 
       0.681124         339.355         116.705 
       0.687237          336.02         114.402 
       0.693381         331.247         112.151 
       0.699536         327.632         109.958 
       0.705665          325.42         107.833 
       0.711789         323.368         105.766 
       0.717957         320.722          103.74 
        0.72409         317.931         101.778 
       0.730186         314.205         99.8798 
       0.736317         311.121         98.0196 
       0.742472         309.616         96.2002 
       0.748622         306.398         94.4291 
        0.75476         303.161         92.7066 
       0.760888         299.821         91.0299 
       0.767043         300.202         89.3883 
       0.773185         296.305         87.7908 
       0.779291         291.716         86.2417 
       0.785407          290.94         84.7279 
       0.791564         287.364          83.241 
       0.797719         284.991         81.7908 
       0.803834          282.73         80.3844 
       0.809972         281.653         79.0063 
       0.816124         281.127         77.6577 
       0.822261         277.114         76.3443 
       0.828378         274.978         75.0654 
       0.834502         273.382          73.815 
       0.840667         270.319         72.5851 
       0.846816         268.747         71.3868 
       0.852925         267.135         70.2233 
       0.859047         265.131         69.0835 
       0.865192         262.079         67.9653 
       0.871341         260.137         66.8714 
       0.877463         258.751         65.8065 
       0.883569         257.549         64.7677 
       0.889708         254.786         63.7461 
       0.895864         252.231          62.744 
       0.902008         251.013         61.7657 
       0.908149         249.681         60.8089 
       0.914301         246.495          59.871 
       0.920448         245.032         58.9537 
       0.926574         242.849          58.059 
       0.932687         243.027         57.1849 
       0.938823          240.05         56.3257 
       0.944975         238.914         55.4822 
       0.951105         237.327         54.6591 
       0.957225         235.426         53.8542 
       0.963368         232.423         53.0628 
       0.969511          231.51         52.2874 
       0.975621          229.39         51.5317 
       0.981748         229.382         50.7891 
       0.987916         227.251         50.0564 
        0.99406           224.4          49.341 
        1.00019         224.345         48.6411 
        1.00632         222.593         47.9554 
        1.01246         220.797          47.282 
        1.01859         220.804         46.6226 
        1.02471          217.62         45.9766 
        1.03085         215.805         45.3407 
        1.03698         214.925         44.7181 
        1.04314          212.93         44.1047 
        1.04929         211.677         43.5042 
        1.05541         211.773         42.9174 
        1.06154         208.871           42.34 
        1.06769         208.542         41.7723 
        1.07382         206.892          41.217 
        1.07993         205.153         40.6731 
        1.08607           204.6         40.1367 
        1.09222         203.202         39.6095 
        1.09836          201.54         39.0925 
        1.10449         199.454         38.5853 
        1.11063         197.799         38.0865 
        1.11677          197.52         37.5968 
         1.1229         195.971         37.1166 
        1.12903         194.931         36.6443 
        1.13518         193.722         36.1799 
        1.14131         191.987         35.7239 
        1.14745         191.879          35.276 
        1.15359         190.187         34.8357 
        1.15973         188.975         34.4027 
        1.16584         187.329         33.9791 
        1.17197         187.025          33.562 
        1.17811         185.265         33.1507 
        1.18424          184.26         32.7475 
        1.19038         183.721         32.3498 
        1.19652         182.188         31.9589 
        1.20267          181.68         31.5745 
        1.20881         179.883         31.1965 
        1.21495         179.042         30.8253 
        1.22108         177.941         30.4602 
         1.2272         176.506         30.1019 
        1.23334         175.918         29.7485 
        1.23949         174.591            29.4 
        1.24562         173.723          29.058 
        1.25174         172.193          28.722 
        1.25789           171.1         28.3902 
        1.26402         169.941         28.0643 
        1.27014         168.728         27.7444 
        1.27628         168.148         27.4284 
        1.28244         167.875         27.1168 
        1.28858         166.144         26.8104 
        1.29471         164.716         26.5095 
        1.30084         164.279         26.2135 
        1.30697         162.901         25.9215 
        1.31312         161.969         25.6336 
        1.31925         161.188          25.351 
        1.32537         160.377         25.0729 
        1.33151         158.816          24.798 
        1.33765         158.093         24.5274 
        1.34378         157.371         24.2613 
        1.34992         156.681         23.9991 
        1.35606         156.372         23.7401 
         1.3622          154.72         23.4855 
        1.36833         153.374         23.2352 
        1.37445         152.715         22.9886 
        1.38059         151.778         22.7449 
        1.38675          151.15         22.5042 
        1.39288         150.309         22.2679 
        1.39901          150.05         22.0351 
        1.40515         148.396         21.8051 
         1.4113         147.483         21.5785 
        1.41742         146.634          21.356 
        1.42355         145.805         21.1362 
         1.4297         145.027         20.9188 
        1.43585         143.966         20.7046 
        1.44198         143.358         20.4942 
        1.44809         142.682         20.2871 
        1.45423         141.798         20.0821 
        1.46036         140.872         19.8804 
        1.46649          139.86         19.6813 
        1.47263         139.125         19.4848 
        1.47877         138.555          19.291 
        1.48491         137.056         19.0996 
        1.49104          137.05         18.9112 
        1.49718         135.644         18.7252 
        1.50333         135.146         18.5414 
        1.50947         134.585         18.3604 
         1.5156         133.586         18.1821 
        1.52172         132.778         18.0062 
        1.52787         131.887         17.8323 
          1.534         131.368         17.6609 
        1.54013         130.516         17.4919 
        1.54627         129.898         17.3248 
        1.55241         128.891         17.1599 
        1.55855         128.195         16.9973 
        1.56467         127.628         16.8373 
         1.5708         126.713         16.6789 
        1.57695         126.232         16.5223 
        1.58308         125.552         16.3681 
        1.58922         124.992         16.2158 
        1.59535         123.965         16.0654 
         1.6015         123.523         15.9167 
        1.60764         122.805           15.77 
        1.61376         122.143         15.6256 
        1.61989         121.275         15.4828 
        1.62604          120.61         15.3415 
        1.63218         120.161         15.2021 
        1.63831         119.202         15.0647 
        1.64444         118.809         14.9289 
        1.65059         118.233         14.7945 
        1.65673         117.048         14.6619 
        1.66285         116.834         14.5313 
        1.66898         116.175         14.4023 
        1.67512          115.69         14.2745 
        1.68127         114.734         14.1482 
         1.6874         113.822         14.0237 
        1.69353         113.572         13.9008 
        1.69967         113.011         13.7791 
        1.70581         112.244         13.6588 
        1.71193         111.711         13.5405 
        1.71806         111.139         13.4233 
        1.72421          110.36         13.3072 
        1.73035         110.186         13.1927 
        1.73649          109.34         13.0795 
        1.74262         108.554         12.9678 
        1.74876         108.275         12.8573 
        1.75489         107.362         12.7483 
        1.76101         106.772         12.6406 
        1.76715         106.175          12.534 
        1.77329         105.935         12.4285 
        1.77943         104.942         12.3241 
        1.78557          104.57         12.2211 
        1.79171           103.8         12.1193 
        1.79785         103.309         12.0186 
        1.80399         102.646         11.9191 
        1.81012         102.218         11.8208 
        1.81625         101.641         11.7237 
        1.82239         101.321         11.6275 
        1.82853         100.656         11.5324 
        1.83466         99.9024         11.4385 
        1.84078         99.6366         11.3458 
        1.84692         98.8643         11.2539 
        1.85306          98.454         11.1629 
         1.8592         97.8799         11.0731 
        1.86533         97.1541         10.9843 
        1.87147         96.7324         10.8964 
        1.87761         96.2545         10.8094 
        1.88375         95.4873         10.7235 
        1.88988         95.1603         10.6386 
        1.89601         94.5842         10.5545 
        1.90215         94.1318         10.4713 
        1.90829         93.5854         10.3891 
        1.91442         93.1515         10.3077 
        1.92056         92.4976         10.2272 
         1.9267         92.2179         10.1475 
        1.93284         91.6709         10.0687 
        1.93897         91.1441         9.99078 
        1.94509         90.7684         9.91389 
        1.95123         90.2444          9.8376 
        1.95737         89.7039         9.76207 
        1.96349         89.1788         9.68752 
        1.96964         88.5509         9.61353 
        1.97578         88.1632         9.54028 
        1.98192         87.9705         9.46795 
        1.98805         87.1182         9.39635 
        1.99419         86.8999         9.32549 
        2.00033         86.4345         9.25533 
        2.00647         85.9475          9.1859 
         2.0126         85.4589         9.11731 
        2.01874         84.8702         9.04931 
        2.02488         84.4754         8.98194 
        2.03101         83.9213         8.91539 
        2.03714         83.4333         8.84957 
        2.04328         83.1502         8.78433 
        2.04941          82.732         8.71981 
        2.05554         82.2775         8.65599 
        2.06167         81.8256         8.59271 
        2.06781         81.3008         8.53005 
        2.07396         80.8899         8.46794 
        2.08009         80.6166         8.40654 
        2.08622         80.1123         8.34582 
        2.09237         79.6378         8.28559 
        2.09851         79.3508         8.22593 
        2.10464         78.8048         8.16696 
        2.11077         78.5046         8.10864 
        2.11691         78.1788         8.05077 
        2.12305         77.5085         7.99345 
        2.12918         77.1209         7.93682 
        2.13531         76.8904         7.88074 
        2.14145         76.1705         7.82507 
         2.1476         75.8305         7.76988 
        2.15372         75.5723         7.71549 
        2.15985         75.1526         7.66157 
        2.16599         74.7684         7.60801 
        2.17213          74.342         7.55502 
        2.17827         73.9413         7.50254 
         2.1844         73.5026         7.45061 
        2.19054         73.3701         7.39915 
        2.19666         72.8226         7.34825 
         2.2028         72.6278         7.29779 
        2.20893         72.0514         7.24777 
        2.21508         71.7128         7.19816 
        2.22122         71.3484           7.149 
        2.22736         70.9942          7.1004 
        2.23349         70.6138         7.05227 
        2.23962          70.215         7.00455 
        2.24577         69.8976         6.95723 
         2.2519         69.5871         6.91041 
        2.25802         69.1935          6.8641 
        2.26417         68.7343         6.81809 
        2.27031         68.5024         6.77245 
        2.27644          68.076         6.72736 
        2.28257         67.6776         6.68268 
        2.28872         67.3472         6.63833 
        2.29486         66.8403         6.59438 
        2.30099         66.5506         6.55093 
        2.30712         66.3805         6.50784 
        2.31326         66.0572         6.46507 
         2.3194         65.6394         6.42271 
        2.32553         65.2643          6.3808 
        2.33166         64.9553         6.33928 
         2.3378         64.4944         6.29807 
        2.34394         64.2716         6.25721 
        2.35007         63.8865         6.21677 
        2.35619         63.5985         6.17674 
        2.36233         63.3114         6.13697 
        2.36848          62.977         6.09746 
        2.37462         62.5425         6.05839 
        2.38075         62.4221         6.01969 
        2.38689         61.9802          5.9813 
        2.39303          61.671         5.94325 
        2.39916         61.3142         5.90557 
        2.40529         61.1372         5.86822 
        2.41143         60.7677         5.83116 
        2.41757         60.4474         5.79441 
         2.4237         60.2401         5.75804 
        2.42983         59.7817         5.72198 
        2.43598         59.5216         5.68614 
        2.44211         59.2469         5.65066 
        2.44823         58.9622         5.61557 
        2.45437         58.5376         5.58067 
        2.46052         58.2955         5.54605 
        2.46665         58.0815         5.51177 
        2.47279         57.6662          5.4778 
        2.47892         57.4436         5.44409 
        2.48507         57.1045         5.41064 
         2.4912         56.8751         5.37752 
