# k  (h/Mpc)    Pcb(k)  (Mpc/h)^3    Pcb_linear(k)  (Mpc/h)^3
     0.00783031          8985.9         9101.59 
       0.013688         11183.7         11113.8 
       0.019231         11215.7         11195.6 
      0.0249154         10176.1           10334 
      0.0312784         8906.17         8968.21 
      0.0375637         7692.59         7682.56 
      0.0433917         6656.84         6737.65 
      0.0492413         6022.84         6049.12 
      0.0555754         5404.18         5523.83 
      0.0619321         5131.29         5114.06 
       0.067871         4659.63         4748.23 
      0.0738098         4271.44         4352.96 
      0.0800417         3803.59         3905.57 
      0.0862327         3411.56          3461.8 
      0.0921407          3078.6         3079.19 
      0.0982031         2744.26         2757.15 
       0.104506         2559.86         2507.07 
       0.110769         2374.61         2331.77 
       0.116806         2231.99         2207.48 
       0.122832         2132.64         2100.41 
       0.129052         1982.35          1985.4 
       0.135211         1863.37         1856.18 
       0.141259          1757.2         1716.45 
       0.147318         1634.55         1574.23 
       0.153489         1490.91         1440.22 
       0.159709         1399.25         1326.32 
       0.165845         1336.23         1238.41 
       0.171974         1259.27         1172.19 
       0.178125         1203.23         1120.47 
       0.184229         1157.06         1075.44 
        0.19034         1083.85         1029.63 
       0.196428          1058.6         979.446 
       0.202534         1017.21         924.474 
       0.208729         960.058         866.848 
       0.214876         906.118          811.96 
       0.220989          873.22         763.169 
       0.227147         827.593         721.724 
        0.23329         794.421          687.95 
       0.239377         777.293         660.277 
       0.245482           727.1         635.838 
       0.251667         719.942         612.022 
       0.257832         693.098         587.589 
       0.263955           668.4         562.111 
       0.270079         642.642         535.916 
        0.27624         632.602         509.995 
       0.282372         605.623         485.789 
        0.28843         589.752         464.276 
       0.294538         561.157         445.234 
       0.300721         557.451         428.392 
        0.30691         531.904         413.288 
       0.313033          520.91          399.29 
       0.319153         504.371         385.591 
       0.325316         489.751         371.742 
        0.33145         474.914         357.877 
       0.337538         468.022         344.271 
       0.343633         452.601         331.132 
       0.349808         437.456         318.648 
       0.355968         432.753         307.172 
       0.362074         423.733         296.792 
       0.368217         412.043         287.183 
       0.374374         395.748         278.171 
       0.380519         391.928         269.566 
       0.386598         382.055         261.252 
       0.392688         378.759         253.066 
        0.39888         368.023         244.891 
       0.405048         359.879          236.97 
       0.411186         352.764         229.416 
       0.417313         346.193         222.264 
       0.423458         339.481         215.509 
       0.429607          332.46         209.164 
       0.435692         323.837         203.225 
       0.441815         321.249         197.517 
       0.447964         314.833         191.997 
       0.454126         304.107         186.629 
       0.460267         300.161         181.414 
       0.466387         296.677         176.365 
        0.47254           290.1         171.457 
       0.478662         288.952         166.757 
       0.484765          279.83         162.268 
       0.490885         276.401         157.971 
       0.497035         272.011         153.846 
       0.503198         266.097         149.882 
       0.509342         263.614         146.076 
       0.515458         260.229         142.414 
       0.521598         255.351         138.853 
       0.527764         251.263         135.382 
       0.533884         248.386         132.039 
           0.54         244.729         128.805 
       0.546137         243.402         125.672 
       0.552299         238.393         122.641 
       0.558452         235.946         119.725 
       0.564573         232.177         116.925 
       0.570708         227.794         114.213 
       0.576825          224.72         111.599 
       0.582926         221.895         109.073 
       0.589034         219.362          106.62 
       0.595184         217.036         104.223 
       0.601379         214.699         101.878 
       0.607522         210.479         99.6224 
       0.613639         209.341         97.4454 
       0.619772         204.687         95.3314 
       0.625918         203.162         93.2798 
       0.632068         200.501         91.2902 
       0.638161         199.346         89.3777 
         0.6443         196.145         87.5066 
       0.650464         194.214         85.6815 
       0.656582         192.436          83.921 
       0.662703         190.431         82.2091 
       0.668861         187.302         80.5353 
       0.675024         185.099         78.9071 
       0.681124         184.263         77.3409 
       0.687237         181.339         75.8146 
       0.693381         178.735          74.323 
       0.699536         177.492         72.8692 
       0.705665         176.873         71.4609 
       0.711789         173.635         70.0914 
       0.717957          172.98         68.7486 
        0.72409         170.655         67.4487 
       0.730186         168.269         66.1905 
       0.736317         166.973         64.9578 
       0.742472         165.989         63.7521 
       0.748622         164.495         62.5783 
        0.75476         163.059         61.4368 
       0.760888         160.806         60.3257 
       0.767043         160.185         59.2378 
       0.773185         158.449         58.1791 
       0.779291         155.817         57.1525 
       0.785407          155.16         56.1493 
       0.791564         153.732          55.164 
       0.797719         151.582         54.2029 
       0.803834         150.864         53.2709 
       0.809972         149.294         52.3576 
       0.816124         149.054         51.4639 
       0.822261         147.117         50.5935 
       0.828378          145.75          49.746 
       0.834502         145.489         48.9173 
       0.840667         143.215         48.1023 
       0.846816         141.948         47.3082 
       0.852925         141.176         46.5371 
       0.859047         139.518         45.7818 
       0.865192         138.596         45.0408 
       0.871341         137.263         44.3158 
       0.877463         136.151         43.6101 
       0.883569         135.306         42.9217 
       0.889708         134.224         42.2447 
       0.895864         132.824         41.5806 
       0.902008         132.015         40.9323 
       0.908149         131.348         40.2982 
       0.914301         129.908         39.6766 
       0.920448          128.96         39.0688 
       0.926574         128.211         38.4758 
       0.932687         127.782         37.8965 
       0.938823         125.929         37.3271 
       0.944975         124.765         36.7682 
       0.951105         124.234         36.2227 
       0.957225         122.792         35.6893 
       0.963368         121.835         35.1649 
       0.969511         121.541          34.651 
       0.975621         120.911         34.1502 
       0.981748         120.082          33.658 
       0.987916         118.732         33.1725 
        0.99406         118.004         32.6984 
        1.00019         117.406         32.2346 
        1.00632         116.462         31.7802 
        1.01246         115.691         31.3339 
        1.01859         114.414         30.8969 
        1.02471         114.127         30.4688 
        1.03085         112.966         30.0473 
        1.03698         112.343         29.6348 
        1.04314         111.321         29.2283 
        1.04929          110.66         28.8303 
        1.05541         109.949         28.4414 
        1.06154          109.31         28.0588 
        1.06769         109.037         27.6826 
        1.07382         108.276         27.3146 
        1.07993         107.385         26.9541 
        1.08607         106.567         26.5987 
        1.09222         106.139         26.2493 
        1.09836         105.227         25.9067 
        1.10449         104.541         25.5705 
        1.11063         103.857           25.24 
        1.11677         103.446         24.9155 
         1.1229         102.297         24.5972 
        1.12903         101.553         24.2843 
        1.13518         101.721         23.9765 
        1.14131         100.758         23.6743 
        1.14745         99.9667         23.3775 
        1.15359         99.3852         23.0857 
        1.15973         99.0413         22.7988 
        1.16584          98.147          22.518 
        1.17197         97.6454         22.2416 
        1.17811         97.0152          21.969 
        1.18424         96.4246         21.7018 
        1.19038         95.8987         21.4383 
        1.19652         95.3481         21.1792 
        1.20267          94.613         20.9245 
        1.20881         94.0411          20.674 
        1.21495         93.4378          20.428 
        1.22108         92.9741          20.186 
         1.2272         92.1753         19.9486 
        1.23334         91.8388         19.7144 
        1.23949         91.0506         19.4834 
        1.24562          90.772         19.2568 
        1.25174         90.0805         19.0341 
        1.25789         89.6889         18.8143 
        1.26402         89.2571         18.5983 
        1.27014         88.4943         18.3862 
        1.27628         88.2117         18.1769 
        1.28244         87.4995         17.9704 
        1.28858         87.2409         17.7673 
        1.29471         86.5973         17.5679 
        1.30084         86.0836         17.3717 
        1.30697         85.5955         17.1782 
        1.31312         85.2003         16.9874 
        1.31925         84.6457         16.8001 
        1.32537         84.3213         16.6158 
        1.33151         83.4898         16.4337 
        1.33765          83.092         16.2543 
        1.34378         82.5877          16.078 
        1.34992         82.4038         15.9042 
        1.35606         81.8863         15.7326 
         1.3622         81.1175         15.5639 
        1.36833         80.9833          15.398 
        1.37445         80.4136         15.2346 
        1.38059         79.9022         15.0731 
        1.38675         79.4045         14.9136 
        1.39288         78.9619          14.757 
        1.39901         78.8127         14.6027 
        1.40515         78.2848         14.4503 
         1.4113          77.721         14.3001 
        1.41742          77.631         14.1527 
        1.42355         76.9063          14.007 
         1.4297         76.5876          13.863 
        1.43585         75.9829          13.721 
        1.44198         75.7204         13.5816 
        1.44809          75.319         13.4443 
        1.45423         74.8671         13.3085 
        1.46036         74.6746         13.1748 
        1.46649          74.168         13.0428 
        1.47263         73.7029         12.9126 
        1.47877         73.5159         12.7842 
        1.48491         73.0218         12.6573 
        1.49104         72.6068         12.5325 
        1.49718         72.1531         12.4092 
        1.50333         71.7987         12.2874 
        1.50947         71.3984         12.1675 
         1.5156         71.0892         12.0493 
        1.52172         70.6881         11.9328 
        1.52787         70.5276         11.8175 
          1.534         70.0245         11.7039 
        1.54013         69.5423         11.5919 
        1.54627         69.2993         11.4812 
        1.55241         68.8475         11.3719 
        1.55855         68.5283         11.2642 
        1.56467         68.0549         11.1581 
         1.5708         67.9009         11.0532 
        1.57695         67.6447         10.9494 
        1.58308          67.021         10.8472 
        1.58922         66.9337         10.7462 
        1.59535         66.6846         10.6466 
         1.6015         66.0559         10.5481 
        1.60764         65.8811         10.4508 
        1.61376         65.4685         10.3551 
        1.61989         65.1113         10.2605 
        1.62604         64.9195         10.1669 
        1.63218         64.6439         10.0744 
        1.63831         64.1786          9.9834 
        1.64444         63.8692         9.89344 
        1.65059         63.4364         9.80437 
        1.65673          63.256          9.7165 
        1.66285         62.8775         9.62995 
        1.66898         62.5912         9.54442 
        1.67512         62.1717         9.45977 
        1.68127         61.8635         9.37607 
         1.6874         61.6443         9.29356 
        1.69353          61.339          9.2121 
        1.69967         60.9578         9.13142 
        1.70581         60.8277         9.05174 
        1.71193         60.6092         8.97331 
        1.71806         60.0104         8.89564 
        1.72421         59.8943         8.81874 
        1.73035         59.5489         8.74284 
        1.73649          59.152         8.66784 
        1.74262         59.0184         8.59379 
        1.74876         58.6974         8.52055 
        1.75489         58.3418         8.44831 
        1.76101         58.1533         8.37694 
        1.76715         57.7376         8.30629 
        1.77329         57.5455         8.23636 
        1.77943         57.1509         8.16722 
        1.78557         57.0151         8.09896 
        1.79171          56.679         8.03148 
        1.79785         56.4542         7.96475 
        1.80399         56.1741         7.89879 
        1.81012         55.9851         7.83366 
        1.81625         55.4482          7.7693 
        1.82239         55.2873         7.70556 
        1.82853         54.9314         7.64257 
        1.83466         54.7731         7.58034 
        1.84078          54.402         7.51888 
        1.84692         54.1137         7.45799 
        1.85306         53.9284          7.3977 
         1.8592         53.5399         7.33817 
        1.86533         53.4097         7.27934 
        1.87147         53.1063         7.22108 
        1.87761         52.9046         7.16343 
        1.88375         52.6386         7.10647 
        1.88988         52.5458          7.0502 
        1.89601         52.1197          6.9945 
        1.90215         51.8896         6.93937 
        1.90829         51.7543         6.88485 
        1.91442         51.4207         6.83091 
        1.92056         51.0739          6.7776 
         1.9267         50.8616          6.7248 
        1.93284          50.645         6.67253 
        1.93897         50.3752         6.62091 
        1.94509         50.0681         6.56996 
        1.95123         49.9542          6.5194 
        1.95737         49.7271         6.46935 
        1.96349         49.4042         6.41994 
        1.96964         49.3386         6.37091 
        1.97578         48.9804         6.32237 
        1.98192         48.7771         6.27443 
        1.98805         48.6208         6.22698 
        1.99419         48.2549         6.18002 
        2.00033         48.0562         6.13353 
        2.00647         47.8626         6.08752 
         2.0126         47.5492         6.04206 
        2.01874         47.3978           5.997 
        2.02488         47.2467         5.95235 
        2.03101         46.9226         5.90825 
        2.03714         46.7019         5.86463 
        2.04328         46.4779          5.8214 
        2.04941         46.1989         5.77864 
        2.05554         45.9249         5.73634 
        2.06167         45.8774         5.69441 
        2.06781          45.657         5.65289 
        2.07396         45.3725         5.61172 
        2.08009         45.2226         5.57103 
        2.08622         44.9094          5.5308 
        2.09237         44.7288         5.49088 
        2.09851         44.5542         5.45135 
        2.10464         44.3214         5.41227 
        2.11077         44.1654         5.37362 
        2.11691         43.8887         5.33526 
        2.12305         43.6603         5.29728 
        2.12918         43.4261         5.25975 
        2.13531         43.2315         5.22259 
        2.14145         43.0603          5.1857 
         2.1476         42.8905         5.14912 
        2.15372         42.6128         5.11308 
        2.15985         42.4424         5.07734 
        2.16599         42.3396         5.04185 
        2.17213         42.1657         5.00673 
        2.17827         41.8869         4.97195 
         2.1844         41.6721         4.93754 
        2.19054         41.4441         4.90344 
        2.19666         41.2891         4.86971 
         2.2028         41.1073         4.83626 
        2.20893         40.9785         4.80311 
        2.21508         40.8051         4.77024 
        2.22122         40.5325         4.73766 
        2.22736         40.3683         4.70545 
        2.23349         40.2435         4.67355 
        2.23962         39.8929         4.64193 
        2.24577         39.7547         4.61057 
         2.2519         39.5515         4.57955 
        2.25802         39.4954         4.54886 
        2.26417         39.2515         4.51836 
        2.27031         39.1247         4.48812 
        2.27644         38.8091         4.45824 
        2.28257         38.7122         4.42863 
        2.28872         38.4393         4.39924 
        2.29486         38.3556         4.37012 
        2.30099         38.1884         4.34132 
        2.30712         38.0117         4.31276 
        2.31326         37.8351         4.28442 
         2.3194          37.618         4.25635 
        2.32553         37.4874         4.22857 
        2.33166         37.3229         4.20105 
         2.3378           37.06         4.17375 
        2.34394         36.8463         4.14667 
        2.35007          36.733         4.11987 
        2.35619         36.6518         4.09334 
        2.36233         36.5135         4.06699 
        2.36848         36.2036         4.04081 
        2.37462         36.1456         4.01491 
        2.38075         35.9627         3.98927 
        2.38689         35.8899         3.96382 
        2.39303         35.6552         3.93861 
        2.39916         35.4474         3.91364 
        2.40529         35.2286         3.88888 
        2.41143          35.171         3.86433 
        2.41757         35.0463         3.83997 
         2.4237         34.8652         3.81587 
        2.42983         34.7024         3.79197 
        2.43598         34.4788         3.76822 
        2.44211         34.3442         3.74471 
        2.44823          34.213         3.72145 
        2.45437         34.1053         3.69833 
        2.46052         33.8414         3.67538 
        2.46665         33.7695         3.65267 
        2.47279         33.6137         3.63015 
        2.47892         33.4191         3.60781 
        2.48507         33.2884         3.58564 
         2.4912         33.1544          3.5637 
