# k  (h/Mpc)    P(k)  (Mpc/h)^3    P_linear(k)  (Mpc/h)^3
     0.00783031         14933.7         15040.8 
       0.013688         18319.6         18846.7 
       0.019231         19024.5         19358.8 
      0.0249154         18116.1         18125.7 
      0.0312784         15647.5         15857.7 
      0.0375637         13291.4         13576.7 
      0.0433917         11723.1         11832.5 
      0.0492413         10358.7         10541.8 
      0.0555754          9486.7         9584.97 
      0.0619321         8536.17         8908.79 
       0.067871         8130.61         8365.28 
      0.0738098         7636.89         7790.23 
      0.0800417         6979.11         7103.71 
      0.0862327         6233.84         6362.34 
      0.0921407         5605.44         5664.67 
      0.0982031         5074.55         5028.29 
       0.104506         4501.22          4500.4 
       0.110769         4162.39         4121.44 
       0.116806         3981.69         3871.36 
       0.122832         3758.36            3694 
       0.129052         3575.79         3538.84 
       0.135211         3479.86         3373.22 
       0.141259         3230.39         3178.55 
       0.147318         2990.25         2952.65 
       0.153489         2802.06         2708.47 
       0.159709         2669.93         2473.12 
       0.165845         2429.34         2272.55 
       0.171974         2356.76         2114.42 
       0.178125          2275.3         1997.63 
       0.184229         2103.39         1913.82 
        0.19034         2078.34         1847.69 
       0.196428         2022.65         1784.98 
       0.202534            1904         1714.45 
       0.208729         1866.39         1630.48 
       0.214876         1781.32         1536.95 
       0.220989         1687.89         1440.57 
       0.227147         1638.38         1348.29 
        0.23329          1571.3         1267.62 
       0.239377         1560.07         1202.16 
       0.245482         1485.87          1150.5 
       0.251667         1432.69         1109.06 
       0.257832         1411.17         1073.73 
       0.263955         1348.42         1039.65 
       0.270079         1313.24         1003.07 
        0.27624         1259.28         962.478 
       0.282372         1243.32         918.995 
        0.28843         1221.95         875.267 
       0.294538         1165.48         833.032 
       0.300721         1142.59          794.43 
        0.30691         1115.36         761.122 
       0.313033         1072.48         733.304 
       0.319153         1061.17         709.566 
       0.325316         1047.62         688.068 
        0.33145         1024.96         667.444 
       0.337538         991.333         646.534 
       0.343633         968.672         624.642 
       0.349808         950.304         601.696 
       0.355968          932.05         578.689 
       0.362074         902.919         556.701 
       0.368217         900.522         536.096 
       0.374374         886.925         517.459 
       0.380519         855.386         500.852 
       0.386598         850.641         486.064 
       0.392688           829.7         472.396 
        0.39888         812.106         459.054 
       0.405048         796.506         445.902 
       0.411186         794.845         432.741 
       0.417313         790.198         419.482 
       0.423458         766.321         406.315 
       0.429607         745.817         393.526 
       0.435692         739.343         381.481 
       0.441815         725.245         370.165 
       0.447964         716.459         359.651 
       0.454126         707.428         349.838 
       0.460267         698.126         340.643 
       0.466387         686.311         331.877 
        0.47254         675.593         323.276 
       0.478662         665.869         314.819 
       0.484765         658.945         306.505 
       0.490885         652.073         298.314 
       0.497035         639.666         290.286 
       0.503198         639.208         282.538 
       0.509342          627.09         275.186 
       0.515458          614.87         268.254 
       0.521598         612.753         261.638 
       0.527764         599.096         255.294 
       0.533884         593.696         249.248 
           0.54         588.919         243.399 
       0.546137         580.076         237.669 
       0.552299         577.341         232.023 
       0.558452         569.791         226.511 
       0.564573         565.795         221.177 
       0.570708         559.746         216.004 
       0.576825         548.737          211.03 
       0.582926         547.382         206.249 
       0.589034         539.307         201.642 
       0.595184         534.436          197.18 
       0.601379         526.505         192.848 
       0.607522         518.114         188.687 
       0.613639         517.544         184.656 
       0.619772         514.532         180.708 
       0.625918         505.501         176.846 
       0.632068         503.159         173.082 
       0.638161         497.675         169.459 
         0.6443         491.821         165.921 
       0.650464         487.876         162.483 
       0.656582         484.127         159.176 
       0.662703         479.375         155.966 
       0.668861         473.127          152.83 
       0.675024         470.952         149.779 
       0.681124          462.46         146.842 
       0.687237         462.218         143.978 
       0.693381          455.18         141.175 
       0.699536         455.004         138.441 
       0.705665         448.844          135.79 
       0.711789         447.667          133.21 
       0.717957          441.64         130.678 
        0.72409         437.585         128.226 
       0.730186         438.196         125.853 
       0.736317         431.234         123.528 
       0.742472         427.205         121.255 
       0.748622         425.322         119.043 
        0.75476         421.082         116.892 
       0.760888         418.568         114.799 
       0.767043         415.619          112.75 
       0.773185         412.531         110.755 
       0.779291         408.122         108.819 
       0.785407         405.457         106.927 
       0.791564          403.14         105.068 
       0.797719         396.963         103.253 
       0.803834         398.772         101.493 
       0.809972         392.451         99.7683 
       0.816124         389.403         98.0797 
       0.822261          386.92         96.4351 
       0.828378         385.236         94.8335 
       0.834502         379.188         93.2673 
       0.840667          379.26         91.7266 
       0.846816         374.069         90.2254 
       0.852925         374.647         88.7675 
       0.859047         370.946         87.3391 
       0.865192         368.984         85.9377 
       0.871341         364.413         84.5663 
       0.877463         363.152         83.2313 
       0.883569         360.072         81.9287 
       0.889708         356.666         80.6475 
       0.895864         353.119         79.3906 
       0.902008         352.191         78.1633 
       0.908149         348.972         76.9628 
       0.914301          347.71         75.7857 
       0.920448         344.414         74.6346 
       0.926574         342.469         73.5114 
       0.932687         341.532         72.4139 
       0.938823         337.561          71.335 
       0.944975         336.823         70.2757 
       0.951105         333.866         69.2418 
       0.957225         329.828         68.2306 
       0.963368         330.548         67.2362 
       0.969511          325.04         66.2618 
       0.975621         323.776         65.3119 
       0.981748         322.694         64.3784 
       0.987916         320.697         63.4573 
        0.99406         317.742         62.5577 
        1.00019         314.805         61.6774 
        1.00632         314.591          60.815 
        1.01246         311.859         59.9678 
        1.01859         308.812         59.1382 
        1.02471          307.09         58.3254 
        1.03085         306.097         57.5251 
        1.03698         304.456         56.7417 
        1.04314         302.949         55.9695 
        1.04929         301.187         55.2136 
        1.05541         298.079         54.4747 
        1.06154         296.365         53.7476 
        1.06769         293.936         53.0327 
        1.07382         292.204         52.3333 
        1.07993         290.901          51.648 
        1.08607         289.348         50.9723 
        1.09222         286.857          50.308 
        1.09836         285.905         49.6564 
        1.10449         283.953         49.0172 
        1.11063         282.124         48.3886 
        1.11677         279.309         47.7712 
         1.1229         279.061         47.1658 
        1.12903         276.495         46.5703 
        1.13518         274.724         45.9847 
        1.14131         273.794         45.4095 
        1.14745         270.956         44.8445 
        1.15359         269.083         44.2891 
        1.15973         267.977         43.7429 
        1.16584         266.412         43.2084 
        1.17197         265.023         42.6821 
        1.17811         262.521         42.1629 
        1.18424         261.367          41.654 
        1.19038         260.259          41.152 
        1.19652         257.413         40.6585 
        1.20267         256.886         40.1731 
        1.20881         255.119         39.6957 
        1.21495         254.186         39.2269 
        1.22108         252.364         38.7658 
         1.2272          249.57         38.3131 
        1.23334         248.856         37.8667 
        1.23949         247.518         37.4263 
        1.24562         246.112         36.9942 
        1.25174          244.84         36.5696 
        1.25789         242.545         36.1503 
        1.26402         242.248         35.7384 
        1.27014         241.063          35.334 
        1.27628         239.047         34.9346 
        1.28244         237.292         34.5406 
        1.28858         236.386         34.1532 
        1.29471         234.917         33.7727 
        1.30084         234.255         33.3983 
        1.30697         231.774         33.0291 
        1.31312         230.615         32.6649 
        1.31925         229.348         32.3074 
        1.32537         228.589         31.9556 
        1.33151         226.795         31.6077 
        1.33765         225.192         31.2653 
        1.34378         224.431         30.9286 
        1.34992          222.38         30.5967 
        1.35606         221.609         30.2689 
         1.3622          219.92         29.9466 
        1.36833         219.181         29.6297 
        1.37445         218.539         29.3176 
        1.38059          215.99          29.009 
        1.38675         214.763         28.7041 
        1.39288         213.957         28.4049 
        1.39901           212.1           28.11 
        1.40515         211.459         27.8187 
         1.4113         210.024         27.5316 
        1.41742         208.453         27.2497 
        1.42355         208.145         26.9712 
         1.4297         206.676         26.6958 
        1.43585          205.69         26.4244 
        1.44198         204.007         26.1577 
        1.44809         203.323         25.8953 
        1.45423          202.12         25.6355 
        1.46036         200.987         25.3797 
        1.46649         199.715         25.1273 
        1.47263         198.909         24.8782 
        1.47877         197.537         24.6325 
        1.48491         196.084         24.3898 
        1.49104         194.425         24.1509 
        1.49718         194.142          23.915 
        1.50333          192.33         23.6819 
        1.50947         191.664         23.4524 
         1.5156         190.604         23.2262 
        1.52172         189.591         23.0031 
        1.52787         188.492         22.7824 
          1.534         187.883         22.5649 
        1.54013         186.352         22.3504 
        1.54627          185.65         22.1384 
        1.55241         184.684         21.9291 
        1.55855         183.609         21.7227 
        1.56467         182.596         21.5196 
         1.5708         181.082         21.3186 
        1.57695         180.487         21.1198 
        1.58308         179.282          20.924 
        1.58922         178.239         20.7305 
        1.59535         176.998         20.5396 
         1.6015         176.419         20.3508 
        1.60764         175.071         20.1645 
        1.61376         173.973          19.981 
        1.61989         173.182         19.7997 
        1.62604         172.249         19.6202 
        1.63218         171.289         19.4431 
        1.63831         170.615         19.2685 
        1.64444         169.167         19.0961 
        1.65059         168.437         18.9253 
        1.65673         167.442         18.7568 
        1.66285         166.686         18.5908 
        1.66898         165.732         18.4268 
        1.67512         164.646         18.2645 
        1.68127         163.958          18.104 
         1.6874          162.91         17.9457 
        1.69353         162.319         17.7895 
        1.69967         161.013         17.6347 
        1.70581          160.65         17.4818 
        1.71193         159.459         17.3314 
        1.71806         158.236         17.1824 
        1.72421         157.572         17.0348 
        1.73035         156.662         16.8892 
        1.73649          155.61         16.7452 
        1.74262         155.063         16.6031 
        1.74876         154.302         16.4625 
        1.75489         153.785         16.3239 
        1.76101         152.362         16.1869 
        1.76715          151.55         16.0512 
        1.77329         150.525          15.917 
        1.77943         149.698         15.7842 
        1.78557         148.995         15.6532 
        1.79171         148.298         15.5236 
        1.79785         147.233         15.3954 
        1.80399         146.638         15.2687 
        1.81012         145.978         15.1437 
        1.81625         144.823           15.02 
        1.82239         144.387         14.8976 
        1.82853         143.326         14.7766 
        1.83466         142.185         14.6571 
        1.84078         141.957          14.539 
        1.84692         141.274          14.422 
        1.85306         140.236         14.3062 
         1.8592         139.737         14.1918 
        1.86533         138.559         14.0787 
        1.87147         137.868         13.9667 
        1.87761         137.181         13.8559 
        1.88375         136.174         13.7465 
        1.88988         135.746         13.6383 
        1.89601         135.217         13.5312 
        1.90215         134.629         13.4253 
        1.90829         133.278         13.3204 
        1.91442         132.621         13.2167 
        1.92056         132.064         13.1142 
         1.9267         131.311         13.0127 
        1.93284         130.328         12.9122 
        1.93897          129.98          12.813 
        1.94509         129.097          12.715 
        1.95123         128.502         12.6178 
        1.95737         127.903         12.5215 
        1.96349         127.015         12.4265 
        1.96964         126.267         12.3322 
        1.97578         125.638         12.2388 
        1.98192         125.252         12.1466 
        1.98805         124.534         12.0553 
        1.99419         123.424          11.965 
        2.00033         123.048         11.8755 
        2.00647         122.541          11.787 
         2.0126         121.646         11.6995 
        2.01874         121.073         11.6128 
        2.02488          120.36         11.5269 
        2.03101         119.941          11.442 
        2.03714         119.126         11.3581 
        2.04328         118.672         11.2748 
        2.04941         118.134         11.1925 
        2.05554         117.511         11.1111 
        2.06167         116.613         11.0304 
        2.06781         116.114         10.9505 
        2.07396         115.442         10.8712 
        2.08009         114.733         10.7929 
        2.08622         114.229         10.7154 
        2.09237         113.349         10.6385 
        2.09851         113.084         10.5624 
        2.10464         112.505         10.4872 
        2.11077         111.788         10.4127 
        2.11691         111.274         10.3389 
        2.12305         110.679         10.2657 
        2.12918         110.078         10.1934 
        2.13531         109.373         10.1218 
        2.14145         109.007         10.0508 
         2.1476         108.344         9.98031 
        2.15372         107.647         9.91087 
        2.15985         107.151         9.84202 
        2.16599         106.477         9.77363 
        2.17213         105.934         9.70597 
        2.17827         105.404         9.63896 
         2.1844         104.986         9.57264 
        2.19054          104.36         9.50692 
        2.19666         103.553         9.44191 
         2.2028         103.282         9.37745 
        2.20893         102.873         9.31356 
        2.21508         102.101          9.2502 
        2.22122          101.56          9.1874 
        2.22736         101.349         9.12532 
        2.23349         100.658         9.06382 
        2.23962          100.06         9.00286 
        2.24577         99.5261         8.94241 
         2.2519          98.946         8.88259 
        2.25802         98.5989         8.82342 
        2.26417         97.8765         8.76462 
        2.27031         97.2619          8.7063 
        2.27644          96.973         8.64869 
        2.28257         96.5242          8.5916 
        2.28872         95.9672         8.53491 
        2.29486         95.6873         8.47875 
        2.30099         94.9381         8.42321 
        2.30712         94.5922         8.36814 
        2.31326         94.0473         8.31346 
         2.3194         93.5907         8.25931 
        2.32553         93.1392         8.20573 
        2.33166         92.6099         8.15265 
         2.3378         92.0218         8.09997 
        2.34394         91.6251         8.04773 
        2.35007          91.021         7.99603 
        2.35619         90.6138         7.94484 
        2.36233         90.1354         7.89398 
        2.36848         89.6327         7.84346 
        2.37462         89.4714         7.79349 
        2.38075         88.7952           7.744 
        2.38689         88.3797          7.6949 
        2.39303         88.0347         7.64624 
        2.39916         87.5099         7.59804 
        2.40529         87.1621         7.55027 
        2.41143         86.6324         7.50287 
        2.41757         85.9975         7.45585 
         2.4237         85.6628         7.40933 
        2.42983         85.1764         7.36321 
        2.43598         84.8745         7.31735 
        2.44211         84.5817         7.27197 
        2.44823         84.0487         7.22706 
        2.45437         83.6882         7.18242 
        2.46052         83.1516         7.13811 
        2.46665         82.5227         7.09426 
        2.47279         82.3725         7.05079 
        2.47892         81.9983         7.00765 
        2.48507          81.581         6.96484 
         2.4912         81.0166         6.92246 
