# k  (h/Mpc)    P(k)  (Mpc/h)^3    P_linear(k)  (Mpc/h)^3
     0.00783031         3194.99         3220.94 
       0.013688         3980.25         4042.76 
       0.019231         4122.79         4155.05 
      0.0249154         3894.17         3891.64 
      0.0312784         3394.53         3405.41 
      0.0375637         2897.76         2915.98 
      0.0433917         2543.23         2541.58 
      0.0492413         2255.72         2264.49 
      0.0555754          2063.4         2059.07 
      0.0619321         1885.45         1913.89 
       0.067871         1787.09         1797.18 
      0.0738098         1668.15         1673.68 
      0.0800417         1526.03         1526.22 
      0.0862327         1362.36         1366.96 
      0.0921407         1215.08         1217.08 
      0.0982031         1087.64         1080.36 
       0.104506         965.181         966.955 
       0.110769         886.856         885.539 
       0.116806         842.751         831.814 
       0.122832         796.366         793.711 
       0.129052         765.379         760.378 
       0.135211         734.894         724.794 
       0.141259         687.544         682.969 
       0.147318         634.051         634.433 
       0.153489         587.086         581.969 
       0.159709         543.942         531.402 
       0.165845         493.463         488.306 
       0.171974         471.442          454.33 
       0.178125          446.84         429.236 
       0.184229         422.224         411.229 
        0.19034         412.234         397.021 
       0.196428         398.478         383.547 
       0.202534         375.765         368.393 
       0.208729         364.292          350.35 
       0.214876         347.309         330.252 
       0.220989         321.368         309.543 
       0.227147         309.176         289.714 
        0.23329         293.843         272.381 
       0.239377         282.827         258.316 
       0.245482         268.876         247.216 
       0.251667         257.877         238.311 
       0.257832         254.484         230.719 
       0.263955         241.994         223.398 
       0.270079         233.569         215.538 
        0.27624          223.39         206.815 
       0.282372         215.659         197.472 
        0.28843         211.624         188.076 
       0.294538         200.965             179 
       0.300721         191.648         170.706 
        0.30691         187.594         163.549 
       0.313033         179.728         157.571 
       0.319153         176.599          152.47 
       0.325316         170.132         147.851 
        0.33145         165.113          143.42 
       0.337538         160.098         138.926 
       0.343633         155.334         134.222 
       0.349808         150.248         129.292 
       0.355968         145.815         124.348 
       0.362074         142.578         119.623 
       0.368217         138.754         115.196 
       0.374374         135.337         111.191 
       0.380519          129.55         107.623 
       0.386598         126.536         104.445 
       0.392688         122.992         101.508 
        0.39888         120.782         98.6412 
       0.405048         118.072         95.8153 
       0.411186         115.555         92.9872 
       0.417313         112.445         90.1382 
       0.423458         109.447         87.3088 
       0.429607         107.329         84.5609 
       0.435692         105.456         81.9727 
       0.441815         101.888          79.541 
       0.447964         98.8811         77.2817 
       0.454126         97.0835         75.1732 
       0.460267          96.271         73.1974 
       0.466387          93.839         71.3138 
        0.47254         92.6794         69.4655 
       0.478662         89.5153         67.6484 
       0.484765         88.0036         65.8619 
       0.490885         85.7403         64.1019 
       0.497035         84.9207         62.3768 
       0.503198         82.8573         60.7117 
       0.509342         80.7324          59.132 
       0.515458         79.7597         57.6425 
       0.521598         77.8091         56.2208 
       0.527764         76.8747         54.8577 
       0.533884         75.8794         53.5585 
           0.54         74.0207         52.3017 
       0.546137         72.0526         51.0705 
       0.552299         70.9119         49.8571 
       0.558452         69.5318         48.6727 
       0.564573         69.1635         47.5266 
       0.570708         67.1143         46.4151 
       0.576825         66.4268         45.3462 
       0.582926         65.5278          44.319 
       0.589034         64.3062         43.3289 
       0.595184         63.4619         42.3702 
       0.601379         61.8154         41.4392 
       0.607522         60.9067         40.5451 
       0.613639          60.243          39.679 
       0.619772          59.142         38.8307 
       0.625918         58.2426         38.0008 
       0.632068         57.6208         37.1921 
       0.638161         56.4981         36.4135 
         0.6443         55.9103         35.6533 
       0.650464          54.646         34.9144 
       0.656582         54.3689         34.2038 
       0.662703         53.6846         33.5141 
       0.668861         52.3873         32.8403 
       0.675024         52.0632         32.1847 
       0.681124         51.4711         31.5536 
       0.687237         50.4303          30.938 
       0.693381         49.7966         30.3359 
       0.699536         49.4146         29.7484 
       0.705665         48.5701         29.1787 
       0.711789         47.8289         28.6242 
       0.717957         47.0625         28.0802 
        0.72409         46.6194         27.5533 
       0.730186         46.3673         27.0433 
       0.736317         45.4931         26.5437 
       0.742472         44.9678         26.0553 
       0.748622         44.3007           25.58 
        0.75476         43.4796         25.1179 
       0.760888         43.4119         24.6682 
       0.767043          42.613         24.2278 
       0.773185         42.2024         23.7991 
       0.779291         41.6757         23.3832 
       0.785407         41.0662         22.9766 
       0.791564         41.0163          22.577 
       0.797719          40.244         22.1872 
       0.803834         39.9608          21.809 
       0.809972         39.3646         21.4383 
       0.816124         38.9777         21.0755 
       0.822261          38.524         20.7221 
       0.828378         38.2557         20.3779 
       0.834502          37.824         20.0414 
       0.840667         37.4778         19.7103 
       0.846816         36.7914         19.3877 
       0.852925          36.663         19.0745 
       0.859047         36.3968         18.7675 
       0.865192         35.8284         18.4664 
       0.871341         35.4129         18.1717 
       0.877463         35.1083         17.8848 
       0.883569         34.9462         17.6049 
       0.889708         34.4951         17.3296 
       0.895864         34.0895         17.0595 
       0.902008         33.7293         16.7958 
       0.908149         33.4222         16.5379 
       0.914301         33.2078         16.2849 
       0.920448         32.8269         16.0376 
       0.926574         32.4229         15.7962 
       0.932687         32.1482         15.5604 
       0.938823         31.7658         15.3286 
       0.944975         31.5221         15.1009 
       0.951105         31.2635         14.8788 
       0.957225         31.0653         14.6615 
       0.963368          30.663         14.4478 
       0.969511         30.4117         14.2384 
       0.975621         30.1619         14.0343 
       0.981748         29.8213         13.8337 
       0.987916          29.647         13.6358 
        0.99406         29.2816         13.4425 
        1.00019         29.1154         13.2533 
        1.00632         28.8779          13.068 
        1.01246         28.6331          12.886 
        1.01859         28.3336         12.7077 
        1.02471         28.0941          12.533 
        1.03085         27.9833         12.3611 
        1.03698         27.7577         12.1927 
        1.04314         27.4711         12.0268 
        1.04929         27.1701         11.8644 
        1.05541         27.0774         11.7056 
        1.06154          26.893         11.5494 
        1.06769         26.5348         11.3957 
        1.07382         26.3533         11.2454 
        1.07993         26.1233         11.0982 
        1.08607         25.9727          10.953 
        1.09222         25.7512         10.8103 
        1.09836         25.5221         10.6702 
        1.10449         25.3977         10.5329 
        1.11063         25.1929         10.3978 
        1.11677          25.123         10.2651 
         1.1229         24.8545          10.135 
        1.12903         24.6559         10.0071 
        1.13518         24.5096         9.88126 
        1.14131         24.3339         9.75766 
        1.14745         24.0431         9.63626 
        1.15359         23.8442         9.51691 
        1.15973         23.7025         9.39954 
        1.16584         23.5282         9.28468 
        1.17197         23.2851         9.17158 
        1.17811         23.1875         9.06003 
        1.18424         22.9751         8.95067 
        1.19038         22.8946          8.8428 
        1.19652         22.6727         8.73675 
        1.20267         22.5706         8.63245 
        1.20881         22.3634         8.52988 
        1.21495         22.2327         8.42914 
        1.22108         22.1752         8.33005 
         1.2272         22.0004         8.23278 
        1.23334         21.8498         8.13685 
        1.23949         21.6736         8.04223 
        1.24562         21.4587         7.94937 
        1.25174         21.3971         7.85813 
        1.25789         21.2717         7.76804 
        1.26402         21.1517         7.67953 
        1.27014         21.0248         7.59262 
        1.27628         20.8027          7.5068 
        1.28244         20.8029         7.42214 
        1.28858         20.5702          7.3389 
        1.29471         20.3875         7.25713 
        1.30084         20.2726         7.17669 
        1.30697         20.2035         7.09734 
        1.31312         20.0286         7.01909 
        1.31925         19.9231         6.94226 
        1.32537         19.7723         6.86666 
        1.33151         19.6537         6.79192 
        1.33765         19.5994         6.71834 
        1.34378         19.4777         6.64599 
        1.34992         19.3489         6.57467 
        1.35606         19.1746         6.50424 
         1.3622         19.0457         6.43497 
        1.36833         19.0084         6.36688 
        1.37445         18.8909         6.29981 
        1.38059          18.771          6.2335 
        1.38675         18.6427         6.16799 
        1.39288         18.5097         6.10368 
        1.39901         18.4199         6.04033 
        1.40515         18.3261         5.97773 
         1.4113         18.2204         5.91605 
        1.41742          18.138         5.85547 
        1.42355         17.9846         5.79563 
         1.4297         17.8921         5.73644 
        1.43585         17.8053         5.67811 
        1.44198         17.7425         5.62081 
        1.44809         17.6223         5.56442 
        1.45423         17.5116         5.50859 
        1.46036         17.4147         5.45363 
        1.46649         17.3094          5.3994 
        1.47263         17.2397         5.34587 
        1.47877         17.1509         5.29308 
        1.48491         17.0484         5.24093 
        1.49104         16.9436         5.18959 
        1.49718         16.8735          5.1389 
        1.50333         16.7978         5.08881 
        1.50947         16.7112         5.03949 
         1.5156          16.613         4.99089 
        1.52172         16.5029         4.94294 
        1.52787         16.4482         4.89552 
          1.534         16.3709         4.84878 
        1.54013         16.2897          4.8027 
        1.54627         16.1614         4.75713 
        1.55241         16.0602         4.71215 
        1.55855         16.0096         4.66782 
        1.56467         15.9649         4.62418 
         1.5708         15.8829         4.58097 
        1.57695          15.783         4.53826 
        1.58308         15.6697         4.49618 
        1.58922         15.6137         4.45462 
        1.59535          15.533         4.41359 
         1.6015         15.4086         4.37302 
        1.60764          15.367         4.33299 
        1.61376         15.3226         4.29356 
        1.61989         15.2011          4.2546 
        1.62604         15.1668         4.21603 
        1.63218         15.0921         4.17796 
        1.63831         14.9797         4.14046 
        1.64444         14.9055          4.1034 
        1.65059         14.8353          4.0667 
        1.65673         14.7979          4.0305 
        1.66285         14.6817         3.99483 
        1.66898         14.6669         3.95959 
        1.67512         14.6077         3.92471 
        1.68127         14.4861         3.89021 
         1.6874         14.4592         3.85621 
        1.69353         14.3263         3.82263 
        1.69967         14.2855         3.78938 
        1.70581         14.2402         3.75653 
        1.71193         14.1486          3.7242 
        1.71806         14.1074         3.69218 
        1.72421         14.0316         3.66047 
        1.73035         13.9615         3.62917 
        1.73649         13.9227         3.59825 
        1.74262         13.7994         3.56771 
        1.74876         13.7834          3.5375 
        1.75489         13.7284         3.50771 
        1.76101         13.6302         3.47826 
        1.76715         13.5956         3.44912 
        1.77329         13.5236         3.42027 
        1.77943          13.442         3.39174 
        1.78557         13.4266         3.36358 
        1.79171         13.3333         3.33573 
        1.79785         13.3022         3.30819 
        1.80399         13.2104         3.28097 
        1.81012         13.1808          3.2541 
        1.81625         13.0916         3.22753 
        1.82239         13.0413         3.20123 
        1.82853         12.9785         3.17522 
        1.83466         12.8995         3.14954 
        1.84078         12.8809         3.12416 
        1.84692         12.8566         3.09902 
        1.85306         12.7851         3.07413 
         1.8592         12.7257         3.04955 
        1.86533         12.6392         3.02526 
        1.87147         12.5956          3.0012 
        1.87761         12.5469         2.97739 
        1.88375         12.5078         2.95387 
        1.88988         12.4157         2.93063 
        1.89601         12.3981         2.90762 
        1.90215         12.3186         2.88484 
        1.90829         12.2602         2.86232 
        1.91442         12.2041         2.84004 
        1.92056          12.213         2.81801 
         1.9267         12.1357          2.7962 
        1.93284         12.1162          2.7746 
        1.93897         12.0236         2.75328 
        1.94509         11.9829         2.73222 
        1.95123          11.938         2.71133 
        1.95737         11.9015         2.69064 
        1.96349         11.8112         2.67023 
        1.96964          11.781         2.64996 
        1.97578         11.7551          2.6299 
        1.98192          11.695         2.61008 
        1.98805         11.6391         2.59047 
        1.99419         11.5964         2.57106 
        2.00033         11.5595         2.55183 
        2.00647         11.5005         2.53281 
         2.0126         11.4692         2.51402 
        2.01874          11.392         2.49538 
        2.02488         11.3529         2.47692 
        2.03101         11.3307         2.45868 
        2.03714         11.2734         2.44064 
        2.04328         11.2071         2.42276 
        2.04941         11.1613         2.40508 
        2.05554         11.1506         2.38758 
        2.06167         11.1078         2.37023 
        2.06781         11.0497         2.35306 
        2.07396          11.034         2.33603 
        2.08009         10.9361         2.31919 
        2.08622         10.9426         2.30255 
        2.09237         10.9008         2.28603 
        2.09851          10.827         2.26967 
        2.10464         10.8154          2.2535 
        2.11077         10.7373         2.23751 
        2.11691         10.7325         2.22163 
        2.12305         10.6668         2.20591 
        2.12918         10.6024         2.19038 
        2.13531         10.5902           2.175 
        2.14145         10.5416         2.15973 
         2.1476         10.5074         2.14459 
        2.15372         10.4746         2.12967 
        2.15985         10.4308         2.11487 
        2.16599         10.3937         2.10018 
        2.17213         10.3823         2.08564 
        2.17827         10.3154         2.07124 
         2.1844          10.286         2.05699 
        2.19054          10.258         2.04287 
        2.19666         10.2169          2.0289 
         2.2028         10.1784         2.01505 
        2.20893         10.1255         2.00132 
        2.21508         10.1039          1.9877 
        2.22122          10.038         1.97421 
        2.22736         10.0179         1.96087 
        2.23349         9.98139         1.94765 
        2.23962         9.95762         1.93455 
        2.24577          9.9273         1.92156 
         2.2519         9.89527         1.90871 
        2.25802         9.80527           1.896 
        2.26417         9.82005         1.88336 
        2.27031         9.77618         1.87083 
        2.27644         9.74767         1.85845 
        2.28257         9.67407         1.84618 
        2.28872         9.66616           1.834 
        2.29486         9.63127         1.82193 
        2.30099         9.61001            1.81 
        2.30712         9.54005         1.79816 
        2.31326         9.50358         1.78642 
         2.3194          9.4853         1.77478 
        2.32553         9.44861         1.76327 
        2.33166         9.41007         1.75186 
         2.3378         9.38955         1.74054 
        2.34394         9.35472         1.72931 
        2.35007         9.32124          1.7182 
        2.35619         9.28592         1.70721 
        2.36233         9.23674         1.69628 
        2.36848         9.21604         1.68542 
        2.37462         9.18624         1.67468 
        2.38075         9.16125         1.66405 
        2.38689         9.13803          1.6535 
        2.39303         9.07815         1.64304 
        2.39916         9.06747         1.63268 
        2.40529         9.03756         1.62242 
        2.41143         8.99209         1.61223 
        2.41757         8.95604         1.60213 
         2.4237         8.94459         1.59213 
        2.42983         8.90841         1.58222 
        2.43598         8.87729         1.57237 
        2.44211         8.84971         1.56262 
        2.44823         8.81318         1.55297 
        2.45437         8.77974         1.54338 
        2.46052         8.77421         1.53385 
        2.46665         8.73515         1.52443 
        2.47279         8.70326         1.51509 
        2.47892         8.65838         1.50582 
        2.48507         8.63778         1.49662 
         2.4912         8.61323         1.48751 
