#  k  (h/Mpc)          P(k)  (Mpc/h)^3     P_linear(k) (Mpc/h)^3
     0.00783031         1502.24         1517.37 
       0.013688         1863.17         1864.48 
       0.019231         1880.95         1880.38 
      0.0249154         1724.04         1734.65 
      0.0312784         1500.26         1501.87 
      0.0375637         1285.02         1281.56 
      0.0433917          1116.8         1119.11 
      0.0492413         1002.13         1000.99 
      0.0555754         907.072         912.274 
      0.0619321         849.565         845.398 
       0.067871         783.901          787.38 
      0.0738098         721.311         724.832 
      0.0800417           647.7         652.836 
      0.0862327         578.014         579.659 
      0.0921407         515.372         514.995 
      0.0982031         458.446         459.336 
       0.104506         418.862         415.367 
       0.110769         387.331         384.508 
       0.116806         363.577          363.33 
       0.122832         348.019         346.227 
       0.129052         328.118         328.766 
       0.135211         308.667         309.213 
       0.141259         288.896         287.477 
       0.147318         267.358         264.495 
       0.153489         243.917         241.949 
       0.159709         224.829         222.049 
       0.165845         211.047         206.225 
       0.171974         197.142         194.183 
       0.178125         188.356         185.036 
       0.184229         181.268         177.612 
        0.19034         171.986          170.58 
       0.196428          166.08         163.094 
       0.202534         159.211         154.783 
       0.208729         149.454         145.749 
       0.214876         139.815         136.751 
       0.220989          133.06         128.392 
       0.227147         124.481         121.024 
        0.23329         118.509         114.895 
       0.239377         114.126         109.909 
       0.245482         108.564         105.687 
       0.251667         105.956         101.817 
       0.257832         102.049          98.028 
       0.263955          98.119         94.1322 
       0.270079         94.1326         90.0728 
        0.27624         90.9558         85.9252 
       0.282372         86.9461         81.9072 
        0.28843         82.8702         78.2053 
       0.294538          79.451         74.8464 
       0.300721         77.2183         71.8523 
        0.30691          73.834         69.2067 
       0.313033         71.5531         66.8379 
       0.319153         68.3722         64.6045 
       0.325316         67.2199         62.4047 
        0.33145         64.7074         60.2161 
       0.337538         62.8209         58.0456 
       0.343633         60.4638         55.9047 
       0.349808         58.5821         53.8154 
       0.355968         56.7227         51.8541 
       0.362074         54.8134         50.0523 
       0.368217         53.1776          48.386 
       0.374374         51.4781         46.8407 
       0.380519          50.179         45.3945 
       0.386598         48.8318         44.0272 
       0.392688         47.7208         42.6958 
        0.39888         46.2748         41.3713 
       0.405048         45.1001         40.0795 
       0.411186         43.9531         38.8297 
       0.417313          42.471         37.6302 
       0.423458         41.3694         36.4839 
       0.429607         40.2086         35.3981 
       0.435692         38.9843         34.3846 
       0.441815         38.2515         33.4173 
       0.447964         37.5742         32.4903 
       0.454126         36.1414         31.5977 
       0.460267         35.4669         30.7371 
       0.466387         34.4037         29.9034 
        0.47254         33.8381         29.0897 
       0.478662         33.1981         28.3061 
       0.484765         32.2031         27.5524 
       0.490885         31.4489         26.8258 
       0.497035         31.0345         26.1263 
       0.503198         30.2013         25.4553 
       0.509342         29.4352         24.8131 
       0.515458         28.8026         24.1977 
       0.521598         28.2866         23.6013 
       0.527764         27.6554         23.0218 
       0.533884         27.1784         22.4643 
           0.54         26.5809         21.9237 
       0.546137         26.1207         21.3981 
       0.552299         25.6723         20.8877 
       0.558452         24.8793         20.3956 
       0.564573         24.5339         19.9228 
       0.570708         24.0996         19.4649 
       0.576825         23.4907         19.0238 
       0.582926         23.0687         18.5982 
       0.589034         22.4579         18.1855 
       0.595184         22.1546         17.7826 
       0.601379         21.7119         17.3888 
       0.607522         21.3582         17.0096 
       0.613639         21.1123          16.643 
       0.619772         20.5519         16.2865 
       0.625918         20.4223         15.9399 
       0.632068          20.081         15.6037 
       0.638161         19.6282         15.2805 
         0.6443         19.2329         14.9644 
       0.650464         18.8779         14.6562 
       0.656582         18.7457         14.3591 
       0.662703         18.3938         14.0701 
       0.668861         18.0528         13.7875 
       0.675024         17.7166         13.5125 
       0.681124         17.4142         13.2478 
       0.687237         17.1413         12.9897 
       0.693381         16.9559         12.7374 
       0.699536         16.5018         12.4914 
       0.705665         16.3882          12.253 
       0.711789         16.0773         12.0212 
       0.717957         15.8365         11.7938 
        0.72409         15.5854         11.5737 
       0.730186         15.3762         11.3607 
       0.736317         15.2091         11.1519 
       0.742472         14.9602         10.9477 
       0.748622         14.7592         10.7488 
        0.75476         14.4729         10.5553 
       0.760888         14.2904          10.367 
       0.767043         14.1191         10.1825 
       0.773185         13.8463          10.003 
       0.779291         13.7566          9.8288 
       0.785407         13.5563         9.65859 
       0.791564         13.3323         9.49138 
       0.797719          13.074         9.32825 
       0.803834         13.0202         9.17004 
       0.809972         12.8959         9.01497 
       0.816124         12.6106         8.86318 
       0.822261         12.4538         8.71534 
       0.828378         12.3077         8.57136 
       0.834502         12.2034         8.43053 
       0.840667         12.0038         8.29199 
       0.846816          11.797         8.15699 
       0.852925         11.6905         8.02587 
       0.859047         11.5532         7.89738 
       0.865192         11.4521         7.77131 
       0.871341         11.3388         7.64794 
       0.877463         11.1466         7.52783 
       0.883569         10.9851         7.41062 
       0.889708         10.8124         7.29533 
       0.895864         10.7317         7.18222 
       0.902008         10.6305         7.07176 
       0.908149         10.5148         6.96371 
       0.914301         10.3903         6.85776 
       0.920448         10.2236         6.75414 
       0.926574         10.1136         6.65304 
       0.932687         10.0165         6.55424 
       0.938823         9.88223         6.45711 
       0.944975         9.76001         6.36174 
       0.951105         9.67184         6.26866 
       0.957225         9.61325         6.17762 
       0.963368         9.49283         6.08809 
       0.969511         9.39248         6.00036 
       0.975621         9.28259         5.91484 
       0.981748         9.18041         5.83078 
       0.987916          9.1071         5.74784 
        0.99406         8.96391         5.66685 
        1.00019          8.8346         5.58759 
        1.00632         8.81838         5.50993 
        1.01246         8.71529         5.43364 
        1.01859         8.58866         5.35894 
        1.02471         8.52821         5.28574 
        1.03085          8.4403         5.21367 
        1.03698         8.32289          5.1431 
        1.04314         8.27133         5.07356 
        1.04929          8.1635         5.00547 
        1.05541         8.07279         4.93892 
        1.06154          8.0118         4.87342 
        1.06769         7.97381         4.80903 
        1.07382         7.84657         4.74601 
        1.07993         7.77688         4.68428 
        1.08607         7.72383         4.62339 
        1.09222         7.64795         4.56353 
        1.09836          7.5655         4.50481 
        1.10449         7.49568          4.4472 
        1.11063         7.42406         4.39054 
        1.11677         7.37859         4.33489 
         1.1229           7.317         4.28031 
        1.12903         7.22957         4.22663 
        1.13518         7.15021         4.17383 
        1.14131         7.08105         4.12197 
        1.14745         7.00916         4.07102 
        1.15359         6.96944         4.02093 
        1.15973         6.90216         3.97167 
        1.16584         6.81283         3.92347 
        1.17197         6.76386         3.87599 
        1.17811         6.73114         3.82917 
        1.18424         6.67083         3.78326 
        1.19038         6.63479         3.73797 
        1.19652         6.55971         3.69345 
        1.20267         6.48906         3.64966 
        1.20881         6.46417         3.60659 
        1.21495         6.40401         3.56429 
        1.22108          6.3335         3.52268 
         1.2272         6.29837         3.48184 
        1.23334         6.22108         3.44156 
        1.23949         6.16868         3.40182 
        1.24562         6.14079         3.36282 
        1.25174         6.07859          3.3245 
        1.25789         6.03814         3.28667 
        1.26402         5.99612         3.24949 
        1.27014          5.9435         3.21298 
        1.27628         5.88724         3.17693 
        1.28244         5.82338         3.14137 
        1.28858          5.8131          3.1064 
        1.29471         5.74563         3.07205 
        1.30084         5.69194         3.03825 
        1.30697         5.69389         3.00491 
        1.31312         5.59083         2.97202 
        1.31925         5.56395         2.93974 
        1.32537         5.52102         2.90797 
        1.33151         5.50088         2.87656 
        1.33765         5.43274         2.84563 
        1.34378         5.39722         2.81522 
        1.34992         5.36986         2.78523 
        1.35606         5.30976         2.75562 
         1.3622         5.28738          2.7265 
        1.36833         5.24444         2.69786 
        1.37445          5.2082         2.66966 
        1.38059         5.18978         2.64177 
        1.38675         5.14704         2.61422 
        1.39288         5.10898         2.58717 
        1.39901         5.05225         2.56052 
        1.40515         5.02517         2.53418 
         1.4113         4.99351         2.50823 
        1.41742         4.95962         2.48275 
        1.42355         4.91552         2.45757 
         1.4297         4.88179         2.43267 
        1.43585         4.86229         2.40812 
        1.44198         4.83891         2.38401 
        1.44809         4.78827         2.36027 
        1.45423         4.75192         2.33678 
        1.46036         4.71571         2.31365 
        1.46649         4.68546         2.29082 
        1.47263         4.64961         2.26829 
        1.47877         4.61637         2.24607 
        1.48491         4.58923         2.22411 
        1.49104         4.56327          2.2025 
        1.49718         4.53403         2.18116 
        1.50333         4.50811         2.16007 
        1.50947         4.47205          2.1393 
         1.5156         4.44413         2.11884 
        1.52172          4.4186         2.09865 
        1.52787         4.39295         2.07868 
          1.534         4.35561           2.059 
        1.54013         4.33825         2.03959 
        1.54627         4.29703          2.0204 
        1.55241         4.27072         2.00146 
        1.55855         4.25459         1.98278 
        1.56467         4.22508         1.96439 
         1.5708         4.19819         1.94619 
        1.57695         4.16241         1.92819 
        1.58308         4.13391         1.91046 
        1.58922         4.12398         1.89295 
        1.59535         4.09774         1.87566 
         1.6015         4.06616         1.85856 
        1.60764         4.04083         1.84169 
        1.61376         4.02019         1.82507 
        1.61989         3.99629         1.80864 
        1.62604         3.96663         1.79238 
        1.63218         3.95804         1.77634 
        1.63831         3.92647         1.76052 
        1.64444         3.90397          1.7449 
        1.65059           3.869         1.72942 
        1.65673         3.86152         1.71416 
        1.66285         3.82625         1.69912 
        1.66898         3.80891         1.68425 
        1.67512         3.78219         1.66954 
        1.68127         3.76218         1.65499 
         1.6874         3.75078         1.64064 
        1.69353         3.71166         1.62648 
        1.69967         3.69881         1.61245 
        1.70581         3.68208         1.59859 
        1.71193         3.65832         1.58495 
        1.71806          3.6424         1.57144 
        1.72421         3.61853         1.55806 
        1.73035         3.60362         1.54485 
        1.73649         3.57825          1.5318 
        1.74262          3.5555         1.51891 
        1.74876         3.54599         1.50616 
        1.75489         3.52283         1.49359 
        1.76101         3.49457         1.48116 
        1.76715         3.48448         1.46886 
        1.77329         3.46865         1.45668 
        1.77943         3.43367         1.44464 
        1.78557         3.42612         1.43275 
        1.79171         3.40789         1.42099 
        1.79785         3.38664         1.40936 
        1.80399         3.36856         1.39787 
        1.81012         3.35434         1.38652 
        1.81625         3.33459          1.3753 
        1.82239         3.31551         1.36419 
        1.82853         3.29487          1.3532 
        1.83466         3.28764         1.34235 
        1.84078         3.26864         1.33163 
        1.84692         3.25652         1.32101 
        1.85306         3.22798          1.3105 
         1.8592         3.20986         1.30011 
        1.86533         3.19664         1.28985 
        1.87147         3.18604         1.27968 
        1.87761         3.16468         1.26962 
        1.88375         3.14811         1.25968 
        1.88988         3.13121         1.24985 
        1.89601         3.11686         1.24013 
        1.90215         3.09999          1.2305 
        1.90829         3.08028         1.22098 
        1.91442         3.07217         1.21156 
        1.92056         3.05109         1.20225 
         1.9267         3.03897         1.19303 
        1.93284         3.02717          1.1839 
        1.93897         3.01175         1.17488 
        1.94509         2.99089         1.16598 
        1.95123         2.97601         1.15714 
        1.95737         2.95912         1.14839 
        1.96349         2.95143         1.13976 
        1.96964         2.94191         1.13119 
        1.97578         2.91789          1.1227 
        1.98192         2.90906         1.11432 
        1.98805         2.89608         1.10602 
        1.99419         2.88201         1.09781 
        2.00033         2.87326         1.08968 
        2.00647         2.85403         1.08163 
         2.0126         2.84497         1.07367 
        2.01874         2.82172         1.06579 
        2.02488         2.81589         1.05798 
        2.03101         2.79349         1.05026 
        2.03714          2.7853         1.04262 
        2.04328         2.77298         1.03506 
        2.04941         2.75264         1.02757 
        2.05554         2.74717         1.02017 
        2.06167          2.7367         1.01282 
        2.06781         2.72406         1.00555 
        2.07396         2.71326        0.998341 
        2.08009         2.69882        0.991214 
        2.08622         2.68329        0.984165 
        2.09237         2.67427        0.977171 
        2.09851         2.66154        0.970244 
        2.10464          2.6536        0.963396 
        2.11077         2.63767        0.956622 
        2.11691         2.62652        0.949898 
        2.12305         2.61759        0.943239 
        2.12918          2.6089        0.936661 
        2.13531         2.59503        0.930144 
        2.14145         2.58282        0.923675 
         2.1476         2.56702         0.91726 
        2.15372         2.55709        0.910938 
        2.15985         2.54795         0.90467 
        2.16599         2.53769        0.898443 
        2.17213         2.52058        0.892281 
        2.17827         2.51445        0.886179 
         2.1844         2.50339         0.88014 
        2.19054         2.49563        0.874155 
        2.19666         2.48152        0.868234 
         2.2028         2.46963        0.862363 
        2.20893          2.4613        0.856544 
        2.21508         2.44909        0.850772 
        2.22122         2.43716        0.845051 
        2.22736         2.42757        0.839395 
        2.23349          2.4209        0.833792 
        2.23962         2.40665        0.828238 
        2.24577         2.39978        0.822729 
         2.2519         2.38853        0.817279 
        2.25802          2.3814        0.811886 
        2.26417         2.37255        0.806528 
        2.27031         2.35957        0.801213 
        2.27644         2.35162        0.795961 
        2.28257         2.33859        0.790757 
        2.28872         2.33309         0.78559 
        2.29486         2.32045        0.780471 
        2.30099         2.31062        0.775407 
        2.30712         2.29908        0.770386 
        2.31326         2.29335        0.765402 
         2.3194         2.28392        0.760465 
        2.32553         2.27486        0.755579 
        2.33166         2.26657        0.750739 
         2.3378         2.25705        0.745935 
        2.34394         2.24696        0.741171 
        2.35007         2.23764        0.736456 
        2.35619         2.23278        0.731787 
        2.36233         2.22182        0.727149 
        2.36848         2.21137         0.72254 
        2.37462         2.20548        0.717982 
        2.38075         2.19421        0.713468 
        2.38689         2.18916        0.708988 
        2.39303         2.17841        0.704548 
        2.39916         2.17022        0.700151 
        2.40529         2.16186        0.695792 
        2.41143         2.15219        0.691466 
        2.41757         2.14417        0.687176 
         2.4237         2.13883         0.68293 
        2.42983         2.12269         0.67872 
        2.43598         2.12414        0.674535 
        2.44211          2.1106        0.670392 
        2.44823         2.10571        0.666293 
        2.45437         2.09585        0.662218 
        2.46052         2.09016        0.658173 
        2.46665           2.082        0.654169 
        2.47279         2.07229          0.6502 
        2.47892          2.0661        0.646261 
        2.48507         2.05888        0.642352 
         2.4912         2.04531        0.638482 
