# k  (h/Mpc)    Pcb(k)  (Mpc/h)^3    Pcb_linear(k)  (Mpc/h)^3
     0.00783031         5195.21         5232.28 
       0.013688          5949.3         6049.24 
       0.019231         5703.31         5748.91 
      0.0249154          4978.2         4958.34 
      0.0312784         3967.05          3967.4 
      0.0375637         3144.03         3155.53 
      0.0433917         2640.52          2629.9 
      0.0492413         2298.04         2298.93 
      0.0555754         2102.27         2090.07 
      0.0619321         1924.76         1950.54 
       0.067871         1814.49            1820 
      0.0738098         1658.26         1657.64 
      0.0800417          1462.1         1454.03 
      0.0862327         1248.56         1243.71 
      0.0921407         1073.35         1064.39 
      0.0982031         940.353         921.537 
       0.104506           829.9         822.336 
       0.110769         774.757         765.332 
       0.116806         750.159         734.482 
       0.122832         717.649          710.72 
       0.129052         687.414         679.384 
       0.135211         648.908         634.554 
       0.141259         589.054         578.737 
       0.147318         526.697         518.456 
       0.153489         474.718         461.564 
       0.159709         435.276         415.552 
       0.165845         396.144         383.687 
       0.171974         384.685         363.737 
       0.178125         370.459         351.516 
       0.184229         354.137         342.056 
        0.19034         345.801         330.833 
       0.196428         330.948         315.438 
       0.202534          305.24         295.723 
       0.208729         290.529         273.339 
       0.214876         271.853         251.588 
       0.220989         249.264         232.818 
       0.227147         239.535         218.076 
        0.23329         229.038         207.528 
       0.239377         223.212         200.175 
       0.245482         213.852         194.369 
       0.251667         205.502          188.52 
       0.257832         202.269         181.645 
       0.263955         190.222         173.438 
       0.270079         180.903         164.206 
        0.27624         171.431         154.704 
       0.282372         164.255         145.867 
        0.28843         160.631         138.353 
       0.294538         152.601         132.204 
       0.300721         146.224         127.283 
        0.30691         143.676         123.235 
       0.313033         137.699         119.572 
       0.319153         135.245         115.816 
       0.325316           130.1         111.691 
        0.33145         125.406          107.24 
       0.337538         120.596         102.657 
       0.343633         116.469         98.1563 
       0.349808         112.215          93.947 
       0.355968         108.818         90.2297 
       0.362074         106.303         87.0608 
       0.368217         103.538         84.2857 
       0.374374         100.817          81.775 
       0.380519         96.6387         79.3765 
       0.386598         94.3058         76.9796 
       0.392688         91.1934         74.5173 
        0.39888         89.4688         71.9542 
       0.405048         87.0827         69.4103 
       0.411186         84.9801         66.9778 
       0.417313         82.5489         64.7067 
       0.423458         80.2305         62.6208 
       0.429607         78.4698         60.7302 
       0.435692         77.2162         59.0073 
       0.441815         74.5215         57.3715 
       0.447964         72.1339         55.7858 
       0.454126         70.7999         54.2152 
       0.460267         70.0585         52.6514 
       0.466387         68.0695         51.1093 
        0.47254         67.1331          49.597 
       0.478662         64.6915         48.1483 
       0.484765         63.4958         46.7768 
       0.490885          61.746         45.4864 
       0.497035         61.0662         44.2712 
       0.503198         59.6807         43.1167 
       0.509342         58.0265          42.012 
       0.515458         57.1124          40.947 
       0.521598         55.6501         39.9044 
       0.527764         54.9249          38.877 
       0.533884         54.1856         37.8774 
           0.54         52.7415         36.9064 
       0.546137         51.2864         35.9678 
       0.552299         50.3139         35.0669 
       0.558452         49.2968         34.2067 
       0.564573         48.9456         33.3861 
       0.570708         47.5132         32.5952 
       0.576825         46.9889         31.8346 
       0.582926         46.2841         31.1003 
       0.589034         45.3166         30.3857 
       0.595184         44.6879          29.684 
       0.601379         43.5451         28.9946 
       0.607522         42.6977         28.3301 
       0.613639         42.2441         27.6891 
       0.619772         41.3451         27.0689 
       0.625918         40.7912         26.4702 
       0.632068         40.2311          25.892 
       0.638161         39.4213         25.3375 
         0.6443         39.0035         24.7954 
       0.650464         38.0163         24.2662 
       0.656582         37.8201         23.7549 
       0.662703          37.218         23.2572 
       0.668861         36.3281         22.7706 
       0.675024         36.0396         22.2976 
       0.681124         35.6359         21.8432 
       0.687237          34.918          21.401 
       0.693381         34.3697         20.9695 
       0.699536         34.0524         20.5493 
       0.705665         33.4726         20.1427 
       0.711789         32.9415         19.7473 
       0.717957         32.3587         19.3599 
        0.72409         31.9957         18.9848 
       0.730186           31.79          18.622 
       0.736317         31.1597         18.2666 
       0.742472         30.7854         17.9193 
       0.748622         30.3026         17.5814 
        0.75476         29.7347         17.2531 
       0.760888         29.6721         16.9337 
       0.767043         29.0437         16.6213 
       0.773185         28.6702         16.3175 
       0.779291         28.3156         16.0231 
       0.785407         27.9599         15.7355 
       0.791564         27.8636         15.4532 
       0.797719         27.2179         15.1779 
       0.803834         27.0851          14.911 
       0.809972         26.6372         14.6496 
       0.816124         26.3476         14.3939 
       0.822261         25.9933          14.145 
       0.828378         25.8095         13.9027 
       0.834502         25.5018          13.666 
       0.840667         25.2292         13.4332 
       0.846816         24.7928         13.2066 
       0.852925         24.6233         12.9866 
       0.859047         24.4496         12.7713 
       0.865192         24.0515         12.5601 
       0.871341         23.7651         12.3536 
       0.877463         23.4931         12.1528 
       0.883569         23.3656         11.9569 
       0.889708         23.0363         11.7643 
       0.895864         22.7561         11.5755 
       0.902008         22.5413         11.3913 
       0.908149         22.2438         11.2112 
       0.914301         22.0637         11.0347 
       0.920448         21.8471         10.8622 
       0.926574         21.6012          10.694 
       0.932687         21.3389         10.5297 
       0.938823          21.048         10.3683 
       0.944975         20.8967         10.2099 
       0.951105          20.732         10.0554 
       0.957225         20.5373         9.90434 
       0.963368         20.2804         9.75591 
       0.969511         20.0917         9.61051 
       0.975621         19.9382         9.46887 
       0.981748         19.6829         9.32973 
       0.987916           19.55         9.19252 
        0.99406         19.2867         9.05859 
        1.00019         19.1641          8.9276 
        1.00632         19.0222         8.79932 
        1.01246         18.7943         8.67337 
        1.01859         18.6253          8.5501 
        1.02471         18.4529         8.42938 
        1.03085         18.3391         8.31058 
        1.03698         18.2112         8.19432 
        1.04314          17.986         8.07979 
        1.04929         17.7557         7.96773 
        1.05541         17.6967         7.85824 
        1.06154           17.54         7.75055 
        1.06769          17.306         7.64471 
        1.07382         17.1869         7.54121 
        1.07993         17.0455         7.43986 
        1.08607            16.9         7.33995 
        1.09222         16.7496         7.24179 
        1.09836         16.5783         7.14554 
        1.10449         16.5111         7.05115 
        1.11063         16.3642         6.95837 
        1.11677         16.2914         6.86729 
         1.1229         16.1037         6.77801 
        1.12903         15.9479         6.69023 
        1.13518         15.8754         6.60394 
        1.14131         15.7428         6.51923 
        1.14745         15.5516         6.43605 
        1.15359         15.3898         6.35431 
        1.15973         15.3288         6.27396 
        1.16584         15.1759         6.19536 
        1.17197         15.0163         6.11799 
        1.17811          14.946         6.04171 
        1.18424         14.7936         5.96696 
        1.19038         14.7491         5.89325 
        1.19652         14.5642         5.82082 
        1.20267         14.5214         5.74961 
        1.20881          14.354          5.6796 
        1.21495         14.2854         5.61087 
        1.22108         14.2036          5.5433 
         1.2272         14.0722         5.47699 
        1.23334         13.9991         5.41162 
        1.23949         13.8714         5.34716 
        1.24562         13.7288         5.28392 
        1.25174          13.692         5.22181 
        1.25789         13.5982          5.1605 
        1.26402         13.4886         5.10029 
        1.27014         13.4132         5.04119 
        1.27628         13.2781         4.98284 
        1.28244         13.2617         4.92531 
        1.28858         13.1066         4.86876 
        1.29471         12.9895         4.81322 
        1.30084         12.9021          4.7586 
        1.30697         12.8305         4.70475 
        1.31312         12.7487         4.65165 
        1.31925         12.6709         4.59954 
        1.32537         12.5504         4.54828 
        1.33151         12.4651         4.49762 
        1.33765         12.4351         4.44776 
        1.34378         12.3513         4.39875 
        1.34992          12.245         4.35045 
        1.35606         12.1287         4.30277 
         1.3622          12.067          4.2559 
        1.36833          12.027         4.20983 
        1.37445          11.933         4.16447 
        1.38059         11.8458         4.11963 
        1.38675         11.7957         4.07535 
        1.39288          11.687          4.0319 
        1.39901         11.6018          3.9891 
        1.40515         11.5573         3.94683 
         1.4113         11.4793         3.90519 
        1.41742         11.4169          3.8643 
        1.42355         11.3234         3.82393 
         1.4297         11.2547         3.78401 
        1.43585         11.1895         3.74467 
        1.44198          11.163         3.70605 
        1.44809         11.0787         3.66804 
        1.45423         10.9992         3.63042 
        1.46036         10.9276          3.5934 
        1.46649         10.8619         3.55688 
        1.47263         10.8025         3.52084 
        1.47877         10.7168         3.48531 
        1.48491          10.679         3.45022 
        1.49104         10.6098         3.41568 
        1.49718         10.5644         3.38159 
        1.50333         10.5111         3.34791 
        1.50947          10.434         3.31476 
         1.5156         10.3894          3.2821 
        1.52172         10.3028         3.24989 
        1.52787         10.2987         3.21804 
          1.534         10.2104         3.18666 
        1.54013         10.1628         3.15572 
        1.54627         10.0785         3.12515 
        1.55241         10.0049         3.09497 
        1.55855         9.97372         3.06523 
        1.56467         9.93314         3.03597 
         1.5708         9.87841           3.007 
        1.57695         9.82328         2.97837 
        1.58308          9.7603         2.95018 
        1.58922         9.70884         2.92233 
        1.59535         9.66373         2.89485 
         1.6015         9.57575         2.86769 
        1.60764         9.53933         2.84089 
        1.61376         9.50394          2.8145 
        1.61989         9.42785         2.78843 
        1.62604         9.40378         2.76263 
        1.63218         9.35032         2.73717 
        1.63831         9.29012         2.71209 
        1.64444         9.23601         2.68731 
        1.65059         9.18852         2.66279 
        1.65673         9.15104          2.6386 
        1.66285         9.08255         2.61477 
        1.66898         9.06369         2.59124 
        1.67512         9.03844         2.56794 
        1.68127         8.96132         2.54491 
         1.6874         8.94493         2.52221 
        1.69353         8.84436         2.49981 
        1.69967         8.82081         2.47762 
        1.70581         8.78279         2.45571 
        1.71193         8.72738         2.43414 
        1.71806           8.688         2.41279 
        1.72421         8.64588         2.39166 
        1.73035         8.61709          2.3708 
        1.73649          8.5767         2.35019 
        1.74262         8.51602         2.32984 
        1.74876         8.48712         2.30973 
        1.75489         8.45157         2.28988 
        1.76101          8.3763         2.27028 
        1.76715         8.37776         2.25088 
        1.77329         8.31317         2.23169 
        1.77943         8.26879         2.21271 
        1.78557         8.26453         2.19397 
        1.79171         8.19966         2.17545 
        1.79785         8.15569         2.15714 
        1.80399         8.12292         2.13905 
        1.81012         8.07906         2.12118 
        1.81625         8.04608         2.10353 
        1.82239         8.00151         2.08605 
        1.82853         7.95788         2.06878 
        1.83466         7.91345         2.05172 
        1.84078         7.87933         2.03487 
        1.84692         7.87567         2.01818 
        1.85306           7.831         2.00166 
         1.8592         7.79709         1.98535 
        1.86533         7.74101         1.96923 
        1.87147         7.71662         1.95327 
        1.87761         7.68918         1.93748 
        1.88375         7.65625         1.92188 
        1.88988         7.60508         1.90647 
        1.89601         7.57781         1.89122 
        1.90215         7.53662         1.87613 
        1.90829         7.50031         1.86121 
        1.91442         7.47449         1.84644 
        1.92056         7.45224         1.83186 
         1.9267         7.42529         1.81741 
        1.93284         7.39573         1.80311 
        1.93897         7.33571         1.78899 
        1.94509         7.30887         1.77505 
        1.95123         7.28059         1.76123 
        1.95737         7.25457         1.74754 
        1.96349         7.20643         1.73403 
        1.96964         7.18694         1.72062 
        1.97578         7.16168         1.70735 
        1.98192         7.14492         1.69425 
        1.98805         7.08555         1.68128 
        1.99419          7.0731         1.66845 
        2.00033          7.0326         1.65575 
        2.00647         6.99981         1.64318 
         2.0126         6.97554         1.63076 
        2.01874         6.94352         1.61845 
        2.02488         6.91569         1.60626 
        2.03101         6.90638         1.59421 
        2.03714         6.85357          1.5823 
        2.04328         6.81906          1.5705 
        2.04941         6.79262         1.55883 
        2.05554         6.77724         1.54728 
        2.06167         6.75484         1.53583 
        2.06781         6.73218          1.5245 
        2.07396         6.69444         1.51327 
        2.08009         6.64663         1.50217 
        2.08622         6.64169         1.49119 
        2.09237         6.62207          1.4803 
        2.09851         6.57775         1.46952 
        2.10464         6.56347         1.45886 
        2.11077         6.51535         1.44832 
        2.11691         6.50547         1.43787 
        2.12305         6.47756         1.42751 
        2.12918         6.43343         1.41728 
        2.13531         6.42795         1.40715 
        2.14145         6.39299          1.3971 
         2.1476         6.37792         1.38713 
        2.15372         6.35442         1.37731 
        2.15985          6.3155         1.36757 
        2.16599         6.30832          1.3579 
        2.17213         6.29539         1.34833 
        2.17827         6.25984         1.33886 
         2.1844         6.24055         1.32949 
        2.19054         6.20888          1.3202 
        2.19666         6.18626         1.31102 
         2.2028         6.16355         1.30191 
        2.20893         6.14348         1.29289 
        2.21508         6.11045         1.28394 
        2.22122         6.08242         1.27507 
        2.22736         6.05959         1.26631 
        2.23349         6.03553         1.25762 
        2.23962         6.01848         1.24902 
        2.24577         6.00832         1.24049 
         2.2519         5.98543         1.23205 
        2.25802         5.94405          1.2237 
        2.26417         5.93067          1.2154 
        2.27031         5.91235         1.20718 
        2.27644         5.89632         1.19905 
        2.28257         5.84892           1.191 
        2.28872         5.83959         1.18301 
        2.29486         5.82346         1.17509 
        2.30099          5.7994         1.16726 
        2.30712         5.76365          1.1595 
        2.31326         5.75334          1.1518 
         2.3194         5.72557         1.14417 
        2.32553         5.71197         1.13662 
        2.33166         5.68105         1.12914 
         2.3378         5.67157         1.12172 
        2.34394         5.64217         1.11437 
        2.35007         5.62986         1.10709 
        2.35619         5.61235         1.09988 
        2.36233         5.58208         1.09272 
        2.36848         5.56203         1.08561 
        2.37462         5.54468         1.07858 
        2.38075         5.51847         1.07162 
        2.38689         5.50857         1.06471 
        2.39303         5.48694         1.05786 
        2.39916         5.47425         1.05109 
        2.40529         5.45534         1.04437 
        2.41143         5.43603          1.0377 
        2.41757         5.40464         1.03109 
         2.4237         5.38895         1.02455 
        2.42983         5.37438         1.01807 
        2.43598         5.35359         1.01162 
        2.44211         5.33074         1.00524 
        2.44823         5.31357        0.998935 
        2.45437         5.29525        0.992662 
        2.46052         5.28725        0.986438 
        2.46665         5.26804        0.980278 
        2.47279         5.23997        0.974173 
        2.47892         5.22118        0.968115 
        2.48507          5.2057        0.962104 
         2.4912         5.19147        0.956154 
