# k  (h/Mpc)    P(k)  (Mpc/h)^3    P_linear(k)  (Mpc/h)^3
     0.00783031            2581         2605.82 
       0.013688         2967.43          3010.2 
       0.019231         2841.49         2859.82 
      0.0249154         2472.34         2466.11 
      0.0312784         1974.44         1973.02 
      0.0375637         1566.55         1569.16 
      0.0433917         1313.03         1307.73 
      0.0492413         1143.65         1143.12 
      0.0555754         1044.71         1039.24 
      0.0619321         961.029         969.842 
       0.067871          903.65         904.923 
      0.0738098         824.603         824.191 
      0.0800417         726.172         722.948 
      0.0862327         620.108          618.37 
      0.0921407         531.808         529.209 
      0.0982031         464.205         458.183 
       0.104506         410.525         408.859 
       0.110769         382.809         380.515 
       0.116806         369.846         365.176 
       0.122832         354.849         353.361 
       0.129052         340.203          337.78 
       0.135211         319.753         315.491 
       0.141259         290.534         287.739 
       0.147318           259.6         257.768 
       0.153489         232.985         229.482 
       0.159709         211.974         206.605 
       0.165845         193.513         190.762 
       0.171974         186.734         180.843 
       0.178125         179.827         174.767 
       0.184229         173.197         170.064 
        0.19034         168.767         164.485 
       0.196428         161.057          156.83 
       0.202534         149.103         147.028 
       0.208729          140.47         135.899 
       0.214876         130.848         125.084 
       0.220989         119.941         115.752 
       0.227147         114.468         108.423 
        0.23329         109.265         103.178 
       0.239377          105.94         99.5227 
       0.245482         102.096          96.636 
       0.251667         98.1983         93.7277 
       0.257832         96.1559         90.3098 
       0.263955         90.7601           86.23 
       0.270079         86.1599         81.6397 
        0.27624         81.3055         76.9153 
       0.282372         77.3703         72.5209 
        0.28843         74.9451         68.7857 
       0.294538         71.4161         65.7288 
       0.300721         68.2948          63.282 
        0.30691         66.9161         61.2695 
       0.313033         64.4697         59.4485 
       0.319153         63.2395         57.5806 
       0.325316         60.4053         55.5304 
        0.33145         58.0345         53.3176 
       0.337538         55.8471         51.0383 
       0.343633         53.9096          48.801 
       0.349808         51.7156         46.7084 
       0.355968         49.8486         44.8595 
       0.362074         48.7431         43.2847 
       0.368217         47.1901         41.9049 
       0.374374         46.0646         40.6565 
       0.380519         44.2371         39.4645 
       0.386598         42.9154         38.2724 
       0.392688         41.4918         37.0482 
        0.39888         40.5911         35.7739 
       0.405048         39.4398         34.5091 
       0.411186         38.1912         33.2998 
       0.417313         36.9913         32.1706 
       0.423458         35.8041         31.1334 
       0.429607         35.1203         30.1936 
       0.435692         34.4737          29.337 
       0.441815         33.1448         28.5238 
       0.447964         32.0738         27.7353 
       0.454126         31.5019         26.9548 
       0.460267         31.0564         26.1769 
       0.466387         30.1005         25.4104 
        0.47254         29.5617         24.6584 
       0.478662          28.549         23.9382 
       0.484765         27.8821         23.2562 
       0.490885         27.0183         22.6148 
       0.497035         26.5169         22.0105 
       0.503198         25.9738         21.4366 
       0.509342         25.1848         20.8874 
       0.515458         24.7977         20.3578 
       0.521598         24.1977         19.8395 
       0.527764         23.7956         19.3287 
       0.533884         23.1936         18.8317 
           0.54          22.719         18.3489 
       0.546137         22.0045         17.8823 
       0.552299         21.5837         17.4344 
       0.558452         21.0786         17.0068 
       0.564573         20.8205         16.5988 
       0.570708         20.2916         16.2055 
       0.576825          19.973         15.8274 
       0.582926         19.5729         15.4623 
       0.589034         19.1544          15.107 
       0.595184         18.9038         14.7581 
       0.601379         18.3727         14.4154 
       0.607522         18.0183          14.085 
       0.613639          17.703         13.7663 
       0.619772          17.368          13.458 
       0.625918         17.0179         13.1603 
       0.632068         16.8262         12.8729 
       0.638161         16.4612         12.5972 
         0.6443         16.1756         12.3277 
       0.650464         15.7604         12.0645 
       0.656582         15.6345         11.8103 
       0.662703         15.3985         11.5629 
       0.668861         14.9876          11.321 
       0.675024          14.749         11.0858 
       0.681124         14.6916         10.8599 
       0.687237         14.3617         10.6401 
       0.693381         14.0212         10.4255 
       0.699536          13.928         10.2166 
       0.705665         13.6394         10.0144 
       0.711789         13.3939          9.8179 
       0.717957         13.1022         9.62524 
        0.72409         12.9697         9.43879 
       0.730186         12.8892         9.25838 
       0.736317         12.5854         9.08171 
       0.742472         12.4346         8.90902 
       0.748622         12.2222         8.74103 
        0.75476         11.9015          8.5778 
       0.760888         11.8468         8.41903 
       0.767043         11.6118         8.26371 
       0.773185         11.4618         8.11266 
       0.779291         11.3522         7.96627 
       0.785407          11.152          7.8233 
       0.791564         11.0331         7.68293 
       0.797719         10.7822         7.54606 
       0.803834         10.7304         7.41339 
       0.809972         10.5058         7.28342 
       0.816124         10.3827         7.15629 
       0.822261         10.2524         7.03254 
       0.828378         10.1247         6.91209 
       0.834502         10.0024         6.79438 
       0.840667         9.88166         6.67866 
       0.846816         9.65772         6.56598 
       0.852925         9.61422         6.45663 
       0.859047          9.4709         6.34956 
       0.865192         9.33374         6.24458 
       0.871341         9.21174         6.14192 
       0.877463         9.08479         6.04205 
       0.883569          9.0147         5.94466 
       0.889708         8.85803         5.84893 
       0.895864         8.74271         5.75507 
       0.902008         8.63715         5.66347 
       0.908149         8.50511         5.57393 
       0.914301         8.43468         5.48618 
       0.920448         8.32388         5.40041 
       0.926574          8.2654         5.31677 
       0.932687         8.12205          5.2351 
       0.938823         8.00205         5.15485 
       0.944975         7.95798          5.0761 
       0.951105         7.83814         4.99929 
       0.957225         7.78375         4.92419 
       0.963368          7.6577          4.8504 
       0.969511         7.57141         4.77811 
       0.975621         7.49165         4.70769 
       0.981748         7.38545         4.63851 
       0.987916         7.32193         4.57029 
        0.99406         7.24013         4.50371 
        1.00019         7.17478         4.43858 
        1.00632         7.11391          4.3748 
        1.01246         7.01094         4.31219 
        1.01859          6.9358          4.2509 
        1.02471         6.84123         4.19088 
        1.03085         6.80386         4.13181 
        1.03698         6.73158         4.07401 
        1.04314         6.64414         4.01707 
        1.04929         6.55468         3.96136 
        1.05541         6.50229         3.90692 
        1.06154         6.43845         3.85338 
        1.06769         6.39711         3.80076 
        1.07382         6.28905          3.7493 
        1.07993         6.23167         3.69891 
        1.08607         6.19074         3.64924 
        1.09222         6.10816         3.60044 
        1.09836         6.07854         3.55259 
        1.10449         5.97855         3.50566 
        1.11063         5.95413         3.45953 
        1.11677         5.89919         3.41425 
         1.1229         5.83898         3.36986 
        1.12903         5.78518         3.32622 
        1.13518         5.70865         3.28332 
        1.14131         5.65866          3.2412 
        1.14745         5.58072         3.19984 
        1.15359          5.5272         3.15921 
        1.15973         5.48151         3.11926 
        1.16584         5.43644         3.08018 
        1.17197         5.37723         3.04171 
        1.17811         5.33127         3.00379 
        1.18424         5.28885         2.96662 
        1.19038         5.25284         2.92998 
        1.19652         5.20131         2.89397 
        1.20267         5.16071         2.85856 
        1.20881         5.09347         2.82376 
        1.21495         5.05699         2.78959 
        1.22108         5.00828         2.75599 
         1.2272         4.95966         2.72302 
        1.23334         4.94176         2.69052 
        1.23949         4.87944         2.65847 
        1.24562          4.8444         2.62704 
        1.25174         4.81382         2.59616 
        1.25789         4.73993         2.56568 
        1.26402           4.718         2.53574 
        1.27014         4.68818         2.50635 
        1.27628         4.62965         2.47735 
        1.28244         4.61081         2.44874 
        1.28858         4.57037         2.42063 
        1.29471         4.51182         2.39301 
        1.30084         4.47436         2.36586 
        1.30697         4.46031         2.33908 
        1.31312         4.41119         2.31269 
        1.31925         4.37656         2.28678 
        1.32537         4.34473         2.26129 
        1.33151          4.3034          2.2361 
        1.33765         4.26883         2.21132 
        1.34378         4.25798         2.18695 
        1.34992         4.21312         2.16294 
        1.35606         4.17851         2.13923 
         1.3622          4.1395         2.11593 
        1.36833         4.11165         2.09302 
        1.37445         4.07262         2.07047 
        1.38059         4.03545         2.04818 
        1.38675         4.01035         2.02617 
        1.39288          3.9872         2.00456 
        1.39901         3.94316         1.98328 
        1.40515         3.92131         1.96227 
         1.4113         3.88959         1.94156 
        1.41742         3.86875         1.92124 
        1.42355         3.83026         1.90116 
         1.4297         3.80133         1.88132 
        1.43585         3.78431         1.86176 
        1.44198         3.74941         1.84256 
        1.44809         3.72365         1.82366 
        1.45423         3.69326         1.80496 
        1.46036         3.67235         1.78655 
        1.46649         3.64401         1.76839 
        1.47263         3.62228         1.75047 
        1.47877         3.59405         1.73281 
        1.48491         3.57353         1.71536 
        1.49104         3.54445         1.69819 
        1.49718         3.52566         1.68124 
        1.50333         3.49228          1.6645 
        1.50947         3.46568         1.64802 
         1.5156         3.44974         1.63178 
        1.52172         3.42139         1.61576 
        1.52787         3.40447         1.59993 
          1.534          3.3767         1.58433 
        1.54013         3.36234         1.56895 
        1.54627         3.32938         1.55375 
        1.55241         3.30435         1.53874 
        1.55855         3.29243         1.52396 
        1.56467         3.27511         1.50941 
         1.5708         3.24164         1.49501 
        1.57695         3.21473         1.48077 
        1.58308         3.19309         1.46676 
        1.58922         3.18592         1.45291 
        1.59535         3.16407         1.43925 
         1.6015          3.1312         1.42574 
        1.60764         3.12018         1.41242 
        1.61376         3.09646          1.3993 
        1.61989         3.07014         1.38634 
        1.62604         3.05721         1.37351 
        1.63218         3.04114         1.36085 
        1.63831         3.02315         1.34838 
        1.64444         2.99768         1.33607 
        1.65059         2.98575         1.32387 
        1.65673         2.96397         1.31185 
        1.66285         2.94586             1.3 
        1.66898         2.92748          1.2883 
        1.67512         2.90901         1.27672 
        1.68127         2.88655         1.26527 
         1.6874          2.8721         1.25398 
        1.69353         2.85042         1.24284 
        1.69967         2.83515         1.23181 
        1.70581         2.81753         1.22092 
        1.71193         2.79877          1.2102 
        1.71806         2.78478         1.19958 
        1.72421         2.76904         1.18907 
        1.73035         2.75149          1.1787 
        1.73649         2.73542         1.16846 
        1.74262         2.71898         1.15834 
        1.74876         2.70789         1.14834 
        1.75489         2.68647         1.13847 
        1.76101         2.66731         1.12873 
        1.76715         2.66405         1.11908 
        1.77329         2.64267         1.10954 
        1.77943         2.62128          1.1001 
        1.78557          2.6143         1.09079 
        1.79171         2.59588         1.08158 
        1.79785         2.58731         1.07248 
        1.80399         2.56402         1.06348 
        1.81012         2.55569          1.0546 
        1.81625         2.53541         1.04582 
        1.82239         2.52744         1.03713 
        1.82853         2.51012         1.02855 
        1.83466         2.48818         1.02007 
        1.84078         2.47611         1.01169 
        1.84692         2.46291         1.00339 
        1.85306         2.44999        0.995178 
         1.8592         2.43986        0.987068 
        1.86533         2.42827        0.979054 
        1.87147         2.41776        0.971119 
        1.87761         2.40329        0.963268 
        1.88375         2.38666        0.955513 
        1.88988         2.37481        0.947852 
        1.89601         2.35792        0.940271 
        1.90215          2.3459        0.932766 
        1.90829         2.33998        0.925347 
        1.91442         2.32385        0.918007 
        1.92056         2.31721        0.910754 
         1.9267             2.3        0.903571 
        1.93284         2.29173        0.896462 
        1.93897         2.27443        0.889442 
        1.94509         2.25539        0.882512 
        1.95123         2.25406        0.875638 
        1.95737         2.24313        0.868833 
        1.96349          2.2282        0.862117 
        1.96964         2.21743        0.855452 
        1.97578         2.20585        0.848855 
        1.98192         2.19024         0.84234 
        1.98805         2.18291        0.835893 
        1.99419         2.17128        0.829513 
        2.00033         2.15454        0.823197 
        2.00647         2.15141        0.816947 
         2.0126         2.14064        0.810773 
        2.01874         2.12846        0.804653 
        2.02488         2.12184        0.798591 
        2.03101         2.10357        0.792603 
        2.03714         2.09619        0.786681 
        2.04328         2.08752        0.780813 
        2.04941         2.07502         0.77501 
        2.05554         2.06694         0.76927 
        2.06167          2.0578         0.76358 
        2.06781         2.04624        0.757946 
        2.07396         2.03554        0.752362 
        2.08009         2.02942        0.746842 
        2.08622         2.02086        0.741385 
        2.09237         2.01245        0.735971 
        2.09851         1.99674        0.730611 
        2.10464         1.98749        0.725312 
        2.11077         1.98305        0.720072 
        2.11691         1.96917        0.714872 
        2.12305         1.95895        0.709724 
        2.12918         1.95151        0.704638 
        2.13531         1.94435        0.699601 
        2.14145         1.93375        0.694602 
         2.1476         1.91988        0.689646 
        2.15372         1.91185        0.684763 
        2.15985          1.9062        0.679923 
        2.16599         1.89841        0.675115 
        2.17213         1.89237        0.670359 
        2.17827         1.87614         0.66565 
         2.1844         1.87106         0.66099 
        2.19054         1.86219        0.656372 
        2.19666         1.85655        0.651806 
         2.2028         1.84057        0.647279 
        2.20893         1.84234        0.642792 
        2.21508         1.82811        0.638343 
        2.22122         1.81705        0.633935 
        2.22736         1.81056        0.629577 
        2.23349         1.80268        0.625261 
        2.23962         1.79791        0.620983 
        2.24577         1.78607        0.616741 
         2.2519         1.78285        0.612545 
        2.25802           1.769        0.608394 
        2.26417         1.76368         0.60427 
        2.27031         1.75645         0.60018 
        2.27644         1.74707         0.59614 
        2.28257         1.74117        0.592138 
        2.28872         1.73303        0.588164 
        2.29486         1.72369        0.584228 
        2.30099         1.71709        0.580335 
        2.30712         1.71136        0.576477 
        2.31326          1.7057        0.572646 
         2.3194         1.69517        0.568853 
        2.32553         1.68965          0.5651 
        2.33166         1.68319        0.561383 
         2.3378          1.6776        0.557694 
        2.34394         1.66514        0.554037 
        2.35007          1.6594        0.550417 
        2.35619          1.6556        0.546835 
        2.36233         1.64673        0.543276 
        2.36848         1.64017        0.539741 
        2.37462         1.63422        0.536244 
        2.38075         1.62817        0.532783 
        2.38689         1.62079        0.529348 
        2.39303         1.61395        0.525945 
        2.39916         1.60849        0.522575 
        2.40529         1.59931        0.519234 
        2.41143         1.59473         0.51592 
        2.41757         1.58965        0.512634 
         2.4237         1.58015        0.509382 
        2.42983          1.5762        0.506159 
        2.43598         1.57002        0.502955 
        2.44211         1.56109        0.499783 
        2.44823         1.55682        0.496647 
        2.45437         1.54813        0.493528 
        2.46052         1.54376        0.490434 
        2.46665         1.53745        0.487371 
        2.47279         1.53046        0.484336 
        2.47892         1.52731        0.481324 
        2.48507         1.51916        0.478335 
         2.4912         1.51529        0.475377 
