# k  (h/Mpc)    Pcb(k)  (Mpc/h)^3    Pcb_linear(k)  (Mpc/h)^3
     0.00783031         4434.15         4464.62 
       0.013688         5179.49         5261.52 
       0.019231         5099.81         5138.35 
      0.0249154         4619.04         4605.26 
      0.0312784         3878.41         3884.59 
      0.0375637          3242.4          3259.9 
      0.0433917         2832.19         2827.28 
      0.0492413         2518.26         2525.82 
      0.0555754         2307.02         2300.26 
      0.0619321         2087.65         2119.23 
       0.067871         1941.09          1949.9 
      0.0738098         1763.22         1764.35 
      0.0800417          1565.4          1558.8 
      0.0862327         1365.96         1363.66 
      0.0921407         1209.65         1204.23 
      0.0982031         1091.87         1077.55 
       0.104506         986.068         984.429 
       0.110769         924.783         920.823 
       0.116806         886.593         873.525 
       0.122832         832.509         828.067 
       0.129052         783.516         775.267 
       0.135211         731.937         715.716 
       0.141259         666.105         654.094 
       0.147318         603.341         595.271 
       0.153489           556.7         543.658 
       0.159709         522.162         502.737 
       0.165845         482.276         472.713 
       0.171974         470.006         450.127 
       0.178125         449.998         431.057 
       0.184229         424.185         412.284 
        0.19034         408.836         391.631 
       0.196428         387.898         368.953 
       0.202534         357.943         345.261 
       0.208729         342.944         322.091 
       0.214876         325.131         301.578 
       0.220989         302.212         284.454 
       0.227147         293.862          270.45 
        0.23329         282.484         258.959 
       0.239377         274.674         248.936 
       0.245482         261.528         239.227 
       0.251667         249.603         229.092 
       0.257832         244.293         218.525 
       0.263955           229.4         207.833 
       0.270079         219.067         197.433 
        0.27624         208.615         187.738 
       0.282372         201.389         179.145 
        0.28843         198.365         171.729 
       0.294538         189.173         165.149 
       0.300721         181.407         159.114 
        0.30691         178.006         153.376 
       0.313033         170.283         147.785 
       0.319153         166.784         142.183 
       0.325316         160.238         136.574 
        0.33145         154.713         131.133 
       0.337538         149.223         126.008 
       0.343633         144.487         121.243 
       0.349808         139.705         116.819 
       0.355968         135.855         112.777 
       0.362074         132.892         109.053 
       0.368217         129.576         105.507 
       0.374374         126.268          102.07 
       0.380519          120.87         98.7207 
       0.386598         117.952         95.4788 
       0.392688         114.279          92.321 
        0.39888         112.086         89.2393 
       0.405048         109.323         86.3252 
       0.411186         106.967         83.5908 
       0.417313         104.087         81.0246 
       0.423458          101.28         78.5924 
       0.429607         99.1756         76.2731 
       0.435692         97.5533         74.0695 
       0.441815          94.286         71.9243 
       0.447964         91.3427         69.8329 
       0.454126         89.6383         67.8042 
       0.460267         88.7725         65.8545 
       0.466387         86.4374         63.9878 
        0.47254         85.2908         62.1911 
       0.478662         82.2769         60.4851 
       0.484765         80.8747          58.859 
       0.490885         78.7806         57.2946 
       0.497035         78.0156         55.7811 
       0.503198         76.1874         54.3182 
       0.509342         74.1545         52.9078 
       0.515458         73.1115         51.5483 
       0.521598         71.2814         50.2277 
       0.527764         70.3909         48.9474 
       0.533884         69.5458         47.7229 
           0.54         67.7296         46.5443 
       0.546137         65.9254          45.404 
       0.552299          64.789         44.2996 
       0.558452         63.5071         43.2354 
       0.564573         63.1415         42.2119 
       0.570708         61.2771          41.219 
       0.576825         60.6283         40.2596 
       0.582926         59.7945         39.3321 
       0.589034         58.6222         38.4321 
       0.595184         57.8254         37.5546 
       0.601379         56.3559         36.6995 
       0.607522         55.3791         35.8788 
       0.613639         54.8215         35.0874 
       0.619772         53.7278         34.3184 
       0.625918         52.9931         33.5712 
       0.632068         52.3129         32.8458 
       0.638161         51.2932         32.1482 
         0.6443         50.7895          31.466 
       0.650464         49.5771         30.8012 
       0.656582         49.3404         30.1604 
       0.662703         48.6407         29.5377 
       0.668861         47.4619         28.9293 
       0.675024         47.1731         28.3377 
       0.681124         46.6046         27.7687 
       0.687237         45.6587         27.2143 
       0.693381         45.0878         26.6727 
       0.699536         44.6608          26.145 
       0.705665         43.9165         25.6339 
       0.711789         43.2304         25.1371 
       0.717957         42.5387         24.6501 
        0.72409         42.0926         24.1789 
       0.730186         41.8444         23.7228 
       0.736317         41.0453         23.2761 
       0.742472         40.5488         22.8394 
       0.748622         39.9381         22.4143 
        0.75476          39.239          22.001 
       0.760888         39.1722         21.5988 
       0.767043         38.3863         21.2051 
       0.773185         37.9483         20.8221 
       0.779291         37.4716         20.4507 
       0.785407         36.9657          20.088 
       0.791564         36.9102         19.7318 
       0.797719         36.1522         19.3845 
       0.803834         35.9165         19.0478 
       0.809972         35.3802         18.7179 
       0.816124         35.0087         18.3951 
       0.822261         34.5604         18.0809 
       0.828378         34.3499          17.775 
       0.834502         33.9258          17.476 
       0.840667         33.6083         17.1819 
       0.846816         33.0307         16.8955 
       0.852925         32.8366         16.6174 
       0.859047         32.6445          16.345 
       0.865192         32.1026         16.0779 
       0.871341         31.7239         15.8166 
       0.877463         31.4093         15.5623 
       0.883569         31.2709         15.3142 
       0.889708         30.8584         15.0704 
       0.895864         30.5061         14.8312 
       0.902008         30.1944         14.5978 
       0.908149         29.8646         14.3695 
       0.914301         29.6412         14.1458 
       0.920448         29.3579         13.9271 
       0.926574         28.9728         13.7137 
       0.932687         28.7028         13.5054 
       0.938823         28.3366         13.3006 
       0.944975         28.1173         13.0996 
       0.951105         27.8966         12.9035 
       0.957225         27.6816         12.7118 
       0.963368         27.3419         12.5233 
       0.969511         27.1071         12.3387 
       0.975621         26.9007         12.1588 
       0.981748         26.5781          11.982 
       0.987916         26.4064         11.8077 
        0.99406         26.0749         11.6374 
        1.00019         25.9162         11.4709 
        1.00632         25.7088         11.3078 
        1.01246         25.4577         11.1477 
        1.01859         25.2166         10.9909 
        1.02471         24.9878         10.8373 
        1.03085         24.8648         10.6862 
        1.03698         24.6778         10.5382 
        1.04314          24.419         10.3925 
        1.04929         24.1255         10.2498 
        1.05541         24.0508         10.1104 
        1.06154         23.8655         9.97325 
        1.06769         23.5279         9.83844 
        1.07382         23.3966         9.70657 
        1.07993         23.1951         9.57743 
        1.08607         23.0221         9.45011 
        1.09222         22.8426         9.32498 
        1.09836         22.6107         9.20227 
        1.10449         22.5257         9.08191 
        1.11063         22.3175         8.96359 
        1.11677         22.2539         8.84741 
         1.1229         22.0061         8.73351 
        1.12903         21.8097         8.62151 
        1.13518           21.72          8.5114 
        1.14131         21.5351         8.40327 
        1.14745         21.2865         8.29708 
        1.15359         21.0906         8.19272 
        1.15973         20.9925         8.09011 
        1.16584         20.8161         7.98973 
        1.17197         20.5866         7.89091 
        1.17811         20.5043         7.79346 
        1.18424         20.2833         7.69795 
        1.19038         20.2316         7.60376 
        1.19652         20.0149         7.51119 
        1.20267         19.9414         7.42017 
        1.20881         19.7448         7.33067 
        1.21495          19.647         7.24279 
        1.22108         19.5659         7.15637 
         1.2272         19.3955         7.07157 
        1.23334         19.2783         6.98795 
        1.23949         19.1138         6.90548 
        1.24562         18.9209         6.82458 
        1.25174         18.8683         6.74509 
        1.25789         18.7627         6.66663 
        1.26402         18.6309         6.58956 
        1.27014         18.5221          6.5139 
        1.27628         18.3331          6.4392 
        1.28244         18.3241         6.36553 
        1.28858         18.1208         6.29312 
        1.29471         17.9664         6.22199 
        1.30084         17.8517         6.15202 
        1.30697         17.7683         6.08302 
        1.31312         17.6365         6.01499 
        1.31925         17.5258         5.94821 
        1.32537         17.3825          5.8825 
        1.33151         17.2699         5.81756 
        1.33765         17.2388         5.75364 
        1.34378         17.1238          5.6908 
        1.34992         16.9995         5.62887 
        1.35606         16.8421         5.56772 
         1.3622         16.7493         5.50759 
        1.36833         16.7021         5.44849 
        1.37445         16.5763         5.39029 
        1.38059         16.4738         5.33276 
        1.38675         16.3761         5.27594 
        1.39288         16.2487         5.22017 
        1.39901         16.1513         5.16524 
        1.40515         16.0848         5.11097 
         1.4113         15.9875         5.05751 
        1.41742         15.9106         5.00501 
        1.42355         15.7767         4.95317 
         1.4297         15.6841          4.9019 
        1.43585         15.5998         4.85138 
        1.44198         15.5622         4.80176 
        1.44809         15.4462         4.75293 
        1.45423          15.347          4.7046 
        1.46036         15.2569         4.65703 
        1.46649         15.1675         4.61011 
        1.47263         15.0904         4.56379 
        1.47877         14.9991         4.51813 
        1.48491         14.9283         4.47302 
        1.49104         14.8338         4.42862 
        1.49718         14.7757         4.38479 
        1.50333         14.7036         4.34148 
        1.50947         14.6168         4.29885 
         1.5156          14.538         4.25685 
        1.52172         14.4353         4.21541 
        1.52787         14.4065         4.17444 
          1.534         14.3132         4.13406 
        1.54013         14.2489         4.09426 
        1.54627         14.1268         4.05491 
        1.55241          14.038         4.01607 
        1.55855         13.9879          3.9778 
        1.56467         13.9496         3.94013 
         1.5708         13.8662         3.90284 
        1.57695         13.7975         3.86598 
        1.58308          13.691         3.82968 
        1.58922         13.6335         3.79382 
        1.59535         13.5718         3.75843 
         1.6015         13.4609         3.72345 
        1.60764         13.4171         3.68893 
        1.61376         13.3704         3.65494 
        1.61989         13.2577         3.62135 
        1.62604         13.2268         3.58811 
        1.63218         13.1661          3.5553 
        1.63831         13.0662         3.52299 
        1.64444         13.0019         3.49106 
        1.65059         12.9433         3.45945 
        1.65673         12.8991         3.42827 
        1.66285         12.7974         3.39756 
        1.66898         12.7781         3.36721 
        1.67512         12.7389         3.33718 
        1.68127         12.6429         3.30748 
         1.6874         12.6092         3.27822 
        1.69353         12.4795         3.24932 
        1.69967          12.444         3.22071 
        1.70581         12.4016         3.19245 
        1.71193         12.3218         3.16463 
        1.71806         12.2779         3.13709 
        1.72421         12.2141         3.10982 
        1.73035         12.1613         3.08291 
        1.73649         12.1188         3.05632 
        1.74262         12.0296         3.03006 
        1.74876         11.9936         3.00409 
        1.75489         11.9475         2.97849 
        1.76101           11.85         2.95318 
        1.76715         11.8436         2.92814 
        1.77329         11.7594         2.90336 
        1.77943         11.7008         2.87885 
        1.78557          11.685         2.85466 
        1.79171         11.5956         2.83074 
        1.79785         11.5499          2.8071 
        1.80399         11.4872         2.78373 
        1.81012           11.45         2.76065 
        1.81625         11.3922         2.73785 
        1.82239         11.3356         2.71527 
        1.82853         11.2823         2.69296 
        1.83466          11.213         2.67092 
        1.84078         11.1806         2.64914 
        1.84692         11.1747         2.62758 
        1.85306         11.1062         2.60623 
         1.8592         11.0616         2.58515 
        1.86533         10.9763         2.56431 
        1.87147         10.9395         2.54368 
        1.87761         10.9048         2.52327 
        1.88375         10.8682          2.5031 
        1.88988         10.7823         2.48318 
        1.89601         10.7662         2.46346 
        1.90215         10.6947         2.44395 
        1.90829         10.6394         2.42465 
        1.91442         10.5954         2.40556 
        1.92056         10.5842         2.38669 
         1.9267         10.5407           2.368 
        1.93284         10.5164          2.3495 
        1.93897          10.433         2.33124 
        1.94509         10.3927         2.31321 
        1.95123          10.348         2.29532 
        1.95737         10.3125         2.27761 
        1.96349         10.2461         2.26013 
        1.96964          10.227         2.24279 
        1.97578         10.1909         2.22562 
        1.98192         10.1559         2.20866 
        1.98805         10.0803         2.19188 
        1.99419         10.0587         2.17527 
        2.00033         10.0143         2.15882 
        2.00647         9.96024         2.14255 
         2.0126         9.93316         2.12647 
        2.01874         9.88159         2.11053 
        2.02488         9.83048         2.09475 
        2.03101         9.82687         2.07915 
        2.03714         9.75969         2.06373 
        2.04328         9.71607         2.04844 
        2.04941         9.67289         2.03332 
        2.05554         9.65484         2.01837 
        2.06167          9.6225         2.00354 
        2.06781         9.58139         1.98886 
        2.07396         9.55124         1.97431 
        2.08009         9.47345         1.95993 
        2.08622         9.47149         1.94571 
        2.09237         9.43934          1.9316 
        2.09851         9.37395         1.91763 
        2.10464         9.35847         1.90382 
        2.11077         9.29245         1.89016 
        2.11691         9.27907          1.8766 
        2.12305         9.23562         1.86318 
        2.12918         9.17691         1.84992 
        2.13531         9.16388         1.83679 
        2.14145         9.11866         1.82375 
         2.1476         9.09049         1.81083 
        2.15372          9.0669          1.7981 
        2.15985         9.01622         1.78547 
        2.16599         8.99389         1.77293 
        2.17213         8.98186         1.76053 
        2.17827         8.92361         1.74824 
         2.1844         8.89547         1.73609 
        2.19054         8.86497         1.72404 
        2.19666         8.83466         1.71213 
         2.2028         8.80523         1.70032 
        2.20893         8.75555         1.68861 
        2.21508         8.73235           1.677 
        2.22122          8.6779          1.6655 
        2.22736         8.65623         1.65413 
        2.23349         8.62232         1.64286 
        2.23962         8.60117          1.6317 
        2.24577         8.58327         1.62063 
         2.2519         8.54947         1.60967 
        2.25802         8.48248         1.59884 
        2.26417         8.48312         1.58808 
        2.27031         8.45419          1.5774 
        2.27644         8.43053         1.56685 
        2.28257         8.35903          1.5564 
        2.28872         8.35007         1.54603 
        2.29486         8.32552         1.53575 
        2.30099         8.29317         1.52559 
        2.30712         8.23934         1.51551 
        2.31326         8.21803         1.50551 
         2.3194         8.18639          1.4956 
        2.32553         8.16758          1.4858 
        2.33166         8.12426         1.47609 
         2.3378          8.1095         1.46645 
        2.34394         8.07192          1.4569 
        2.35007         8.05484         1.44744 
        2.35619         8.02044         1.43808 
        2.36233         7.97497         1.42878 
        2.36848         7.95261         1.41955 
        2.37462         7.92662         1.41041 
        2.38075         7.89811         1.40137 
        2.38689         7.88365         1.39239 
        2.39303         7.84075          1.3835 
        2.39916         7.83061         1.37469 
        2.40529         7.80501         1.36596 
        2.41143         7.76439          1.3573 
        2.41757         7.72924         1.34871 
         2.4237         7.71393         1.34021 
        2.42983         7.68974         1.33178 
        2.43598          7.6585         1.32341 
        2.44211         7.62698         1.31512 
        2.44823         7.60405         1.30691 
        2.45437         7.57511         1.29876 
        2.46052         7.57027         1.29067 
        2.46665         7.53717         1.28266 
        2.47279         7.50107         1.27472 
        2.47892          7.4706         1.26685 
        2.48507         7.44937         1.25903 
         2.4912         7.43411          1.2513 
