# k  (h/Mpc)    P(k)  (Mpc/h)^3    P_linear(k)  (Mpc/h)^3
     0.00783031         7644.26         7702.67 
       0.013688         9420.73         9624.06 
       0.019231         9767.27         9884.36 
      0.0249154         9274.06         9267.14 
      0.0312784         8062.42         8119.96 
      0.0375637         6864.64         6950.66 
      0.0433917         6024.99          6042.2 
      0.0492413         5310.87         5358.94 
      0.0555754         4839.08         4846.85 
      0.0619321         4373.59         4489.57 
       0.067871         4157.77         4215.25 
      0.0738098         3901.91         3937.07 
      0.0800417         3587.26         3608.89 
      0.0862327         3216.84          3249.5 
      0.0921407         2885.74         2902.22 
      0.0982031         2595.14         2575.07 
       0.104506         2290.18         2293.65 
       0.110769         2095.85         2084.12 
       0.116806         1987.77         1942.59 
       0.122832         1866.37         1844.06 
       0.129052         1786.95         1765.13 
       0.135211         1731.66         1688.86 
       0.141259          1622.2         1602.14 
       0.147318          1503.5         1499.49 
       0.153489         1405.38         1383.59 
       0.159709         1320.69         1265.83 
       0.165845         1194.08          1159.8 
       0.171974         1148.11         1071.65 
       0.178125         1090.19         1003.67 
       0.184229         1013.74         954.373 
        0.19034         992.876         917.734 
       0.196428         963.361         887.095 
       0.202534          905.67         855.996 
       0.208729         889.232         819.869 
       0.214876         852.014         778.331 
       0.220989         794.741         733.067 
       0.227147         770.858           686.9 
        0.23329         735.996         643.924 
       0.239377         717.455         607.024 
       0.245482         678.592         576.792 
       0.251667         651.205         552.643 
       0.257832         643.682         533.342 
       0.263955         610.433         516.624 
       0.270079         590.612         500.223 
        0.27624         566.534         482.516 
       0.282372         553.603         463.175 
        0.28843          548.12         442.761 
       0.294538         519.326         421.842 
       0.300721         501.376         401.564 
        0.30691         492.112         383.153 
       0.313033         469.768         367.359 
       0.319153         461.498         353.925 
       0.325316          451.61         342.352 
        0.33145         440.941         332.027 
       0.337538         425.502         322.248 
       0.343633         412.868         312.338 
       0.349808          402.13         301.909 
       0.355968         393.808         291.124 
       0.362074         381.917         280.331 
       0.368217         377.786         269.757 
       0.374374         369.252          259.78 
       0.380519         354.135         250.708 
       0.386598         349.307         242.636 
       0.392688         340.804         235.364 
        0.39888         332.356         228.597 
       0.405048         326.129          222.21 
       0.411186         323.723         215.999 
       0.417313         317.907         209.805 
       0.423458         309.179         203.537 
       0.429607         301.484         197.291 
       0.435692         296.212         191.231 
       0.441815          290.73          185.36 
       0.447964         283.262         179.803 
       0.454126         279.167         174.622 
       0.460267          275.35         169.813 
       0.466387         269.962         165.334 
        0.47254         266.489         161.065 
       0.478662         259.083         156.963 
       0.484765         255.989         152.951 
       0.490885         252.513         148.991 
       0.497035         248.763         145.069 
       0.503198         246.465         141.211 
       0.509342         239.885         137.476 
       0.515458         236.863         133.908 
       0.521598         231.714         130.498 
       0.527764         229.059         127.239 
       0.533884          228.23         124.158 
           0.54         223.256          121.22 
       0.546137         218.325         118.382 
       0.552299         216.776         115.616 
       0.558452          213.03         112.915 
       0.564573         211.583         110.284 
       0.570708         206.964         107.711 
       0.576825         204.071         105.217 
       0.582926         201.951         102.805 
       0.589034         199.051         100.469 
       0.595184          197.49         98.2017 
       0.601379         193.623         96.0067 
       0.607522         190.046         93.9137 
       0.613639         188.727          91.901 
       0.619772         186.881         89.9437 
       0.625918         185.148         88.0331 
       0.632068         181.162         86.1672 
       0.638161         179.524          84.365 
         0.6443         178.391         82.5975 
       0.650464         175.067         80.8731 
       0.656582         173.959         79.2117 
       0.662703         172.296         77.5984 
       0.668861         168.903         76.0232 
       0.675024         168.823          74.493 
       0.681124         166.288         73.0232 
       0.687237          164.19         71.5926 
       0.693381         162.645         70.1953 
       0.699536         160.823         68.8334 
       0.705665         158.987          67.513 
       0.711789         157.137         66.2271 
       0.717957         155.392         64.9638 
        0.72409         154.033         63.7389 
       0.730186         153.929         62.5522 
       0.736317         151.312         61.3891 
       0.742472         149.289         60.2518 
       0.748622          147.07         59.1457 
        0.75476         147.581         58.0712 
       0.760888         145.893         57.0263 
       0.767043         143.429         56.0038 
       0.773185         142.028         55.0089 
       0.779291         140.341         54.0441 
       0.785407         139.331         53.1008 
       0.791564          138.36         52.1736 
       0.797719         136.481         51.2685 
       0.803834          136.35         50.3904 
       0.809972         135.275         49.5296 
       0.816124         133.298         48.6869 
       0.822261         132.056         47.8662 
       0.828378         131.853         47.0671 
       0.834502         129.826         46.2858 
       0.840667         129.314         45.5174 
       0.846816         128.006         44.7689 
       0.852925          126.67         44.0422 
       0.859047         125.691         43.3303 
       0.865192         124.805         42.6319 
       0.871341         123.438         41.9485 
       0.877463         122.517         41.2833 
       0.883569         122.353         40.6342 
       0.889708          121.21         39.9958 
       0.895864         120.074         39.3695 
       0.902008         118.913         38.7579 
       0.908149         117.421         38.1598 
       0.914301         117.424         37.5733 
       0.920448         116.911         36.9998 
       0.926574         114.788         36.4403 
       0.932687         114.688         35.8936 
       0.938823         113.794         35.3562 
       0.944975         112.594         34.8286 
       0.951105         111.634         34.3137 
       0.957225         111.449         33.8102 
       0.963368         110.197          33.315 
       0.969511         109.396         32.8299 
       0.975621         108.383          32.357 
       0.981748         107.591         31.8923 
       0.987916         106.944         31.4338 
        0.99406         106.512         30.9861 
        1.00019          105.34          30.548 
        1.00632         104.654         30.1188 
        1.01246         104.009         29.6973 
        1.01859         103.493         29.2845 
        1.02471          102.67         28.8801 
        1.03085         101.723          28.482 
        1.03698         101.064         28.0922 
        1.04314         100.413         27.7081 
        1.04929         100.027         27.3322 
        1.05541         99.2868         26.9647 
        1.06154         98.6296         26.6031 
        1.06769         97.8458         26.2476 
        1.07382         97.0667         25.8997 
        1.07993         96.6856          25.559 
        1.08607         95.8918          25.223 
        1.09222         95.5325         24.8928 
        1.09836         94.5825         24.5688 
        1.10449          94.079          24.251 
        1.11063         93.4889         23.9385 
        1.11677         92.8432         23.6317 
         1.1229         92.1513         23.3307 
        1.12903         91.8067         23.0348 
        1.13518         91.2734         22.7437 
        1.14131         90.6064         22.4579 
        1.14745         90.1047         22.1771 
        1.15359         89.0359         21.9011 
        1.15973         88.9017         21.6297 
        1.16584         88.3208         21.3641 
        1.17197         87.7722         21.1027 
        1.17811         87.1096         20.8448 
        1.18424         86.4723         20.5919 
        1.19038         86.3717         20.3426 
        1.19652         85.7156         20.0974 
        1.20267         85.1165         19.8564 
        1.20881         84.6152         19.6193 
        1.21495         84.1402         19.3865 
        1.22108         83.8018         19.1575 
         1.2272         82.9717         18.9328 
        1.23334         82.7927         18.7111 
        1.23949         82.2222         18.4925 
        1.24562         81.5557          18.278 
        1.25174         81.1222         18.0672 
        1.25789         80.9765         17.8591 
        1.26402         80.3588         17.6547 
        1.27014         79.9747         17.4539 
        1.27628         79.2431         17.2557 
        1.28244         79.1202         17.0602 
        1.28858         78.4958          16.868 
        1.29471         78.0439         16.6791 
        1.30084         77.4119         16.4934 
        1.30697         77.4217         16.3102 
        1.31312         76.7838         16.1295 
        1.31925         76.2958         15.9521 
        1.32537         75.9142         15.7776 
        1.33151         75.6779          15.605 
        1.33765         75.1135         15.4352 
        1.34378         74.7674         15.2682 
        1.34992         74.4549         15.1035 
        1.35606         73.9114          14.941 
         1.3622         73.6715         14.7811 
        1.36833         73.0506         14.6239 
        1.37445         72.5299         14.4691 
        1.38059         72.3659         14.3161 
        1.38675         71.6371          14.165 
        1.39288         71.6215         14.0166 
        1.39901         70.9432         13.8704 
        1.40515         70.7135          13.726 
         1.4113         70.4355         13.5836 
        1.41742         69.9434         13.4439 
        1.42355         69.6783         13.3058 
         1.4297         69.2374         13.1693 
        1.43585         68.8106         13.0348 
        1.44198         68.4669         12.9026 
        1.44809         68.0049         12.7725 
        1.45423         67.7683         12.6438 
        1.46036         67.2962          12.517 
        1.46649         67.0263          12.392 
        1.47263         66.7075         12.2685 
        1.47877         66.4402         12.1468 
        1.48491         66.0127         12.0266 
        1.49104         65.4976         11.9082 
        1.49718         65.3031         11.7914 
        1.50333         64.9555         11.6759 
        1.50947         64.7154         11.5622 
         1.5156         64.4576         11.4502 
        1.52172         63.9346         11.3396 
        1.52787         63.5561         11.2304 
          1.534         63.3042         11.1226 
        1.54013         63.1358         11.0164 
        1.54627         62.5362         10.9114 
        1.55241         62.2802         10.8078 
        1.55855         62.0267         10.7056 
        1.56467         61.4848          10.605 
         1.5708         61.4023         10.5055 
        1.57695         61.0259         10.4071 
        1.58308         60.7151         10.3101 
        1.58922         60.4324         10.2144 
        1.59535         60.2765         10.1198 
         1.6015         60.1102         10.0264 
        1.60764         59.6951         9.93415 
        1.61376         59.3249         9.84334 
        1.61989          58.866         9.75358 
        1.62604         58.7048         9.66475 
        1.63218         58.4127         9.57708 
        1.63831         58.2212         9.49069 
        1.64444         57.9639         9.40534 
        1.65059         57.5856         9.32084 
        1.65673          57.215         9.23747 
        1.66285         56.9943         9.15535 
        1.66898         56.5564          9.0742 
        1.67512         56.4311         8.99387 
        1.68127         56.2007         8.91445 
         1.6874         55.8292         8.83616 
        1.69353         55.6117         8.75886 
        1.69967         55.3918          8.6823 
        1.70581         55.0322         8.60669 
        1.71193         54.7998         8.53226 
        1.71806         54.4842         8.45856 
        1.72421         54.3254         8.38558 
        1.73035         54.0499         8.31354 
        1.73649         53.6782         8.24236 
        1.74262         53.3009         8.17208 
        1.74876         53.2794         8.10256 
        1.75489         52.8863           8.034 
        1.76101         52.6487         7.96624 
        1.76715          52.584         7.89918 
        1.77329         52.0574          7.8328 
        1.77943         52.0319         7.76716 
        1.78557         51.7684         7.70236 
        1.79171         51.4905         7.63829 
        1.79785         51.2337         7.57494 
        1.80399         50.9567         7.51232 
        1.81012         50.7433         7.45049 
        1.81625         50.4645         7.38938 
        1.82239         50.2306         7.32887 
        1.82853         49.9929         7.26906 
        1.83466          49.787         7.20998 
        1.84078         49.5425         7.15161 
        1.84692         49.3121          7.0938 
        1.85306         49.0492         7.03656 
         1.8592         48.8765         6.98003 
        1.86533         48.5948         6.92416 
        1.87147         48.3646         6.86883 
        1.87761         48.1231         6.81409 
        1.88375         47.9078            6.76 
        1.88988         47.7241         6.70656 
        1.89601         47.4479         6.65367 
        1.90215         47.1922          6.6013 
        1.90829         47.0534         6.54953 
        1.91442         46.7578          6.4983 
        1.92056         46.6048         6.44767 
         1.9267         46.4296         6.39752 
        1.93284         46.1883         6.34788 
        1.93897         45.9854         6.29885 
        1.94509         45.6341         6.25045 
        1.95123         45.4901         6.20244 
        1.95737         45.2484         6.15489 
        1.96349         45.1343         6.10797 
        1.96964         44.8385          6.0614 
        1.97578          44.649         6.01529 
        1.98192         44.4069         5.96976 
        1.98805         44.2114         5.92469 
        1.99419          44.038         5.88008 
        2.00033          43.884         5.83591 
        2.00647         43.6903         5.79221 
         2.0126         43.4029         5.74902 
        2.01874          43.262         5.70621 
        2.02488         43.0008          5.6638 
        2.03101         42.8759         5.62189 
        2.03714          42.642         5.58045 
        2.04328         42.4696         5.53938 
        2.04941         42.2301         5.49875 
        2.05554         42.1178         5.45856 
        2.06167         41.9484         5.41872 
        2.06781         41.6304         5.37927 
        2.07396          41.454         5.34015 
        2.08009         41.3155         5.30149 
        2.08622         41.1355         5.26325 
        2.09237          40.924         5.22532 
        2.09851         40.7429         5.18776 
        2.10464         40.5669         5.15062 
        2.11077         40.4086         5.11389 
        2.11691         40.1184         5.07744 
        2.12305         39.9207         5.04134 
        2.12918         39.8212         5.00568 
        2.13531          39.654         4.97036 
        2.14145         39.4533          4.9353 
         2.1476         39.2967         4.90054 
        2.15372         39.1913         4.86629 
        2.15985         38.8806         4.83232 
        2.16599         38.7278         4.79859 
        2.17213         38.5678         4.76521 
        2.17827          38.384         4.73216 
         2.1844         38.1829         4.69945 
        2.19054         38.0529         4.66703 
        2.19666         37.8296         4.63497 
         2.2028         37.6353         4.60318 
        2.20893         37.5194         4.57167 
        2.21508         37.3584         4.54042 
        2.22122         37.1905         4.50945 
        2.22736         36.9357         4.47884 
        2.23349          36.867         4.44851 
        2.23962         36.6738         4.41845 
        2.24577         36.5082         4.38864 
         2.2519         36.2986         4.35915 
        2.25802         36.2082         4.32998 
        2.26417         36.0106         4.30099 
        2.27031         35.8578         4.27224 
        2.27644         35.7976         4.24383 
        2.28257         35.4443         4.21569 
        2.28872         35.4825         4.18774 
        2.29486         35.2573         4.16006 
        2.30099         35.0373         4.13268 
        2.30712         34.9672         4.10553 
        2.31326         34.7456         4.07858 
         2.3194         34.5663         4.05189 
        2.32553         34.4663         4.02549 
        2.33166         34.2738         3.99932 
         2.3378         34.1303         3.97336 
        2.34394          33.985         3.94762 
        2.35007         33.8672         3.92214 
        2.35619         33.7536         3.89691 
        2.36233         33.4958         3.87185 
        2.36848         33.4283         3.84695 
        2.37462         33.2576         3.82233 
        2.38075         33.1203         3.79795 
        2.38689         33.0061         3.77375 
        2.39303         32.8767         3.74978 
        2.39916         32.6043         3.72603 
        2.40529         32.5134         3.70249 
        2.41143         32.3839         3.67914 
        2.41757         32.2996         3.65598 
         2.4237         32.1318         3.63306 
        2.42983          31.958         3.61033 
        2.43598         31.8422         3.58775 
        2.44211         31.7071         3.56539 
        2.44823         31.5111         3.54327 
        2.45437         31.4643         3.52128 
        2.46052         31.2531         3.49946 
        2.46665         31.1351         3.47786 
        2.47279         30.9241         3.45645 
        2.47892         30.8685          3.4352 
        2.48507         30.7556         3.41411 
         2.4912         30.6153         3.39324 
