# k  (h/Mpc)    Pcb(k)  (Mpc/h)^3    Pcb_linear(k)  (Mpc/h)^3
     0.00783031         625.912         631.825 
       0.013688         781.827          783.66 
       0.019231         794.795         795.045 
      0.0249154         732.421         735.767 
      0.0312784         637.881          638.14 
      0.0375637         546.872         545.528 
      0.0433917         477.591         477.813 
      0.0492413         429.798         429.247 
      0.0555754         392.031         393.183 
      0.0619321         366.928         365.708 
       0.067871         340.154         341.011 
      0.0738098         312.603         313.579 
      0.0800417         280.301         281.665 
      0.0862327         248.996         249.405 
      0.0921407         221.458         221.336 
      0.0982031         197.459         197.709 
       0.104506         180.452         179.564 
       0.110769         167.814         167.183 
       0.116806         158.562         158.746 
       0.122832         151.945         151.656 
       0.129052         143.566         143.925 
       0.135211         134.529         134.922 
       0.141259         125.038         124.871 
       0.147318         115.029          114.42 
       0.153489         104.839         104.459 
       0.159709         96.4852         95.9841 
       0.165845         90.5984         89.5162 
       0.171974         85.2281         84.7722 
       0.178125         81.7466         81.2082 
       0.184229         78.8464         78.1908 
        0.19034         75.1492         75.1008 
       0.196428         72.0601         71.6113 
       0.202534         68.5797         67.6625 
       0.208729         64.1026         63.4197 
       0.214876         59.7882         59.3195 
       0.220989         56.6397         55.6611 
       0.227147         53.1223         52.5778 
        0.23329         50.6863          50.115 
       0.239377         48.8354          48.155 
       0.245482         46.8662          46.469 
       0.251667         45.5581          44.836 
       0.257832         43.7695         43.1334 
       0.263955         41.9905         41.3132 
       0.270079         40.1184         39.3964 
        0.27624         38.4537         37.4683 
       0.282372         36.6495         35.6548 
        0.28843         34.8959          34.046 
       0.294538         33.4811         32.6398 
       0.300721         32.4508         31.4186 
        0.30691         31.1684          30.346 
       0.313033         30.1939         29.3622 
       0.319153          28.932         28.3979 
       0.325316         28.3315         27.4087 
        0.33145         27.2472         26.4022 
       0.337538         26.2819         25.3987 
       0.343633         25.2331          24.421 
       0.349808         24.3861         23.4895 
       0.355968         23.5521         22.6376 
       0.362074         22.7508         21.8752 
       0.368217         22.0646         21.1778 
       0.374374         21.3232         20.5311 
       0.380519          20.787         19.9152 
       0.386598         20.2134          19.318 
       0.392688         19.6859         18.7253 
        0.39888          19.041         18.1261 
       0.405048          18.498         17.5414 
       0.411186         17.9643         16.9809 
       0.417313         17.3473         16.4498 
       0.423458         16.8843         15.9509 
       0.429607         16.3722         15.4853 
       0.435692         15.9128          15.052 
       0.441815         15.5285         14.6379 
       0.447964         15.2129         14.2379 
       0.454126         14.6936         13.8472 
       0.460267         14.3423         13.4657 
       0.466387         13.9048         13.0947 
        0.47254         13.6081         12.7322 
       0.478662         13.3002         12.3841 
       0.484765          12.906          12.052 
       0.490885         12.5866         11.7351 
       0.497035         12.3852         11.4317 
       0.503198         12.0423          11.141 
       0.509342         11.7592         10.8624 
       0.515458         11.4602         10.5946 
       0.521598         11.2194         10.3337 
       0.527764         10.9319         10.0783 
       0.533884         10.7338         9.83165 
           0.54         10.4767         9.59278 
       0.546137         10.2609         9.36126 
       0.552299         10.0451         9.13723 
       0.558452         9.75289         8.92174 
       0.564573         9.59678         8.71511 
       0.570708         9.39407         8.51542 
       0.576825         9.15606         8.32311 
       0.582926         8.99449         8.13729 
       0.589034         8.73749         7.95655 
       0.595184         8.58992         7.77948 
       0.601379         8.40092         7.60612 
       0.607522         8.27125         7.43927 
       0.613639         8.14493         7.27823 
       0.619772         7.92253         7.12192 
       0.625918         7.81828         6.97022 
       0.632068         7.68912          6.8231 
       0.638161         7.50105         6.68167 
         0.6443         7.34728         6.54329 
       0.650464         7.18831         6.40831 
       0.656582         7.10618         6.27811 
       0.662703         6.97046         6.15147 
       0.668861         6.85113         6.02761 
       0.675024         6.70416         5.90706 
       0.681124         6.57614         5.79103 
       0.687237          6.4788         5.67789 
       0.693381         6.37151         5.56728 
       0.699536          6.2016         5.45946 
       0.705665         6.11556         5.35501 
       0.711789         6.01796         5.25345 
       0.717957          5.9053         5.15388 
        0.72409         5.80416         5.05748 
       0.730186          5.7134         4.96416 
       0.736317         5.65173         4.87271 
       0.742472         5.55503         4.78324 
       0.748622         5.44992         4.69612 
        0.75476         5.33435         4.61135 
       0.760888         5.26091         4.52881 
       0.767043         5.19852         4.44798 
       0.773185         5.08835         4.36931 
       0.779291         5.03098         4.29299 
       0.785407         4.94559         4.21841 
       0.791564         4.87049         4.14514 
       0.797719         4.79617         4.07367 
       0.803834         4.73932         4.00435 
       0.809972          4.6724         3.93641 
       0.816124         4.58024         3.86992 
       0.822261         4.50062         3.80515 
       0.828378         4.44647         3.74208 
       0.834502         4.40067         3.68039 
       0.840667         4.30806         3.61971 
       0.846816         4.24121         3.56058 
       0.852925         4.20299         3.50316 
       0.859047         4.14116         3.44689 
       0.865192         4.08783         3.39168 
       0.871341         4.03556         3.33766 
       0.877463         3.98082         3.28507 
       0.883569         3.90876         3.23375 
       0.889708         3.84835         3.18328 
       0.895864         3.80382         3.13376 
       0.902008         3.74711         3.08541 
       0.908149         3.70481         3.03811 
       0.914301         3.63626         2.99174 
       0.920448         3.59135         2.94638 
       0.926574         3.53992         2.90213 
       0.932687          3.5013         2.85889 
       0.938823         3.46202         2.81638 
       0.944975          3.4135         2.77464 
       0.951105         3.37455         2.73391 
       0.957225         3.35046         2.69407 
       0.963368          3.2992         2.65489 
       0.969511         3.25065         2.61649 
       0.975621         3.20195         2.57907 
       0.981748         3.17286         2.54228 
       0.987916         3.13126         2.50599 
        0.99406         3.08007         2.47054 
        1.00019          3.0491         2.43586 
        1.00632           3.013         2.40188 
        1.01246          2.9782         2.36849 
        1.01859         2.94357          2.3358 
        1.02471         2.90525         2.30377 
        1.03085         2.87347         2.27223 
        1.03698         2.83396         2.24136 
        1.04314         2.80702         2.21093 
        1.04929         2.76979         2.18114 
        1.05541         2.73965         2.15202 
        1.06154          2.7088         2.12337 
        1.06769         2.68338         2.09519 
        1.07382         2.64658         2.06763 
        1.07993         2.60908         2.04062 
        1.08607         2.59494         2.01399 
        1.09222         2.55964         1.98781 
        1.09836         2.53974         1.96213 
        1.10449         2.50939         1.93693 
        1.11063         2.47529         1.91216 
        1.11677         2.44909         1.88782 
         1.1229         2.42252         1.86396 
        1.12903         2.39346         1.84049 
        1.13518         2.37431         1.81741 
        1.14131          2.3399         1.79474 
        1.14745         2.30363         1.77246 
        1.15359         2.29306         1.75057 
        1.15973         2.25823         1.72904 
        1.16584         2.24874         1.70797 
        1.17197         2.22128         1.68722 
        1.17811         2.20035         1.66675 
        1.18424         2.18326         1.64669 
        1.19038         2.15577          1.6269 
        1.19652         2.13297         1.60744 
        1.20267         2.11581          1.5883 
        1.20881         2.08749         1.56948 
        1.21495         2.07251           1.551 
        1.22108         2.05161         1.53282 
         1.2272         2.03718         1.51497 
        1.23334         2.01004         1.49737 
        1.23949         1.98838         1.48001 
        1.24562         1.97522         1.46297 
        1.25174         1.95165         1.44622 
        1.25789         1.93529         1.42969 
        1.26402         1.91028         1.41345 
        1.27014         1.89269          1.3975 
        1.27628         1.88453         1.38175 
        1.28244           1.857         1.36621 
        1.28858         1.84352         1.35093 
        1.29471         1.82478         1.33592 
        1.30084         1.80582         1.32116 
        1.30697         1.79393         1.30659 
        1.31312         1.76607         1.29223 
        1.31925         1.75836         1.27813 
        1.32537          1.7422         1.26425 
        1.33151         1.72868         1.25053 
        1.33765         1.70826         1.23703 
        1.34378         1.69091         1.22375 
        1.34992         1.68392         1.21065 
        1.35606         1.66035         1.19772 
         1.3622          1.6512         1.18501 
        1.36833          1.6353         1.17251 
        1.37445         1.61735          1.1602 
        1.38059         1.60579         1.14802 
        1.38675         1.60018           1.136 
        1.39288         1.57811         1.12419 
        1.39901         1.56355         1.11256 
        1.40515         1.55205         1.10107 
         1.4113         1.53832         1.08974 
        1.41742         1.52548         1.07862 
        1.42355         1.51932         1.06763 
         1.4297         1.49862         1.05676 
        1.43585         1.48915         1.04605 
        1.44198         1.48114         1.03553 
        1.44809         1.46097         1.02517 
        1.45423         1.45063         1.01492 
        1.46036         1.43911         1.00483 
        1.46649         1.42662        0.994866 
        1.47263         1.41387        0.985034 
        1.47877         1.40041        0.975339 
        1.48491         1.38989         0.96576 
        1.49104         1.38016         0.95633 
        1.49718         1.37164        0.947019 
        1.50333         1.35742        0.937818 
        1.50947         1.34974        0.928759 
         1.5156         1.33728        0.919833 
        1.52172         1.32636        0.911024 
        1.52787         1.31447        0.902314 
          1.534         1.30732        0.893728 
        1.54013         1.29319        0.885263 
        1.54627         1.28235        0.876893 
        1.55241         1.27248        0.868631 
        1.55855         1.26407        0.860486 
        1.56467         1.25608        0.852469 
         1.5708         1.24176        0.844531 
        1.57695         1.23697        0.836683 
        1.58308         1.22691        0.828953 
        1.58922         1.21738        0.821316 
        1.59535         1.20819        0.813778 
         1.6015         1.19915        0.806324 
        1.60764         1.19187        0.798968 
        1.61376         1.18119        0.791724 
        1.61989         1.17287        0.784564 
        1.62604         1.16315        0.777477 
        1.63218         1.15841        0.770482 
        1.63831         1.14581         0.76359 
        1.64444         1.13734        0.756779 
        1.65059         1.13139        0.750036 
        1.65673         1.12136        0.743382 
        1.66285         1.11269        0.736827 
        1.66898         1.10819         0.73035 
        1.67512          1.0961        0.723938 
        1.68127         1.08911        0.717597 
         1.6874         1.08422        0.711347 
        1.69353         1.07299        0.705175 
        1.69967         1.06548        0.699062 
        1.70581         1.06112        0.693023 
        1.71193         1.05179         0.68708 
        1.71806         1.04652        0.681193 
        1.72421         1.03799        0.675364 
        1.73035         1.02938         0.66961 
        1.73649         1.02456        0.663925 
        1.74262         1.01715         0.65831 
        1.74876         1.00959        0.652756 
        1.75489         1.00075        0.647279 
        1.76101        0.994624        0.641865 
        1.76715        0.988693        0.636507 
        1.77329        0.982546        0.631203 
        1.77943        0.974208        0.625957 
        1.78557        0.967492        0.620779 
        1.79171        0.963627        0.615659 
        1.79785        0.955897        0.610595 
        1.80399        0.949794         0.60559 
        1.81012        0.944856        0.600648 
        1.81625        0.936669        0.595763 
        1.82239         0.93159        0.590925 
        1.82853        0.921625        0.586143 
        1.83466        0.918203        0.581419 
        1.84078        0.911397        0.576752 
        1.84692        0.907963        0.572129 
        1.85306        0.900938        0.567551 
         1.8592        0.896142        0.563031 
        1.86533        0.889233        0.558562 
        1.87147        0.884233        0.554137 
        1.87761        0.878519        0.549758 
        1.88375        0.870339        0.545431 
        1.88988        0.867841        0.541156 
        1.89601        0.860703        0.536924 
        1.90215        0.855649        0.532734 
        1.90829        0.849417        0.528591 
        1.91442         0.84422        0.524492 
        1.92056        0.839906         0.52044 
         1.9267        0.833988        0.516427 
        1.93284        0.830768        0.512453 
        1.93897        0.824693        0.508529 
        1.94509        0.819345        0.504655 
        1.95123        0.813494        0.500811 
        1.95737         0.80941        0.497005 
        1.96349        0.803067        0.493248 
        1.96964        0.799356        0.489519 
        1.97578        0.794162        0.485827 
        1.98192        0.791302         0.48218 
        1.98805        0.784105        0.478571 
        1.99419        0.781107        0.474998 
        2.00033        0.777893        0.471461 
        2.00647        0.770663         0.46796 
         2.0126        0.767222        0.464501 
        2.01874        0.762714        0.461071 
        2.02488        0.758832        0.457674 
        2.03101        0.752294        0.454317 
        2.03714        0.747019        0.450996 
        2.04328        0.745531        0.447705 
        2.04941        0.740194         0.44445 
        2.05554        0.735586         0.44123 
        2.06167        0.731115        0.438037 
        2.06781        0.726274        0.434875 
        2.07396        0.721528         0.43174 
        2.08009        0.718533        0.428641 
        2.08622         0.71359        0.425577 
        2.09237        0.712362        0.422536 
        2.09851        0.707913        0.419525 
        2.10464        0.704152        0.416548 
        2.11077        0.699037        0.413603 
        2.11691        0.694523         0.41068 
        2.12305        0.691289        0.407786 
        2.12918        0.687278        0.404927 
        2.13531        0.683511        0.402094 
        2.14145        0.679606        0.399283 
         2.1476        0.675287        0.396495 
        2.15372        0.673139        0.393747 
        2.15985        0.667744        0.391023 
        2.16599        0.663848        0.388317 
        2.17213        0.660697         0.38564 
        2.17827        0.658772        0.382988 
         2.1844        0.655054        0.380364 
        2.19054        0.651849        0.377763 
        2.19666        0.647076        0.375191 
         2.2028        0.643892         0.37264 
        2.20893        0.640259        0.370112 
        2.21508        0.637888        0.367604 
        2.22122        0.632115        0.365119 
        2.22736        0.629219        0.362662 
        2.23349        0.628592        0.360228 
        2.23962        0.623848        0.357815 
        2.24577        0.619369        0.355422 
         2.2519        0.616709        0.353054 
        2.25802        0.613671        0.350712 
        2.26417        0.609351        0.348385 
        2.27031        0.606748        0.346076 
        2.27644        0.604095        0.343795 
        2.28257        0.601286        0.341535 
        2.28872        0.597593        0.339291 
        2.29486        0.594624        0.337068 
        2.30099        0.591178        0.334869 
        2.30712        0.588831        0.332689 
        2.31326        0.585787        0.330524 
         2.3194        0.584248         0.32838 
        2.32553         0.58084        0.326259 
        2.33166        0.577514        0.324157 
         2.3378        0.574356        0.322071 
        2.34394        0.570084        0.320003 
        2.35007        0.568066        0.317956 
        2.35619        0.565782        0.315929 
        2.36233        0.561502        0.313915 
        2.36848        0.560026        0.311915 
        2.37462        0.556437        0.309936 
        2.38075         0.55534        0.307976 
        2.38689        0.551619        0.306032 
        2.39303        0.549863        0.304104 
        2.39916        0.545198        0.302196 
        2.40529        0.543981        0.300303 
        2.41143        0.541532        0.298426 
        2.41757        0.538589        0.296564 
         2.4237        0.536145        0.294721 
        2.42983        0.533944        0.292894 
        2.43598        0.531101        0.291078 
        2.44211        0.529013         0.28928 
        2.44823        0.526322        0.287502 
        2.45437        0.523352        0.285733 
        2.46052        0.522457        0.283978 
        2.46665        0.518811        0.282241 
        2.47279        0.516097        0.280519 
        2.47892        0.513046         0.27881 
        2.48507        0.511381        0.277114 
         2.4912        0.509045        0.275435 
