# k  (h/Mpc)    P(k)  (Mpc/h)^3    P_linear(k)  (Mpc/h)^3
     0.00783031         784.651         793.174 
       0.013688         980.582         983.007 
       0.019231         996.566         996.988 
      0.0249154         917.849         922.508 
      0.0312784         799.563         800.022 
      0.0375637         685.646         683.876 
      0.0433917         598.527         598.967 
      0.0492413         538.771         538.073 
      0.0555754         491.179         492.855 
      0.0619321         460.133         458.409 
       0.067871         426.264         427.447 
      0.0738098         391.723         393.058 
      0.0800417         351.154         353.053 
      0.0862327         312.042         312.615 
      0.0921407         277.632         277.431 
      0.0982031         247.485         247.815 
       0.104506         226.358          225.07 
       0.110769         210.489         209.552 
       0.116806           198.8         198.976 
       0.122832         190.567         190.088 
       0.129052         179.958         180.399 
       0.135211         168.642         169.113 
       0.141259         156.835         156.515 
       0.147318         144.345         143.416 
       0.153489         131.534          130.93 
       0.159709         121.112         120.307 
       0.165845         113.813           112.2 
       0.171974         107.014         106.254 
       0.178125         102.658         101.787 
       0.184229          99.031         98.0049 
        0.19034         94.2892          94.132 
       0.196428         90.4996         89.7582 
       0.202534         86.1993         84.8085 
       0.208729         80.5676         79.4905 
       0.214876         75.1336         74.3512 
       0.220989         71.2571         69.7659 
       0.227147         66.8004         65.9012 
        0.23329         63.7549         62.8144 
       0.239377         61.4642         60.3576 
       0.245482          58.919         58.2444 
       0.251667         57.3324         56.1976 
       0.257832         55.0986         54.0635 
       0.263955         52.8579         51.7823 
       0.270079         50.5196         49.3796 
        0.27624         48.4803         46.9628 
       0.282372         46.2211         44.6896 
        0.28843         44.0142         42.6732 
       0.294538         42.2322         40.9108 
       0.300721         40.9728           39.38 
        0.30691         39.3356         38.0356 
       0.313033         38.1124         36.8025 
       0.319153         36.4896         35.5939 
       0.325316         35.7742          34.354 
        0.33145         34.3976         33.0927 
       0.337538         33.2121         31.8346 
       0.343633         31.8927         30.6093 
       0.349808         30.8362         29.4418 
       0.355968         29.7966         28.3737 
       0.362074         28.7894         27.4183 
       0.368217         27.9263         26.5442 
       0.374374         26.9979         25.7336 
       0.380519         26.3243         24.9617 
       0.386598         25.6007         24.2132 
       0.392688         24.9509         23.4702 
        0.39888          24.139         22.7193 
       0.405048         23.4669         21.9863 
       0.411186         22.8041         21.2838 
       0.417313         22.0166         20.6181 
       0.423458          21.432         19.9928 
       0.429607         20.7923         19.4092 
       0.435692         20.2025         18.8662 
       0.441815         19.7353         18.3471 
       0.447964          19.348         17.8457 
       0.454126         18.6697          17.356 
       0.460267         18.2424         16.8779 
       0.466387         17.6807         16.4128 
        0.47254         17.3245         15.9585 
       0.478662          16.946         15.5222 
       0.484765         16.4407         15.1058 
       0.490885         16.0368         14.7087 
       0.497035         15.7925         14.3285 
       0.503198         15.3588         13.9641 
       0.509342         14.9919         13.6149 
       0.515458         14.6188         13.2793 
       0.521598         14.3223         12.9522 
       0.527764         13.9639         12.6321 
       0.533884         13.7129          12.323 
           0.54         13.3906         12.0236 
       0.546137         13.1223         11.7334 
       0.552299         12.8575         11.4526 
       0.558452         12.4742         11.1825 
       0.564573         12.2856         10.9235 
       0.570708          12.033         10.6732 
       0.576825         11.7245         10.4321 
       0.582926         11.5187         10.1992 
       0.589034         11.1906         9.97272 
       0.595184         11.0111         9.75076 
       0.601379         10.7705         9.53348 
       0.607522         10.6066         9.32435 
       0.613639         10.4526          9.1225 
       0.619772         10.1676         8.92658 
       0.625918         10.0513         8.73645 
       0.632068         9.88568         8.55205 
       0.638161         9.64301         8.37478 
         0.6443         9.44511         8.20133 
       0.650464         9.24629         8.03215 
       0.656582         9.15258         7.86895 
       0.662703         8.97861         7.71023 
       0.668861         8.81998         7.55498 
       0.675024          8.6352         7.40388 
       0.681124         8.47644         7.25845 
       0.687237         8.34898         7.11665 
       0.693381         8.21975         6.97801 
       0.699536         7.99802         6.84287 
       0.705665         7.89676         6.71195 
       0.711789         7.76764         6.58465 
       0.717957         7.62803         6.45985 
        0.72409         7.49761         6.33902 
       0.730186         7.38744         6.22206 
       0.736317         7.30682         6.10744 
       0.742472          7.1853          5.9953 
       0.748622         7.05507         5.88609 
        0.75476         6.90466         5.77985 
       0.760888         6.81499          5.6764 
       0.767043         6.73252         5.57508 
       0.773185         6.59131         5.47647 
       0.779291         6.52514         5.38082 
       0.785407         6.41601         5.28734 
       0.791564         6.31697         5.19551 
       0.797719         6.21604         5.10592 
       0.803834         6.15293         5.01904 
       0.809972         6.07324         4.93388 
       0.816124         5.94961         4.85054 
       0.822261         5.85028         4.76936 
       0.828378         5.78038         4.69031 
       0.834502          5.7245         4.61299 
       0.840667         5.60826         4.53693 
       0.846816         5.51819         4.46282 
       0.852925         5.46956         4.39084 
       0.859047         5.39198         4.32032 
       0.865192          5.3304         4.25112 
       0.871341         5.26528         4.18341 
       0.877463         5.18887         4.11749 
       0.883569         5.09746         4.05317 
       0.889708         5.01714         3.98991 
       0.895864         4.96452         3.92784 
       0.902008         4.89644         3.86723 
       0.908149          4.8423         3.80795 
       0.914301         4.75769         3.74983 
       0.920448         4.69584         3.69298 
       0.926574         4.63093         3.63752 
       0.932687         4.58427         3.58332 
       0.938823         4.52869         3.53004 
       0.944975         4.46652         3.47773 
       0.951105         4.41845         3.42667 
       0.957225         4.39167         3.37673 
       0.963368         4.32494         3.32762 
       0.969511         4.26465          3.2795 
       0.975621         4.20325         3.23259 
       0.981748         4.16315         3.18649 
       0.987916         4.11288         3.14099 
        0.99406         4.04492         3.09657 
        1.00019         3.99929         3.05309 
        1.00632         3.96305          3.0105 
        1.01246         3.91766         2.96866 
        1.01859         3.86931         2.92768 
        1.02471         3.82298         2.88754 
        1.03085          3.7801         2.84801 
        1.03698         3.72963         2.80931 
        1.04314         3.69616         2.77117 
        1.04929         3.64819         2.73383 
        1.05541         3.60737         2.69733 
        1.06154         3.57089         2.66142 
        1.06769         3.54293          2.6261 
        1.07382         3.48963         2.59155 
        1.07993         3.44392          2.5577 
        1.08607         3.42519         2.52433 
        1.09222          3.3815         2.49151 
        1.09836         3.35304         2.45932 
        1.10449         3.31437         2.42774 
        1.11063         3.27349         2.39669 
        1.11677         3.24213         2.36619 
         1.1229          3.2075         2.33628 
        1.12903          3.1691         2.30686 
        1.13518         3.14236         2.27793 
        1.14131         3.09802         2.24951 
        1.14745         3.05399          2.2216 
        1.15359         3.03978         2.19416 
        1.15973         2.99714         2.16717 
        1.16584         2.97922         2.14076 
        1.17197         2.94658         2.11475 
        1.17811         2.92082          2.0891 
        1.18424         2.89748         2.06395 
        1.19038         2.86593         2.03915 
        1.19652         2.83658         2.01476 
        1.20267         2.81088         1.99077 
        1.20881         2.77825         1.96718 
        1.21495         2.75709         1.94402 
        1.22108         2.72953         1.92123 
         1.2272         2.71184         1.89886 
        1.23334         2.67557          1.8768 
        1.23949         2.64779         1.85503 
        1.24562         2.63237         1.83368 
        1.25174         2.59955         1.81269 
        1.25789         2.57979         1.79197 
        1.26402         2.54921         1.77161 
        1.27014         2.52553         1.75162 
        1.27628         2.51397         1.73187 
        1.28244         2.47929          1.7124 
        1.28858         2.46358         1.69325 
        1.29471         2.43684         1.67444 
        1.30084         2.41276         1.65593 
        1.30697         2.40172         1.63768 
        1.31312         2.36169         1.61967 
        1.31925         2.35199           1.602 
        1.32537          2.3304         1.58461 
        1.33151         2.31444         1.56741 
        1.33765         2.28541         1.55048 
        1.34378         2.26605         1.53384 
        1.34992         2.25723         1.51743 
        1.35606         2.22422         1.50122 
         1.3622          2.2145         1.48528 
        1.36833         2.19361         1.46962 
        1.37445         2.17182         1.45418 
        1.38059         2.15839         1.43893 
        1.38675         2.14792         1.42385 
        1.39288         2.12046         1.40905 
        1.39901         2.10038         1.39448 
        1.40515         2.08541         1.38007 
         1.4113         2.06922         1.36587 
        1.41742         2.05315         1.35193 
        1.42355         2.04263         1.33816 
         1.4297           2.017         1.32454 
        1.43585         2.00644         1.31112 
        1.44198          1.9941         1.29793 
        1.44809         1.96863         1.28495 
        1.45423         1.95466          1.2721 
        1.46036           1.939         1.25944 
        1.46649          1.9231         1.24696 
        1.47263         1.90687         1.23464 
        1.47877         1.88888         1.22248 
        1.48491          1.8755         1.21048 
        1.49104         1.86451         1.19866 
        1.49718         1.85186         1.18699 
        1.50333          1.8345         1.17546 
        1.50947         1.82361          1.1641 
         1.5156         1.80791         1.15291 
        1.52172         1.79418         1.14187 
        1.52787          1.7793         1.13096 
          1.534          1.7682         1.12019 
        1.54013         1.75221         1.10958 
        1.54627         1.73662         1.09909 
        1.55241         1.72366         1.08874 
        1.55855         1.71435         1.07853 
        1.56467         1.70268         1.06848 
         1.5708         1.68413         1.05853 
        1.57695         1.67696         1.04869 
        1.58308         1.66373         1.03901 
        1.58922         1.65278         1.02943 
        1.59535         1.64044         1.01999 
         1.6015         1.62887         1.01064 
        1.60764         1.61932         1.00142 
        1.61376         1.60692        0.992343 
        1.61989         1.59419        0.983369 
        1.62604          1.5815        0.974486 
        1.63218         1.57621        0.965719 
        1.63831         1.55887         0.95708 
        1.64444         1.54812        0.948543 
        1.65059         1.54095        0.940091 
        1.65673         1.52835        0.931751 
        1.66285         1.51641        0.923536 
        1.66898         1.50951        0.915417 
        1.67512         1.49444         0.90738 
        1.68127         1.48551        0.899433 
         1.6874         1.47934        0.891599 
        1.69353         1.46296        0.883863 
        1.69967         1.45386          0.8762 
        1.70581         1.44983        0.868632 
        1.71193         1.43643        0.861182 
        1.71806         1.43035        0.853804 
        1.72421         1.41906        0.846498 
        1.73035         1.40805        0.839286 
        1.73649         1.40035         0.83216 
        1.74262          1.3911        0.825122 
        1.74876         1.38278        0.818162 
        1.75489          1.3697        0.811296 
        1.76101         1.36207        0.804511 
        1.76715         1.35435        0.797795 
        1.77329         1.34643        0.791147 
        1.77943         1.33513        0.784572 
        1.78557         1.32675        0.778082 
        1.79171         1.32237        0.771664 
        1.79785         1.31077        0.765317 
        1.80399         1.30374        0.759044 
        1.81012         1.29753        0.752849 
        1.81625         1.28643        0.746726 
        1.82239         1.27873        0.740662 
        1.82853         1.26631        0.734669 
        1.83466          1.2626        0.728748 
        1.84078         1.25368        0.722898 
        1.84692         1.24862        0.717104 
        1.85306         1.23877        0.711366 
         1.8592         1.23257          0.7057 
        1.86533         1.22348        0.700099 
        1.87147         1.21789        0.694552 
        1.87761         1.20994        0.689064 
        1.88375         1.19929        0.683641 
        1.88988         1.19609        0.678282 
        1.89601         1.18698        0.672978 
        1.90215         1.17869        0.667727 
        1.90829         1.17086        0.662534 
        1.91442         1.16518        0.657396 
        1.92056          1.1589        0.652317 
         1.9267          1.1517        0.647287 
        1.93284         1.14774        0.642307 
        1.93897         1.13915        0.637388 
        1.94509         1.13173        0.632532 
        1.95123         1.12393        0.627714 
        1.95737         1.11849        0.622943 
        1.96349         1.11081        0.618234 
        1.96964           1.106         0.61356 
        1.97578         1.09924        0.608933 
        1.98192         1.09446        0.604362 
        1.98805         1.08526        0.599838 
        1.99419           1.082         0.59536 
        2.00033         1.07818        0.590926 
        2.00647         1.06757        0.586539 
         2.0126         1.06376        0.582203 
        2.01874         1.05683        0.577905 
        2.02488         1.05205        0.573646 
        2.03101         1.04327        0.569438 
        2.03714         1.03629        0.565276 
        2.04328         1.03479        0.561152 
        2.04941          1.0267        0.557072 
        2.05554         1.02185        0.553035 
        2.06167         1.01513        0.549033 
        2.06781         1.01035         0.54507 
        2.07396         1.00342        0.541141 
        2.08009        0.999378        0.537257 
        2.08622        0.992197        0.533416 
        2.09237        0.990579        0.529605 
        2.09851        0.984549         0.52583 
        2.10464          0.9801        0.522099 
        2.11077        0.973093        0.518408 
        2.11691        0.966776        0.514745 
        2.12305        0.963275        0.511117 
        2.12918        0.957431        0.507533 
        2.13531        0.952976        0.503983 
        2.14145        0.946917        0.500459 
         2.1476        0.941416        0.496964 
        2.15372         0.93783        0.493521 
        2.15985        0.931546        0.490107 
        2.16599         0.92669        0.486715 
        2.17213         0.92199        0.483359 
        2.17827        0.919248        0.480035 
         2.1844        0.914363        0.476746 
        2.19054        0.910771        0.473487 
        2.19666        0.904513        0.470262 
         2.2028        0.899874        0.467065 
        2.20893        0.894655        0.463896 
        2.21508        0.892351        0.460753 
        2.22122        0.883948        0.457638 
        2.22736        0.880104        0.454558 
        2.23349        0.879925        0.451508 
        2.23962        0.872366        0.448483 
        2.24577        0.867632        0.445484 
         2.2519        0.863005        0.442517 
        2.25802        0.860356        0.439581 
        2.26417        0.853847        0.436664 
        2.27031        0.851047         0.43377 
        2.27644        0.846823        0.430911 
        2.28257        0.843324        0.428079 
        2.28872        0.838245        0.425266 
        2.29486        0.834824        0.422479 
        2.30099        0.829518        0.419723 
        2.30712        0.826281         0.41699 
        2.31326        0.823348        0.414277 
         2.3194        0.819847         0.41159 
        2.32553          0.8158        0.408931 
        2.33166        0.810746        0.406297 
         2.3378        0.806403        0.403682 
        2.34394        0.801648         0.40109 
        2.35007        0.798304        0.398524 
        2.35619        0.796179        0.395984 
        2.36233        0.790143         0.39346 
        2.36848         0.78781        0.390952 
        2.37462         0.78342        0.388472 
        2.38075        0.781287        0.386016 
        2.38689        0.776549        0.383578 
        2.39303        0.773941        0.381163 
        2.39916        0.768195         0.37877 
        2.40529        0.766972        0.376399 
        2.41143        0.762681        0.374046 
        2.41757        0.759208        0.371712 
         2.4237        0.756427        0.369402 
        2.42983        0.752604        0.367112 
        2.43598        0.749191        0.364836 
        2.44211        0.746109        0.362582 
        2.44823        0.742162        0.360353 
        2.45437        0.739146        0.358136 
        2.46052        0.737341        0.355937 
        2.46665        0.733011        0.353759 
        2.47279        0.729382        0.351601 
        2.47892        0.725001        0.349459 
        2.48507        0.722658        0.347333 
         2.4912        0.719276        0.345228 
