#  k  (h/Mpc)          P(k)  (Mpc/h)^3     P_linear(k) (Mpc/h)^3
     0.00783031         16745.7         16997.5 
       0.013688         21699.2         21501.3 
       0.019231         22006.1         21987.1 
      0.0249154         19901.8         20385.2 
      0.0312784         17389.9         17638.3 
      0.0375637         14982.5         15022.9 
      0.0433917         12840.7         13133.5 
      0.0492413         11677.8         11812.4 
      0.0555754         10453.1         10868.9 
      0.0619321         10111.7           10170 
       0.067871         9171.57         9528.34 
      0.0738098         8458.47         8783.49 
      0.0800417         7509.24         7886.69 
      0.0862327         6750.36          6964.2 
      0.0921407         6117.79         6159.27 
      0.0982031         5445.02         5488.12 
       0.104506          5120.2         4985.02 
       0.110769         4767.37         4656.34 
       0.116806            4523         4443.78 
       0.122832         4330.84         4267.68 
       0.129052         4026.92         4066.27 
       0.135211         3805.48         3817.59 
       0.141259         3622.26         3529.76 
       0.147318         3390.55         3225.77 
       0.153489         3091.45         2935.92 
       0.159709         2918.98         2692.61 
       0.165845         2820.76          2512.1 
       0.171974         2676.54         2385.43 
       0.178125         2557.29         2294.85 
       0.184229         2453.02         2219.22 
        0.19034         2331.48         2138.42 
       0.196428         2280.43         2041.78 
       0.202534         2186.77            1928 
       0.208729         2085.76         1803.41 
       0.214876         2000.99         1682.71 
       0.220989         1930.82         1576.26 
       0.227147         1853.24         1488.73 
        0.23329         1783.91         1421.38 
       0.239377         1760.83         1369.83 
       0.245482         1656.29         1326.29 
       0.251667         1649.25         1283.36 
       0.257832         1584.73         1236.59 
       0.263955         1532.38         1184.51 
       0.270079         1480.89          1128.4 
        0.27624         1463.24         1071.42 
       0.282372         1403.34         1018.18 
        0.28843         1398.72         971.743 
       0.294538          1331.2         932.198 
       0.300721          1323.1         898.868 
        0.30691         1274.83         870.134 
       0.313033         1249.78          843.79 
       0.319153         1232.11         817.363 
       0.325316         1191.79         789.476 
        0.33145         1166.33         760.347 
       0.337538         1145.26          730.93 
       0.343633         1122.67          702.22 
       0.349808         1086.07         675.053 
       0.355968         1078.26         650.676 
       0.362074         1069.15         629.214 
       0.368217         1035.41         609.976 
       0.374374          998.78         592.217 
       0.380519         1001.73         575.198 
       0.386598         973.166         558.488 
       0.392688         969.332          541.52 
        0.39888         942.478         524.182 
       0.405048         932.214         507.135 
       0.411186         919.565         490.767 
       0.417313         900.348         475.417 
       0.423458         884.833         461.159 
       0.429607         874.777         447.966 
       0.435692         857.212         435.829 
       0.441815         850.385         424.252 
       0.447964         833.242         412.968 
       0.454126         827.257         401.858 
       0.460267         806.746         390.932 
       0.466387          796.88         380.189 
        0.47254         793.815         369.644 
       0.478662         784.793         359.562 
       0.484765         763.174             350 
       0.490885         758.566         340.905 
       0.497035         743.073         332.242 
       0.503198         739.019         323.995 
       0.509342         731.036         316.102 
       0.515458         727.632         308.471 
       0.521598         709.973         300.974 
       0.527764          697.58         293.617 
       0.533884         695.668         286.503 
           0.54         689.048           279.6 
       0.546137         682.613         272.897 
       0.552299          674.29         266.415 
       0.558452         669.141         260.212 
       0.564573         660.863         254.296 
       0.570708         653.787         248.588 
       0.576825         636.671         243.078 
       0.582926         639.862         237.731 
       0.589034         633.457         232.515 
       0.595184         627.675         227.402 
       0.601379         619.054         222.398 
       0.607522          610.36         217.582 
       0.613639         610.795         212.931 
       0.619772         598.403          208.41 
       0.625918          594.67         204.021 
       0.632068         587.243         199.768 
       0.638161         584.923         195.686 
         0.6443         575.271         191.698 
       0.650464          573.56          187.81 
       0.656582         568.508         184.057 
       0.662703         566.715         180.399 
       0.668861         557.318         176.813 
       0.675024         552.847         173.317 
       0.681124         549.312         169.949 
       0.687237         545.125         166.665 
       0.693381         538.171         163.457 
       0.699536         529.505         160.334 
       0.705665         529.239         157.311 
       0.711789         526.552         154.373 
       0.717957         521.756         151.492 
        0.72409         519.306         148.702 
       0.730186         511.416         145.998 
       0.736317         508.751         143.345 
       0.742472         505.872         140.747 
       0.748622         500.424         138.215 
        0.75476         493.218         135.751 
       0.760888         489.297          133.35 
       0.767043         489.193             131 
       0.773185         484.576         128.712 
       0.779291         479.534         126.494 
       0.785407         476.126         124.325 
       0.791564         471.127         122.196 
       0.797719         469.368         120.118 
       0.803834         464.072         118.102 
       0.809972         462.992         116.126 
       0.816124         461.568         114.192 
       0.822261         455.177         112.307 
       0.828378         452.659          110.47 
       0.834502         447.886         108.674 
       0.840667          444.69         106.906 
       0.846816          442.73         105.183 
       0.852925         439.611          103.51 
       0.859047         437.994         101.869 
       0.865192         432.387         100.259 
       0.871341         428.815         98.6838 
       0.877463         428.798         97.1496 
       0.883569         424.431         95.6523 
       0.889708         421.925         94.1793 
       0.895864         420.596         92.7338 
       0.902008         416.826         91.3221 
       0.908149         411.547          89.941 
       0.914301         409.657         88.5865 
       0.920448         407.861         87.2614 
       0.926574         401.392         85.9684 
       0.932687         401.226         84.7046 
       0.938823         397.397         83.4619 
       0.944975          397.62         82.2415 
       0.951105         392.992         81.0502 
       0.957225         390.555         79.8847 
       0.963368         386.111         78.7384 
       0.969511         385.301         77.6148 
       0.975621         383.058         76.5194 
       0.981748          380.72         75.4425 
       0.987916         378.694         74.3798 
        0.99406         372.821         73.3417 
        1.00019         371.452         72.3256 
        1.00632         369.925         71.3299 
        1.01246         366.979         70.3517 
        1.01859         367.142         69.3935 
        1.02471         361.825         68.4546 
        1.03085         360.539         67.5299 
        1.03698          359.02         66.6245 
        1.04314          355.97          65.732 
        1.04929         352.222         64.8581 
        1.05541         353.457         64.0038 
        1.06154         347.482         63.1629 
        1.06769         346.426          62.336 
        1.07382         343.834         61.5267 
        1.07993         342.205         60.7339 
        1.08607         341.264         59.9518 
        1.09222         337.564         59.1829 
        1.09836          335.59         58.4285 
        1.10449         332.942         57.6882 
        1.11063         329.315         56.9601 
        1.11677         330.014          56.245 
         1.1229         327.392         55.5435 
        1.12903         325.304         54.8534 
        1.13518         322.056         54.1746 
        1.14131          320.76         53.5078 
        1.14745         318.956         52.8526 
        1.15359          316.98         52.2084 
        1.15973         315.041         51.5748 
        1.16584         312.679         50.9546 
        1.17197         312.443         50.3438 
        1.17811         308.773         49.7413 
        1.18424         306.448         49.1504 
        1.19038         305.639         48.5675 
        1.19652         303.372         47.9944 
        1.20267         302.326         47.4305 
        1.20881         300.219          46.876 
        1.21495         297.917         46.3312 
        1.22108         296.274         45.7952 
         1.2272          294.51          45.269 
        1.23334          293.07           44.75 
        1.23949         290.391         44.2379 
        1.24562         289.593         43.7353 
        1.25174         287.703         43.2413 
        1.25789         285.207         42.7535 
        1.26402         283.296         42.2742 
        1.27014         281.651         41.8034 
        1.27628         279.962         41.3385 
        1.28244         279.786         40.8798 
        1.28858         277.031         40.4287 
        1.29471          275.61         39.9855 
        1.30084         273.437         39.5494 
        1.30697          272.35         39.1192 
        1.31312         269.496         38.6949 
        1.31925         268.429         38.2782 
        1.32537          267.72         37.8681 
        1.33151         265.187         37.4626 
        1.33765          263.19         37.0634 
        1.34378          262.52         36.6708 
        1.34992         260.941         36.2836 
        1.35606         260.032         35.9013 
         1.3622         257.702         35.5252 
        1.36833         256.006         35.1554 
        1.37445         254.671         34.7911 
        1.38059           252.6         34.4309 
        1.38675         251.616          34.075 
        1.39288         250.305         33.7255 
        1.39901         249.088         33.3812 
        1.40515         247.455         33.0409 
         1.4113         246.099         32.7055 
        1.41742         244.138          32.376 
        1.42355         243.102         32.0506 
         1.4297         241.113         31.7286 
        1.43585         239.992         31.4112 
        1.44198         239.141         31.0994 
        1.44809         237.267         30.7925 
        1.45423         235.993         30.4885 
        1.46036           234.7         30.1893 
        1.46649         233.109          29.894 
        1.47263         231.963         29.6025 
        1.47877          230.25         29.3149 
        1.48491         228.241         29.0308 
        1.49104         227.675         28.7511 
        1.49718         225.924         28.4749 
        1.50333          225.19         28.2018 
        1.50947         223.674          27.933 
         1.5156          221.78         27.6681 
        1.52172         220.983         27.4066 
        1.52787         219.265          27.148 
          1.534         218.705         26.8931 
        1.54013         216.787         26.6417 
        1.54627         215.783         26.3931 
        1.55241         214.625         26.1477 
        1.55855         212.801         25.9058 
        1.56467         212.016         25.6676 
         1.5708         211.148         25.4317 
        1.57695         209.761         25.1985 
        1.58308         208.498         24.9688 
        1.58922         206.641         24.7418 
        1.59535         205.254         24.5177 
         1.6015          204.64         24.2961 
        1.60764         203.468         24.0773 
        1.61376         202.417         23.8619 
        1.61989         201.351         23.6489 
        1.62604         199.835         23.4381 
        1.63218         199.026           23.23 
        1.63831         197.465         23.0249 
        1.64444         196.657         22.8222 
        1.65059          195.64         22.6215 
        1.65673         194.331         22.4235 
        1.66285         192.892         22.2284 
        1.66898         192.045         22.0355 
        1.67512         191.373         21.8446 
        1.68127          189.39         21.6558 
         1.6874         188.713         21.4696 
        1.69353          187.54         21.2858 
        1.69967         186.159         21.1037 
        1.70581         185.467         20.9238 
        1.71193         184.002         20.7467 
        1.71806         183.439         20.5713 
        1.72421          182.13         20.3975 
        1.73035         181.371          20.226 
        1.73649         180.293         20.0565 
        1.74262         179.207         19.8892 
        1.74876         177.963         19.7236 
        1.75489         177.184         19.5602 
        1.76101         175.608         19.3988 
        1.76715         175.304         19.2389 
        1.77329         174.055         19.0807 
        1.77943         173.369         18.9242 
        1.78557         172.194         18.7697 
        1.79171         171.446         18.6169 
        1.79785         170.079         18.4658 
        1.80399          169.27         18.3164 
        1.81012         168.318         18.1689 
        1.81625         167.701         18.0231 
        1.82239          166.32         17.8787 
        1.82853         165.852         17.7359 
        1.83466         164.638         17.5948 
        1.84078         163.906         17.4554 
        1.84692         162.469         17.3173 
        1.85306         162.057         17.1806 
         1.8592         161.003         17.0455 
        1.86533         160.408          16.912 
        1.87147          159.15         16.7798 
        1.87761         158.161         16.6489 
        1.88375         157.269         16.5196 
        1.88988          155.92         16.3918 
        1.89601          155.73         16.2653 
        1.90215         154.669           16.14 
        1.90829         153.716         16.0161 
        1.91442         153.101         15.8936 
        1.92056         152.096         15.7724 
         1.9267         151.165         15.6523 
        1.93284          150.15         15.5335 
        1.93897         149.719         15.4161 
        1.94509         148.852         15.3002 
        1.95123         148.105         15.1851 
        1.95737         147.192         15.0712 
        1.96349          146.37         14.9588 
        1.96964         145.393         14.8472 
        1.97578         144.609         14.7367 
        1.98192         143.913         14.6275 
        1.98805         143.174         14.5194 
        1.99419         142.203         14.4125 
        2.00033         141.537         14.3065 
        2.00647         140.782         14.2017 
         2.0126         139.767         14.0981 
        2.01874          139.21         13.9953 
        2.02488         138.791         13.8936 
        2.03101         137.344          13.793 
        2.03714         136.998         13.6935 
        2.04328         135.961         13.5949 
        2.04941         135.541         13.4973 
        2.05554         134.456         13.4008 
        2.06167         134.021         13.3051 
        2.06781         133.022         13.2103 
        2.07396         132.479         13.1163 
        2.08009         131.743         13.0234 
        2.08622         130.749         12.9315 
        2.09237         130.292         12.8403 
        2.09851          129.56           12.75 
        2.10464         129.115         12.6607 
        2.11077         128.348         12.5723 
        2.11691         127.657         12.4847 
        2.12305         126.897         12.3978 
        2.12918         126.058          12.312 
        2.13531         125.481          12.227 
        2.14145         124.704         12.1426 
         2.1476         123.777          12.059 
        2.15372         123.637         11.9765 
        2.15985         122.912         11.8947 
        2.16599         122.004         11.8135 
        2.17213         121.442         11.7331 
        2.17827         120.754         11.6534 
         2.1844         120.005         11.5746 
        2.19054         119.577         11.4965 
        2.19666         118.734         11.4193 
         2.2028          118.06         11.3426 
        2.20893         117.748         11.2667 
        2.21508         116.904         11.1913 
        2.22122         116.283         11.1166 
        2.22736         115.753         11.0428 
        2.23349         115.193         10.9697 
        2.23962         114.556         10.8971 
        2.24577          113.83         10.8252 
         2.2519         113.416          10.754 
        2.25802         112.483         10.6836 
        2.26417         112.211         10.6136 
        2.27031         111.363         10.5442 
        2.27644         110.902         10.4756 
        2.28257          110.15         10.4077 
        2.28872         109.754         10.3402 
        2.29486         109.031         10.2733 
        2.30099         108.472         10.2071 
        2.30712         107.894         10.1416 
        2.31326         107.301         10.0764 
         2.3194          106.78         10.0119 
        2.32553         106.191         9.94808 
        2.33166         105.622         9.88483 
         2.3378          105.32         9.82205 
        2.34394         104.646         9.75979 
        2.35007         103.965         9.69816 
        2.35619         103.542         9.63714 
        2.36233         103.003         9.57651 
        2.36848         102.407         9.51627 
        2.37462         101.997         9.45668 
        2.38075         101.247         9.39766 
        2.38689          100.79         9.33909 
        2.39303         100.198         9.28104 
        2.39916         99.8521         9.22355 
        2.40529         99.5671         9.16654 
        2.41143         98.8282         9.10998 
        2.41757         98.2252         9.05388 
         2.4237         97.6746         8.99835 
        2.42983         97.1452          8.9433 
        2.43598         96.6111         8.88856 
        2.44211          96.382         8.83437 
        2.44823         95.7903         8.78076 
        2.45437         95.1316         8.72745 
        2.46052          94.517         8.67454 
        2.46665         94.3468         8.62216 
        2.47279         93.7542         8.57023 
        2.47892         93.2366          8.5187 
        2.48507         92.8295         8.46755 
         2.4912          92.433         8.41691 
