# k  (h/Mpc)    P(k)  (Mpc/h)^3    P_linear(k)  (Mpc/h)^3
     0.00783031         821.637         822.583 
       0.013688         1102.83         1094.95 
       0.019231         1191.88         1181.84 
      0.0249154         1167.65         1164.03 
      0.0312784         1086.35          1078.7 
      0.0375637          985.16         975.175 
      0.0433917         892.733         887.379 
      0.0492413         823.489         816.262 
      0.0555754         760.212         757.483 
      0.0619321         718.901         710.359 
       0.067871         672.472         669.434 
      0.0738098         628.597         626.347 
      0.0800417          577.41         577.143 
      0.0862327         528.165         526.179 
      0.0921407         482.219         479.288 
      0.0982031         438.249         436.579 
       0.104506         404.891         400.299 
       0.110769         376.639         372.634 
       0.116806         353.967         352.303 
       0.122832         338.793         335.723 
       0.129052         320.921         319.839 
       0.135211         304.115         303.374 
       0.141259         287.861         285.755 
       0.147318         270.257         267.076 
       0.153489         250.289         248.165 
       0.159709         233.173         230.588 
       0.165845          220.21         215.681 
       0.171974         206.293          203.54 
       0.178125          196.74          193.81 
       0.184229         189.325         185.852 
        0.19034          180.17         178.694 
       0.196428         174.377         171.604 
       0.202534         168.119          164.09 
       0.208729         159.271         155.996 
       0.214876         150.159         147.769 
       0.220989         144.087         139.825 
       0.227147         135.113         132.476 
        0.23329         128.927         126.057 
       0.239377         124.073         120.637 
       0.245482         118.397         115.995 
       0.251667         115.439         111.841 
       0.257832         111.361         107.952 
       0.263955         107.472         104.109 
       0.270079         103.678         100.173 
        0.27624         100.532         96.1232 
       0.282372         96.3979         92.1045 
        0.28843         92.1824         88.2801 
       0.294538           88.64         84.6919 
       0.300721         86.1088         81.4062 
        0.30691         82.5026         78.4663 
       0.313033          79.999         75.8511 
       0.319153         76.5782         73.4379 
       0.325316         75.4067          71.121 
        0.33145         72.8378         68.8556 
       0.337538         70.8207         66.6162 
       0.343633         68.4149          64.384 
       0.349808         66.3962         62.1651 
       0.355968         64.3315         60.0348 
       0.362074         62.2919           58.04 
       0.368217         60.5291          56.173 
       0.374374         58.5784         54.4376 
       0.380519          57.166         52.8262 
       0.386598         55.6974         51.3213 
       0.392688         54.4746         49.8738 
        0.39888         52.9243         48.4431 
       0.405048         51.6811         47.0451 
       0.411186         50.4776         45.6818 
       0.417313         48.7641         44.3571 
       0.423458         47.6055         43.0745 
       0.429607         46.2733         41.8479 
       0.435692         44.9549         40.6967 
       0.441815         44.1122         39.5978 
       0.447964         43.3809         38.5496 
       0.454126         41.8485         37.5466 
       0.460267         41.0093         36.5839 
       0.466387         39.8482         35.6528 
        0.47254         39.2351         34.7424 
       0.478662         38.4785         33.8608 
       0.484765         37.4485         33.0063 
       0.490885         36.5611         32.1772 
       0.497035         36.0865         31.3747 
       0.503198         35.1809         30.6028 
       0.509342         34.3414         29.8636 
       0.515458         33.6033         29.1566 
       0.521598         33.0289         28.4732 
       0.527764         32.3063           27.81 
       0.533884         31.7556         27.1717 
           0.54         31.1271         26.5516 
       0.546137         30.5784         25.9469 
       0.552299         30.0601         25.3576 
       0.558452         29.1517         24.7871 
       0.564573          28.798         24.2371 
       0.570708         28.3038         23.7036 
       0.576825         27.5831         23.1893 
       0.582926         27.1531         22.6934 
       0.589034         26.4107         22.2126 
       0.595184         26.0595          21.743 
       0.601379         25.5794         21.2836 
       0.607522         25.1958         20.8407 
       0.613639         24.9226         20.4119 
       0.619772         24.2843          19.994 
       0.625918         24.1112          19.587 
       0.632068         23.7164         19.1912 
       0.638161         23.2011         18.8102 
         0.6443         22.7433         18.4372 
       0.650464         22.3313         18.0733 
       0.656582         22.1709         17.7222 
       0.662703         21.7833         17.3807 
       0.668861         21.4062         17.0466 
       0.675024         21.0134         16.7211 
       0.681124         20.6683         16.4074 
       0.687237         20.3685          16.101 
       0.693381         20.1396          15.801 
       0.699536         19.6097         15.5081 
       0.705665         19.4451          15.224 
       0.711789         19.1281         14.9475 
       0.717957          18.848         14.6761 
        0.72409         18.5544         14.4132 
       0.730186         18.3229         14.1584 
       0.736317         18.1385         13.9086 
       0.742472         17.8571          13.664 
       0.748622         17.5992         13.4256 
        0.75476         17.2414         13.1935 
       0.760888         17.0781         12.9671 
       0.767043         16.8745         12.7453 
       0.773185         16.5491         12.5291 
       0.779291         16.4321         12.3193 
       0.785407         16.1883          12.114 
       0.791564          15.924         11.9122 
       0.797719         15.6856         11.7152 
       0.803834         15.5742         11.5239 
       0.809972         15.4364         11.3363 
       0.816124         15.1068         11.1526 
       0.822261         14.9402         10.9735 
       0.828378         14.7628         10.7989 
       0.834502         14.6255          10.628 
       0.840667         14.3982         10.4598 
       0.846816         14.1709         10.2957 
       0.852925         14.0487         10.1362 
       0.859047         13.8838         9.97981 
       0.865192          13.772         9.82625 
       0.871341         13.6293         9.67586 
       0.877463         13.4279         9.52934 
       0.883569         13.2185         9.38628 
       0.889708         13.0175         9.24545 
       0.895864           12.95          9.1072 
       0.902008         12.8043          8.9721 
       0.908149         12.6664         8.83985 
       0.914301         12.5023          8.7101 
       0.920448         12.3168          8.5831 
       0.926574         12.1875         8.45912 
       0.932687         12.0964         8.33788 
       0.938823         11.9349         8.21862 
       0.944975         11.7839         8.10144 
       0.951105         11.6925         7.98699 
       0.957225         11.6232         7.87498 
       0.963368         11.4712         7.76476 
       0.969511         11.3592         7.65668 
       0.975621         11.2195         7.55126 
       0.981748         11.1099         7.44758 
       0.987916         11.0145         7.34522 
        0.99406         10.8485         7.24518 
        1.00019         10.6974         7.14724 
        1.00632         10.6821         7.05121 
        1.01246         10.5661         6.95682 
        1.01859         10.4241         6.86433 
        1.02471         10.3367         6.77366 
        1.03085         10.2462         6.68433 
        1.03698         10.1065         6.59682 
        1.04314         10.0378         6.51052 
        1.04929         9.90635         6.42599 
        1.05541          9.8104         6.34331 
        1.06154           9.729         6.26191 
        1.06769         9.68696         6.18182 
        1.07382         9.53721         6.10342 
        1.07993         9.45303         6.02657 
        1.08607          9.3917         5.95074 
        1.09222         9.30325         5.87615 
        1.09836         9.21758         5.80294 
        1.10449         9.12563         5.73108 
        1.11063         9.05534         5.66037 
        1.11677         8.98126          5.5909 
         1.1229         8.90275         5.52272 
        1.12903          8.8181         5.45563 
        1.13518         8.72802         5.38962 
        1.14131         8.63109         5.32475 
        1.14745         8.54082         5.26099 
        1.15359         8.50143         5.19828 
        1.15973          8.4237         5.13657 
        1.16584         8.33103         5.07616 
        1.17197          8.2694         5.01664 
        1.17811         8.21352          4.9579 
        1.18424         8.16305         4.90028 
        1.19038         8.10244         4.84343 
        1.19652         8.02718          4.7875 
        1.20267         7.93383         4.73247 
        1.20881         7.89666         4.67832 
        1.21495         7.83267         4.62512 
        1.22108         7.75174         4.57276 
         1.2272         7.72222         4.52134 
        1.23334         7.62029          4.4706 
        1.23949         7.56356         4.42053 
        1.24562         7.53308         4.37137 
        1.25174         7.44426         4.32303 
        1.25789           7.398         4.27529 
        1.26402         7.34107         4.22836 
        1.27014         7.27581         4.18226 
        1.27628         7.23254         4.13671 
        1.28244         7.14765         4.09176 
        1.28858         7.12769         4.04754 
        1.29471         7.05943         4.00408 
        1.30084         6.99514         3.96131 
        1.30697          6.9951          3.9191 
        1.31312         6.86571         3.87745 
        1.31925         6.84915         3.83655 
        1.32537         6.79541         3.79628 
        1.33151         6.76564         3.75645 
        1.33765         6.68116         3.71722 
        1.34378         6.63359         3.67864 
        1.34992         6.61056         3.64058 
        1.35606         6.54178         3.60298 
         1.3622         6.51331         3.56599 
        1.36833         6.46622         3.52961 
        1.37445         6.42319         3.49376 
        1.38059         6.39054          3.4583 
        1.38675         6.34359         3.42325 
        1.39288         6.28763         3.38884 
        1.39901         6.23287         3.35492 
        1.40515         6.20243         3.32139 
         1.4113         6.16293         3.28833 
        1.41742         6.12318         3.25586 
        1.42355         6.07796         3.22377 
         1.4297         6.02202         3.19201 
        1.43585          6.0068          3.1607 
        1.44198         5.98007         3.12994 
        1.44809         5.90946         3.09964 
        1.45423         5.87069         3.06964 
        1.46036         5.83357         3.04009 
        1.46649         5.78541         3.01092 
        1.47263         5.74899         2.98212 
        1.47877         5.70548         2.95371 
        1.48491         5.67357         2.92562 
        1.49104         5.64983         2.89797 
        1.49718         5.60992         2.87065 
        1.50333         5.57682         2.84365 
        1.50947         5.54112         2.81705 
         1.5156         5.50708         2.79084 
        1.52172         5.47796         2.76496 
        1.52787         5.44227         2.73936 
          1.534         5.40353         2.71411 
        1.54013         5.37776         2.68922 
        1.54627         5.32611         2.66459 
        1.55241         5.29728         2.64027 
        1.55855         5.27923         2.61629 
        1.56467         5.24264         2.59268 
         1.5708         5.20374          2.5693 
        1.57695         5.16996         2.54617 
        1.58308         5.13706         2.52338 
        1.58922         5.12256         2.50085 
        1.59535         5.08901         2.47861 
         1.6015         5.05736         2.45662 
        1.60764         5.02784          2.4349 
        1.61376         4.99734         2.41351 
        1.61989         4.96987         2.39236 
        1.62604         4.93517         2.37141 
        1.63218         4.92225         2.35074 
        1.63831         4.88436         2.33036 
        1.64444         4.85511         2.31021 
        1.65059         4.82216         2.29026 
        1.65673         4.80252         2.27057 
        1.66285         4.76455         2.25116 
        1.66898          4.7497         2.23198 
        1.67512         4.71256         2.21298 
        1.68127         4.68986         2.19419 
         1.6874         4.67181         2.17566 
        1.69353         4.62771         2.15736 
        1.69967         4.61313         2.13923 
        1.70581         4.59446         2.12132 
        1.71193         4.56782         2.10368 
        1.71806         4.54506          2.0862 
        1.72421         4.51737         2.06889 
        1.73035         4.49741          2.0518 
        1.73649         4.46597          2.0349 
        1.74262         4.43821         2.01821 
        1.74876         4.43351          2.0017 
        1.75489         4.40236         1.98541 
        1.76101         4.37018         1.96931 
        1.76715         4.35197         1.95336 
        1.77329          4.3312         1.93757 
        1.77943         4.29646         1.92196 
        1.78557         4.28763         1.90653 
        1.79171         4.26146         1.89128 
        1.79785         4.23689         1.87619 
        1.80399          4.2195         1.86127 
        1.81012         4.20518         1.84653 
        1.81625         4.17229         1.83196 
        1.82239         4.15058         1.81753 
        1.82853         4.12847         1.80326 
        1.83466          4.1197         1.78916 
        1.84078         4.09459         1.77522 
        1.84692         4.07772         1.76141 
        1.85306         4.04716         1.74774 
         1.8592         4.02817         1.73423 
        1.86533         4.01107         1.72087 
        1.87147         3.99665         1.70764 
        1.87761         3.97592         1.69454 
        1.88375         3.94747          1.6816 
        1.88988         3.93146         1.66881 
        1.89601         3.91551         1.65614 
        1.90215         3.89134          1.6436 
        1.90829          3.8735         1.63119 
        1.91442         3.85936         1.61891 
        1.92056         3.83421         1.60677 
         1.9267         3.82462         1.59474 
        1.93284         3.80509         1.58283 
        1.93897         3.78445         1.57106 
        1.94509         3.75797         1.55944 
        1.95123         3.74183         1.54791 
        1.95737         3.72419         1.53649 
        1.96349         3.71223         1.52521 
        1.96964         3.70237         1.51401 
        1.97578         3.67874         1.50293 
        1.98192         3.66471         1.49197 
        1.98805         3.64613         1.48113 
        1.99419         3.62854         1.47039 
        2.00033         3.62224         1.45976 
        2.00647         3.59761         1.44923 
         2.0126         3.58565         1.43883 
        2.01874         3.55778         1.42851 
        2.02488         3.54842         1.41829 
        2.03101         3.52613         1.40818 
        2.03714         3.51021         1.39819 
        2.04328         3.49941         1.38828 
        2.04941         3.47443         1.37847 
        2.05554         3.46992         1.36877 
        2.06167         3.45045         1.35915 
        2.06781         3.44126         1.34962 
        2.07396         3.42769         1.34017 
        2.08009          3.4081         1.33083 
        2.08622         3.38728         1.32158 
        2.09237         3.38579         1.31241 
        2.09851         3.36696         1.30332 
        2.10464         3.35207         1.29434 
        2.11077         3.33605         1.28545 
        2.11691         3.32177         1.27662 
        2.12305         3.31178         1.26788 
        2.12918         3.30017         1.25924 
        2.13531         3.28374         1.25068 
        2.14145         3.26785         1.24218 
         2.1476         3.25281         1.23376 
        2.15372         3.23968         1.22545 
        2.15985         3.22543         1.21721 
        2.16599         3.21179         1.20902 
        2.17213         3.19806         1.20092 
        2.17827         3.18671          1.1929 
         2.1844         3.17399         1.18495 
        2.19054         3.16421         1.17708 
        2.19666         3.14684         1.16929 
         2.2028         3.13369         1.16156 
        2.20893         3.12054          1.1539 
        2.21508         3.10829          1.1463 
        2.22122         3.09377         1.13877 
        2.22736         3.07936         1.13132 
        2.23349         3.07396         1.12394 
        2.23962         3.05592         1.11662 
        2.24577         3.04474         1.10936 
         2.2519         3.03354         1.10218 
        2.25802         3.02671         1.09507 
        2.26417         3.01111         1.08801 
        2.27031         3.00001           1.081 
        2.27644         2.98911         1.07407 
        2.28257         2.97442          1.0672 
        2.28872          2.9633         1.06039 
        2.29486         2.95588         1.05363 
        2.30099         2.94061         1.04695 
        2.30712         2.92664         1.04032 
        2.31326         2.92125         1.03374 
         2.3194         2.90589         1.02722 
        2.32553         2.89647         1.02077 
        2.33166         2.88473         1.01437 
         2.3378         2.87357         1.00802 
        2.34394         2.86282         1.00173 
        2.35007         2.85051        0.995496 
        2.35619         2.84676        0.989325 
        2.36233         2.83168        0.983192 
        2.36848         2.82087        0.977098 
        2.37462         2.81133        0.971069 
        2.38075         2.79944        0.965097 
        2.38689         2.78959        0.959171 
        2.39303         2.78155        0.953296 
        2.39916         2.76885        0.947476 
        2.40529         2.75892        0.941706 
        2.41143         2.74847         0.93598 
        2.41757         2.73718        0.930299 
         2.4237         2.72873        0.924676 
        2.42983         2.71313          0.9191 
        2.43598         2.71405        0.913556 
        2.44211          2.6979        0.908067 
        2.44823         2.69134        0.902635 
        2.45437         2.67971        0.897234 
        2.46052         2.66891        0.891872 
        2.46665         2.66362        0.886564 
        2.47279         2.65201        0.881301 
        2.47892          2.6428        0.876078 
        2.48507         2.63579        0.870892 
         2.4912         2.62176        0.865759 
