# k  (h/Mpc)    Pcb(k)  (Mpc/h)^3    Pcb_linear(k)  (Mpc/h)^3
     0.00783031         3685.73         3724.55 
       0.013688          4971.7          4959.1 
       0.019231         5353.58         5353.34 
      0.0249154         5211.93         5273.02 
      0.0312784         4857.66         4886.71 
      0.0375637          4413.6         4417.87 
      0.0433917         3975.54          4020.2 
      0.0492413         3677.75         3698.06 
      0.0555754         3370.38          3431.8 
      0.0619321          3216.8         3218.33 
       0.067871          2982.3         3032.93 
      0.0738098         2785.76         2837.74 
      0.0800417         2547.14         2614.82 
      0.0862327         2337.77         2383.93 
      0.0921407         2143.32         2171.49 
      0.0982031         1943.87         1977.99 
       0.104506         1812.74         1813.62 
       0.110769         1685.28         1688.29 
       0.116806          1579.5         1596.17 
       0.122832         1514.54         1521.06 
       0.129052         1424.51         1449.09 
       0.135211         1351.99          1374.5 
       0.141259         1287.09         1294.67 
       0.147318         1212.29         1210.05 
       0.153489         1119.68         1124.36 
       0.159709         1052.14         1044.73 
       0.165845         1003.18         977.191 
       0.171974         940.165         922.181 
       0.178125         897.154         878.097 
       0.184229         865.336         842.046 
        0.19034         814.935         809.614 
       0.196428         798.024         777.492 
       0.202534         772.731         743.447 
       0.208729         733.728         706.777 
       0.214876         692.609         669.503 
       0.220989         671.486         633.508 
       0.227147         630.754         600.215 
        0.23329         605.396         571.132 
       0.239377          589.91         546.575 
       0.245482         555.108         525.545 
       0.251667         548.079          506.72 
       0.257832         530.326           489.1 
       0.263955         512.452         471.692 
       0.270079         495.925         453.857 
        0.27624         487.256         435.509 
       0.282372         466.962         417.301 
        0.28843         451.222         399.975 
       0.294538         432.804         383.717 
       0.300721         427.743          368.83 
        0.30691         408.845         355.511 
       0.313033         399.367         343.661 
       0.319153          384.31         332.728 
       0.325316         375.596         322.231 
        0.33145         364.298         311.967 
       0.337538         359.354          301.82 
       0.343633         347.945         291.707 
       0.349808         337.827         281.654 
       0.355968         331.864         272.002 
       0.362074         323.204         262.965 
       0.368217         315.179         254.505 
       0.374374         305.788         246.643 
       0.380519         299.854         239.342 
       0.386598         292.852         232.523 
       0.392688         289.196         225.965 
        0.39888         281.772         219.482 
       0.405048         276.295          213.15 
       0.411186         270.476         206.973 
       0.417313         264.714          200.97 
       0.423458         259.705         195.159 
       0.429607         253.537         189.602 
       0.435692         246.222         184.386 
       0.441815         244.812         179.407 
       0.447964         241.011         174.659 
       0.454126         231.144         170.114 
       0.460267         228.664         165.752 
       0.466387         225.391         161.534 
        0.47254         221.513         157.409 
       0.478662         219.047         153.414 
       0.484765          213.78         149.543 
       0.490885         210.407         145.786 
       0.497035         207.786         142.151 
       0.503198         202.454         138.653 
       0.509342          199.44         135.304 
       0.515458         196.823         132.101 
       0.521598         194.751         129.005 
       0.527764         191.622             126 
       0.533884          188.36         123.108 
           0.54         185.823         120.298 
       0.546137         184.463         117.559 
       0.552299         181.702         114.889 
       0.558452         177.889         112.304 
       0.564573         174.741         109.812 
       0.570708         172.953         107.395 
       0.576825          170.36         105.065 
       0.582926         167.956         102.818 
       0.589034         164.766          100.64 
       0.595184         163.439         98.5121 
       0.601379         162.025         96.4307 
       0.607522         158.105         94.4239 
       0.613639         158.121          92.481 
       0.619772         154.411         90.5875 
       0.625918         153.302         88.7435 
       0.632068         151.539         86.9506 
       0.638161          149.93         85.2244 
         0.6443         147.925         83.5341 
       0.650464         146.155         81.8853 
       0.656582         144.774         80.2948 
       0.662703         142.118         78.7477 
       0.668861         141.022         77.2337 
       0.675024         139.356         75.7589 
       0.681124         137.922         74.3376 
       0.687237         135.651         72.9496 
       0.693381         134.294         71.5903 
       0.699536         132.758         70.2634 
       0.705665         133.455         68.9762 
       0.711789         129.968         67.7232 
       0.717957         129.452         66.4936 
        0.72409         127.582         65.3023 
       0.730186         125.581         64.1483 
       0.736317         125.433         63.0165 
       0.742472          123.91         61.9083 
       0.748622         123.184         60.8281 
        0.75476           121.8         59.7762 
       0.760888          120.33         58.7508 
       0.767043         119.135         57.7457 
       0.773185         117.918         56.7663 
       0.779291         117.056         55.8155 
       0.785407         116.184         54.8855 
       0.791564         114.632         53.9711 
       0.797719         113.312         53.0784 
       0.803834         112.934         52.2119 
       0.809972         111.102          51.362 
       0.816124         110.371         50.5294 
       0.822261         109.684         49.7179 
       0.828378         108.611         48.9269 
       0.834502         107.609         48.1527 
       0.840667          106.83         47.3905 
       0.846816          105.76         46.6471 
       0.852925         104.635         45.9245 
       0.859047         103.432          45.216 
       0.865192         103.334         44.5202 
       0.871341         102.469         43.8388 
       0.877463         100.903          43.175 
       0.883569         100.393         42.5268 
       0.889708         99.9342         41.8888 
       0.895864         98.9529         41.2624 
       0.902008         98.2823         40.6503 
       0.908149         97.5759         40.0511 
       0.914301         96.6415         39.4632 
       0.920448           95.79         38.8879 
       0.926574         95.3182         38.3261 
       0.932687         94.6042         37.7768 
       0.938823          93.331         37.2364 
       0.944975         93.1945         36.7055 
       0.951105         92.2437          36.187 
       0.957225         91.2056         35.6795 
       0.963368         90.8616         35.1802 
       0.969511         90.3548         34.6905 
       0.975621         89.7392         34.2128 
       0.981748         88.7962         33.7431 
       0.987916         88.4305         33.2793 
        0.99406         88.0115         32.8261 
        1.00019          86.689         32.3823 
        1.00632         86.5309         31.9472 
        1.01246         85.6587         31.5196 
        1.01859         84.8645         31.1005 
        1.02471         85.1494         30.6897 
        1.03085         84.1643          30.285 
        1.03698         83.3412         29.8885 
        1.04314         82.5468         29.4975 
        1.04929         82.4189         29.1145 
        1.05541         81.6367         28.7399 
        1.06154         81.3662         28.3711 
        1.06769         80.6472         28.0082 
        1.07382         80.2252          27.653 
        1.07993         79.9953         27.3048 
        1.08607         79.2016         26.9613 
        1.09222          78.917         26.6233 
        1.09836         78.2424         26.2916 
        1.10449         77.8102         25.9661 
        1.11063         76.9094         25.6457 
        1.11677         76.6386         25.3309 
         1.1229         76.3946          25.022 
        1.12903         75.3983         24.7181 
        1.13518         75.3533          24.419 
        1.14131         75.1034         24.1251 
        1.14745         74.1887         23.8362 
        1.15359         73.9051         23.5521 
        1.15973         73.2351         23.2725 
        1.16584          72.803         22.9988 
        1.17197         72.5901         22.7291 
        1.17811          72.063          22.463 
        1.18424          71.434         22.2019 
        1.19038         71.3778         21.9443 
        1.19652         70.9073         21.6909 
        1.20267         70.4014         21.4416 
        1.20881         69.9329         21.1963 
        1.21495         69.5011         20.9552 
        1.22108         69.0583          20.718 
         1.2272         68.4768          20.485 
        1.23334         68.2486         20.2551 
        1.23949         67.9625         20.0283 
        1.24562         67.6547         19.8055 
        1.25174         67.2225         19.5866 
        1.25789         66.8922         19.3702 
        1.26402         66.4304         19.1576 
        1.27014         65.9122         18.9487 
        1.27628          65.674         18.7424 
        1.28244         65.1859         18.5387 
        1.28858         64.9186         18.3384 
        1.29471          64.662         18.1415 
        1.30084         64.2619         17.9477 
        1.30697         63.7325         17.7564 
        1.31312         63.3083         17.5677 
        1.31925         63.2068         17.3824 
        1.32537         62.8354            17.2 
        1.33151         62.4633         17.0195 
        1.33765         62.3215         16.8418 
        1.34378         62.0056          16.667 
        1.34992         61.1191         16.4945 
        1.35606         60.9959         16.3242 
         1.3622         60.6183         16.1566 
        1.36833         60.4639         15.9917 
        1.37445         60.2852         15.8293 
        1.38059         60.0113         15.6687 
        1.38675         59.5804         15.5099 
        1.39288         59.2608          15.354 
        1.39901         58.8118         15.2003 
        1.40515         58.5569         15.0483 
         1.4113         58.4482         14.8986 
        1.41742         57.7898         14.7515 
        1.42355         57.8249         14.6061 
         1.4297         57.3496         14.4622 
        1.43585          57.275         14.3203 
        1.44198         56.8411         14.1809 
        1.44809         56.5367         14.0437 
        1.45423         56.3757         13.9077 
        1.46036         56.0491         13.7739 
        1.46649         55.7707         13.6417 
        1.47263         55.5044         13.5112 
        1.47877         55.2364         13.3825 
        1.48491         54.9319         13.2552 
        1.49104         54.7033         13.1299 
        1.49718         54.2688         13.0062 
        1.50333         54.0935         12.8838 
        1.50947         53.7612         12.7633 
         1.5156         53.5167         12.6446 
        1.52172         53.2358         12.5273 
        1.52787         53.1671         12.4113 
          1.534         52.7893         12.2969 
        1.54013         52.4525         12.1841 
        1.54627         52.4029         12.0726 
        1.55241         52.0766         11.9624 
        1.55855          51.797         11.8537 
        1.56467         51.4798         11.7468 
         1.5708         51.2981         11.6408 
        1.57695         50.9561          11.536 
        1.58308          50.969         11.4328 
        1.58922         50.6295         11.3307 
        1.59535         50.2634           11.23 
         1.6015         50.1035         11.1303 
        1.60764         49.9654         11.0319 
        1.61376         49.7334          10.935 
        1.61989           49.24         10.8391 
        1.62604         49.1584         10.7443 
        1.63218         48.8106         10.6506 
        1.63831         48.6873         10.5582 
        1.64444         48.5181          10.467 
        1.65059         48.1044         10.3766 
        1.65673         47.9975         10.2873 
        1.66285         47.8125         10.1994 
        1.66898         47.4553         10.1125 
        1.67512         47.2893         10.0264 
        1.68127         46.9848         9.94132 
         1.6874         46.9363         9.85737 
        1.69353         46.6725         9.77445 
        1.69967         46.4799          9.6923 
        1.70581         46.2091         9.61113 
        1.71193         45.9014         9.53121 
        1.71806         45.8179         9.45203 
        1.72421         45.5119          9.3736 
        1.73035         45.4436         9.29616 
        1.73649         45.1731         9.21962 
        1.74262         44.9055         9.14401 
        1.74876         44.8068          9.0692 
        1.75489         44.4789         8.99538 
        1.76101         44.3071         8.92242 
        1.76715         44.1213         8.85017 
        1.77329         43.9556         8.77865 
        1.77943          43.769         8.70788 
        1.78557         43.5484         8.63801 
        1.79171         43.3184         8.56889 
        1.79785          43.186         8.50052 
        1.80399         42.9919         8.43292 
        1.81012         42.8104         8.36615 
        1.81625         42.5806         8.30014 
        1.82239         42.4207         8.23475 
        1.82853         42.0739         8.17009 
        1.83466         41.9337          8.1062 
        1.84078          41.677         8.04307 
        1.84692         41.6591         7.98051 
        1.85306         41.3311         7.91854 
         1.8592         41.2487         7.85733 
        1.86533         40.9696         7.79681 
        1.87147         40.8732         7.73687 
        1.87761          40.796         7.67753 
        1.88375         40.4945         7.61888 
        1.88988         40.4371         7.56092 
        1.89601         40.1643         7.50353 
        1.90215         40.0259          7.4467 
        1.90829         39.8565         7.39049 
        1.91442         39.6333         7.33485 
        1.92056         39.4922         7.27985 
         1.9267         39.2862         7.22535 
        1.93284         39.1088         7.17138 
        1.93897         38.9627         7.11807 
        1.94509         38.8149         7.06542 
        1.95123         38.6184         7.01318 
        1.95737         38.4174         6.96142 
        1.96349         38.2634         6.91033 
        1.96964         38.0278          6.8596 
        1.97578         37.9473         6.80937 
        1.98192         37.7401         6.75974 
        1.98805         37.6002         6.71061 
        1.99419         37.3945         6.66196 
        2.00033         37.2101         6.61378 
        2.00647         37.0965         6.56609 
         2.0126         36.8759         6.51895 
        2.01874         36.7709         6.47221 
        2.02488         36.7041         6.42589 
        2.03101         36.5323         6.38011 
        2.03714         36.2507         6.33482 
        2.04328          36.107         6.28992 
        2.04941         35.9682          6.2455 
        2.05554         35.8648         6.20155 
        2.06167         35.6702         6.15795 
        2.06781         35.5318         6.11478 
        2.07396         35.3356         6.07196 
        2.08009         35.3181         6.02962 
        2.08622         35.0842         5.98774 
        2.09237         35.0095         5.94618 
        2.09851         34.7844         5.90501 
        2.10464         34.6606          5.8643 
        2.11077         34.4596         5.82402 
        2.11691         34.4462         5.78404 
        2.12305         34.1922         5.74443 
        2.12918         34.1151         5.70529 
        2.13531          33.968         5.66651 
        2.14145         33.8122         5.62801 
         2.1476          33.591         5.58982 
        2.15372         33.5116         5.55218 
        2.15985          33.305         5.51486 
        2.16599         33.2788         5.47777 
        2.17213         33.1025         5.44106 
        2.17827         32.9046          5.4047 
         2.1844         32.7856         5.36871 
        2.19054         32.7078         5.33304 
        2.19666         32.5381         5.29774 
         2.2028         32.4208         5.26273 
        2.20893         32.2508         5.22803 
        2.21508         32.1548          5.1936 
        2.22122         31.9517         5.15947 
        2.22736         31.8672         5.12571 
        2.23349          31.739         5.09228 
        2.23962         31.6048         5.05912 
        2.24577         31.4222         5.02623 
         2.2519         31.2862         4.99368 
        2.25802         31.2119         4.96147 
        2.26417         31.0783         4.92946 
        2.27031         30.9557         4.89771 
        2.27644         30.8784         4.86632 
        2.28257         30.7362         4.83522 
        2.28872         30.5333         4.80433 
        2.29486         30.4422         4.77372 
        2.30099           30.33         4.74344 
        2.30712         30.2423         4.71341 
        2.31326         30.1082         4.68359 
         2.3194         29.9358         4.65405 
        2.32553         29.8362         4.62482 
        2.33166         29.6922         4.59585 
         2.3378         29.5722         4.56709 
        2.34394         29.4377         4.53857 
        2.35007         29.2827         4.51033 
        2.35619         29.1739         4.48237 
        2.36233         29.0831         4.45458 
        2.36848         28.9412         4.42697 
        2.37462         28.8458         4.39966 
        2.38075         28.7387          4.3726 
        2.38689         28.6395         4.34575 
        2.39303         28.4767         4.31913 
        2.39916         28.3807         4.29276 
        2.40529         28.2313         4.26662 
        2.41143         28.1635         4.24067 
        2.41757         28.0583         4.21494 
         2.4237         27.8963         4.18946 
        2.42983         27.8186          4.1642 
        2.43598         27.7248         4.13908 
        2.44211         27.5343         4.11421 
        2.44823          27.456          4.0896 
        2.45437         27.3246         4.06513 
        2.46052          27.246         4.04083 
        2.46665         27.1835         4.01678 
        2.47279         27.0387         3.99294 
        2.47892         26.9045         3.96927 
        2.48507          26.807         3.94578 
         2.4912         26.7163         3.92252 
