# k  (h/Mpc)    P(k)  (Mpc/h)^3    P_linear(k)  (Mpc/h)^3
     0.00783031         685.776         692.599 
       0.013688         919.816         921.982 
       0.019231         994.282         995.176 
      0.0249154         974.537         980.189 
      0.0312784         906.581         908.344 
      0.0375637         822.052         821.176 
      0.0433917         745.272         747.248 
      0.0492413         687.336         687.363 
      0.0555754         634.836         637.868 
      0.0619321         599.909         598.187 
       0.067871         561.529         563.724 
      0.0738098         524.931         527.442 
      0.0800417         482.341         486.008 
      0.0862327         441.099         443.092 
      0.0921407         402.624         403.606 
      0.0982031         365.989         367.641 
       0.104506         337.903         337.089 
       0.110769         314.342         313.793 
       0.116806         295.532         296.672 
       0.122832         282.778         282.711 
       0.129052         268.001         269.335 
       0.135211         253.962          255.47 
       0.141259         240.282         240.633 
       0.147318         225.522         224.904 
       0.153489         208.916         208.979 
       0.159709         194.536         194.177 
       0.165845         183.584         181.625 
       0.171974         172.036           171.4 
       0.178125         164.048         163.207 
       0.184229         157.823         156.506 
        0.19034          150.34         150.478 
       0.196428         145.373         144.507 
       0.202534         140.074          138.18 
       0.208729         132.714         131.364 
       0.214876         125.152         124.436 
       0.220989         119.961         117.746 
       0.227147         112.541         111.558 
        0.23329         107.344         106.152 
       0.239377          103.22         101.588 
       0.245482         98.6022         97.6795 
       0.251667         96.0374         94.1806 
       0.257832          92.618         90.9058 
       0.263955         89.3915         87.6703 
       0.270079         86.2088         84.3554 
        0.27624         83.5128         80.9451 
       0.282372         80.0694          77.561 
        0.28843         76.5494         74.3405 
       0.294538         73.5979         71.3188 
       0.300721         71.4138          68.552 
        0.30691         68.4427         66.0763 
       0.313033         66.3438          63.874 
       0.319153         63.5385         61.8419 
       0.325316         62.5324         59.8908 
        0.33145         60.4099         57.9832 
       0.337538         58.6743         56.0973 
       0.343633         56.6686         54.2176 
       0.349808         54.9822         52.3491 
       0.355968         53.2436         50.5551 
       0.362074         51.5401         48.8753 
       0.368217         50.0605         47.3032 
       0.374374         48.4168         45.8418 
       0.380519          47.248         44.4848 
       0.386598         46.0306         43.2175 
       0.392688         44.9881         41.9986 
        0.39888         43.6967         40.7938 
       0.405048         42.6465         39.6166 
       0.411186         41.6276         38.4686 
       0.417313          40.216          37.353 
       0.423458         39.2511         36.2729 
       0.429607         38.1339           35.24 
       0.435692         37.0621         34.2706 
       0.441815         36.3173         33.3452 
       0.447964         35.6953         32.4626 
       0.454126         34.4617         31.6179 
       0.460267         33.7409         30.8072 
       0.466387         32.7816         30.0232 
        0.47254         32.2454         29.2565 
       0.478662         31.6047         28.5141 
       0.484765         30.7555         27.7946 
       0.490885         30.0171         27.0963 
       0.497035          29.618         26.4206 
       0.503198          28.865         25.7705 
       0.509342         28.1873         25.1481 
       0.515458         27.5569         24.5527 
       0.521598         27.0662         23.9772 
       0.527764         26.4555         23.4188 
       0.533884         26.0028         22.8812 
           0.54         25.4731          22.359 
       0.546137         25.0118         21.8499 
       0.552299         24.5663         21.3536 
       0.558452         23.8333         20.8731 
       0.564573         23.5345           20.41 
       0.570708         23.1114         19.9607 
       0.576825         22.5236         19.5276 
       0.582926         22.1723         19.1101 
       0.589034         21.5589         18.7052 
       0.595184         21.2597         18.3098 
       0.601379         20.8511         17.9229 
       0.607522         20.5488         17.5499 
       0.613639         20.3087         17.1888 
       0.619772         19.7858         16.8369 
       0.625918         19.6154         16.4941 
       0.632068         19.2982         16.1609 
       0.638161         18.8677         15.8401 
         0.6443         18.4935         15.5259 
       0.650464         18.1456         15.2195 
       0.656582         18.0004         14.9238 
       0.662703         17.6867         14.6363 
       0.668861          17.384         14.3549 
       0.675024         17.0523         14.0808 
       0.681124          16.768         13.8166 
       0.687237         16.5303         13.5586 
       0.693381         16.3248          13.306 
       0.699536         15.8907         13.0594 
       0.705665         15.7335         12.8201 
       0.711789          15.488         12.5872 
       0.717957         15.2482         12.3587 
        0.72409         15.0076         12.1373 
       0.730186         14.8142         11.9228 
       0.736317          14.666         11.7124 
       0.742472         14.4391         11.5065 
       0.748622         14.2118         11.3057 
        0.75476         13.9149         11.1102 
       0.760888         13.7807         10.9196 
       0.767043         13.6166         10.7328 
       0.773185         13.3499         10.5508 
       0.779291         13.2431          10.374 
       0.785407         13.0406         10.2012 
       0.791564         12.8318         10.0312 
       0.797719         12.6484         9.86531 
       0.803834         12.5388         9.70426 
       0.809972         12.4175         9.54629 
       0.816124         12.1624         9.39156 
       0.822261         12.0071         9.24072 
       0.828378         11.8668         9.09371 
       0.834502          11.756         8.94981 
       0.840667         11.5569         8.80813 
       0.846816          11.379         8.66997 
       0.852925         11.2807         8.53567 
       0.859047         11.1429         8.40397 
       0.865192         11.0473         8.27466 
       0.871341         10.9241         8.14802 
       0.877463         10.7707         8.02464 
       0.883569         10.5947         7.90416 
       0.889708         10.4312         7.78558 
       0.895864         10.3682         7.66915 
       0.902008         10.2389         7.55538 
       0.908149         10.1287         7.44402 
       0.914301         9.98213         7.33476 
       0.920448         9.84477         7.22781 
       0.926574         9.73136         7.12341 
       0.932687         9.65851         7.02131 
       0.938823         9.53353         6.92088 
       0.944975         9.41005          6.8222 
       0.951105         9.33059         6.72583 
       0.957225         9.27877         6.63151 
       0.963368         9.15078         6.53869 
       0.969511         9.05191         6.44768 
       0.975621         8.93204          6.3589 
       0.981748         8.84833         6.27159 
       0.987916         8.76592         6.18539 
        0.99406         8.62929         6.10115 
        1.00019         8.51823         6.01867 
        1.00632          8.4871         5.93781 
        1.01246         8.39745         5.85832 
        1.01859          8.2896         5.78044 
        1.02471         8.20858         5.70409 
        1.03085         8.13376         5.62886 
        1.03698         8.02542         5.55517 
        1.04314         7.96537          5.4825 
        1.04929          7.8614         5.41131 
        1.05541         7.78414         5.34169 
        1.06154          7.7169         5.27314 
        1.06769         7.67633          5.2057 
        1.07382         7.56007         5.13968 
        1.07993         7.48184         5.07496 
        1.08607         7.43861          5.0111 
        1.09222          7.3642         4.94829 
        1.09836         7.30109         4.88664 
        1.10449         7.22225         4.82613 
        1.11063          7.1605         4.76659 
        1.11677         7.09715         4.70808 
         1.1229         7.03025         4.65067 
        1.12903         6.96116         4.59418 
        1.13518         6.89715         4.53859 
        1.14131         6.81137         4.48396 
        1.14745         6.73278         4.43027 
        1.15359         6.70506         4.37746 
        1.15973         6.63327          4.3255 
        1.16584         6.57522         4.27462 
        1.17197         6.51958          4.2245 
        1.17811         6.46675         4.17504 
        1.18424         6.43066         4.12652 
        1.19038         6.37416         4.07864 
        1.19652         6.31565         4.03155 
        1.20267           6.247          3.9852 
        1.20881         6.20268         3.93961 
        1.21495         6.15575          3.8948 
        1.22108         6.09526         3.85071 
         1.2272          6.0703         3.80741 
        1.23334         5.98943         3.76468 
        1.23949          5.9389         3.72252 
        1.24562         5.91457         3.68112 
        1.25174         5.84082         3.64042 
        1.25789         5.80347         3.60021 
        1.26402          5.7498          3.5607 
        1.27014         5.69784         3.52187 
        1.27628         5.67265         3.48351 
        1.28244         5.60164         3.44566 
        1.28858         5.58005         3.40843 
        1.29471         5.52652         3.37183 
        1.30084          5.4765         3.33581 
        1.30697          5.4689         3.30027 
        1.31312         5.37015          3.2652 
        1.31925         5.35729         3.23075 
        1.32537         5.31473         3.19684 
        1.33151         5.28588          3.1633 
        1.33765         5.21928         3.13027 
        1.34378         5.18057         3.09777 
        1.34992          5.1661         3.06572 
        1.35606         5.10479         3.03406 
         1.3622         5.08327         3.00291 
        1.36833         5.04387         2.97228 
        1.37445         5.00714         2.94209 
        1.38059         4.97788         2.91223 
        1.38675         4.94701         2.88272 
        1.39288         4.89587         2.85373 
        1.39901         4.85575         2.82517 
        1.40515         4.82909         2.79693 
         1.4113         4.79587          2.7691 
        1.41742         4.76495         2.74175 
        1.42355         4.73507         2.71473 
         1.4297         4.68456         2.68799 
        1.43585         4.67154         2.66162 
        1.44198         4.64697         2.63571 
        1.44809         4.58981          2.6102 
        1.45423         4.56071         2.58494 
        1.46036         4.53049         2.56005 
        1.46649         4.49233         2.53549 
        1.47263         4.46243         2.51124 
        1.47877         4.42525         2.48731 
        1.48491         4.39951         2.46366 
        1.49104         4.38156         2.44037 
        1.49718         4.35033         2.41737 
        1.50333         4.32181         2.39463 
        1.50947         4.29499         2.37223 
         1.5156         4.26735         2.35016 
        1.52172         4.24206         2.32836 
        1.52787         4.21118         2.30681 
          1.534         4.18561         2.28555 
        1.54013         4.15802         2.26458 
        1.54627         4.11979         2.24385 
        1.55241         4.09508         2.22337 
        1.55855         4.08051         2.20318 
        1.56467         4.05244         2.18329 
         1.5708         4.01541          2.1636 
        1.57695         3.99643         2.14412 
        1.58308          3.9693         2.12493 
        1.58922         3.95423         2.10596 
        1.59535         3.92675         2.08724 
         1.6015         3.90324         2.06871 
        1.60764         3.88098         2.05042 
        1.61376         3.85607         2.03241 
        1.61989         3.83059          2.0146 
        1.62604         3.80477         1.99696 
        1.63218         3.79448         1.97955 
        1.63831         3.75878         1.96239 
        1.64444         3.73623         1.94542 
        1.65059         3.71772         1.92862 
        1.65673         3.69695         1.91204 
        1.66285         3.66808          1.8957 
        1.66898         3.65523         1.87954 
        1.67512         3.62492         1.86355 
        1.68127         3.60632         1.84773 
         1.6874         3.59252         1.83212 
        1.69353          3.5558         1.81671 
        1.69967         3.54286         1.80144 
        1.70581         3.53291         1.78636 
        1.71193         3.50722          1.7715 
        1.71806         3.49107         1.75678 
        1.72421         3.46906         1.74221 
        1.73035         3.45013         1.72781 
        1.73649         3.42666         1.71359 
        1.74262         3.40728         1.69953 
        1.74876         3.39915         1.68563 
        1.75489         3.37143         1.67191 
        1.76101         3.35022         1.65835 
        1.76715         3.33442         1.64492 
        1.77329         3.31621         1.63163 
        1.77943          3.2926         1.61848 
        1.78557         3.28148         1.60549 
        1.79171         3.26517         1.59264 
        1.79785         3.24293         1.57994 
        1.80399         3.23005         1.56737 
        1.81012         3.21915         1.55496 
        1.81625         3.19217         1.54269 
        1.82239         3.17382         1.53054 
        1.82853         3.15262         1.51852 
        1.83466         3.14644         1.50665 
        1.84078         3.12727         1.49491 
        1.84692         3.11291         1.48328 
        1.85306         3.09073         1.47177 
         1.8592         3.07774         1.46039 
        1.86533         3.06157         1.44914 
        1.87147         3.05033           1.438 
        1.87761         3.03438         1.42697 
        1.88375         3.00867         1.41607 
        1.88988          3.0006          1.4053 
        1.89601         2.98325         1.39463 
        1.90215         2.96364         1.38407 
        1.90829         2.95181         1.37362 
        1.91442         2.93833         1.36328 
        1.92056         2.92187         1.35306 
         1.9267         2.91192         1.34293 
        1.93284         2.89758          1.3329 
        1.93897         2.88111         1.32299 
        1.94509         2.86176          1.3132 
        1.95123         2.84673         1.30349 
        1.95737         2.83422         1.29387 
        1.96349         2.82303         1.28438 
        1.96964          2.8137         1.27495 
        1.97578         2.79722         1.26561 
        1.98192         2.78588         1.25639 
        1.98805         2.76866         1.24726 
        1.99419           2.756         1.23821 
        2.00033         2.75257         1.22926 
        2.00647         2.73126          1.2204 
         2.0126         2.72292         1.21163 
        2.01874         2.70209         1.20295 
        2.02488         2.69332         1.19434 
        2.03101         2.67613         1.18583 
        2.03714         2.66086         1.17741 
        2.04328         2.65446         1.16907 
        2.04941         2.63651         1.16081 
        2.05554         2.63182         1.15264 
        2.06167         2.61417         1.14454 
        2.06781         2.60753         1.13651 
        2.07396          2.5951         1.12855 
        2.08009         2.58131         1.12069 
        2.08622         2.56445          1.1129 
        2.09237           2.564         1.10518 
        2.09851         2.55013         1.09752 
        2.10464         2.53814         1.08996 
        2.11077         2.52422         1.08247 
        2.11691         2.51127         1.07504 
        2.12305         2.50506         1.06768 
        2.12918         2.49294          1.0604 
        2.13531         2.48278          1.0532 
        2.14145         2.46842         1.04604 
         2.1476         2.45836         1.03894 
        2.15372         2.44694         1.03195 
        2.15985         2.43641         1.02501 
        2.16599         2.42413         1.01812 
        2.17213         2.41472         1.01129 
        2.17827         2.40633         1.00454 
         2.1844         2.39623        0.997847 
        2.19054         2.38834        0.991217 
        2.19666           2.374        0.984656 
         2.2028         2.36515         0.97815 
        2.20893         2.35118        0.971699 
        2.21508         2.34636          0.9653 
        2.22122         2.33183        0.958956 
        2.22736         2.32013        0.952683 
        2.23349         2.31717        0.946468 
        2.23962         2.30243        0.940305 
        2.24577         2.29287        0.934192 
         2.2519         2.28358        0.928143 
        2.25802         2.27999        0.922157 
        2.26417         2.26472        0.916207 
        2.27031         2.25948        0.910305 
        2.27644         2.24913        0.904472 
        2.28257         2.23924        0.898691 
        2.28872         2.22806         0.89295 
        2.29486          2.2238         0.88726 
        2.30099         2.21077        0.881632 
        2.30712          2.2021        0.876051 
        2.31326         2.19751        0.870509 
         2.3194         2.18531        0.865018 
        2.32553         2.17847        0.859585 
        2.33166         2.16687          0.8542 
         2.3378         2.15795        0.848855 
        2.34394         2.14862        0.843554 
        2.35007         2.14053        0.838305 
        2.35619         2.13682        0.833109 
        2.36233         2.12381        0.827944 
        2.36848         2.11755        0.822813 
        2.37462         2.10896        0.817736 
        2.38075         2.10053        0.812707 
        2.38689         2.09234        0.807716 
        2.39303         2.08605        0.802769 
        2.39916         2.07508        0.797868 
        2.40529         2.07007        0.793009 
        2.41143         2.06027        0.788187 
        2.41757         2.05137        0.783403 
         2.4237         2.04531        0.778668 
        2.42983         2.03527        0.773972 
        2.43598         2.03244        0.769304 
        2.44211         2.02173        0.764681 
        2.44823         2.01479        0.760107 
        2.45437         2.00761        0.755559 
        2.46052          2.0004        0.751044 
        2.46665         1.99437        0.746574 
        2.47279         1.98571        0.742142 
        2.47892         1.97718        0.737744 
        2.48507         1.97164        0.733377 
         2.4912         1.96269        0.729054 
