# k  (h/Mpc)    Pcb(k)  (Mpc/h)^3    Pcb_linear(k)  (Mpc/h)^3
     0.00783031         7823.09         7917.91 
       0.013688         10286.9           10230 
       0.019231         10812.9         10807.3 
      0.0249154         10259.4         10430.6 
      0.0312784         9349.24         9437.88 
      0.0375637         8293.82         8312.33 
      0.0433917         7255.66         7374.95 
      0.0492413          6573.7         6626.18 
      0.0555754         5875.18         6031.06 
      0.0619321         5592.78         5597.95 
       0.067871         5139.74          5267.8 
      0.0738098         4819.79         4947.99 
      0.0800417         4416.26         4584.63 
      0.0862327         4073.29         4189.21 
      0.0921407         3736.14         3799.42 
      0.0982031         3346.58         3418.21 
       0.104506         3090.17         3072.72 
       0.110769         2820.53         2798.32 
       0.116806          2609.7         2599.63 
       0.122832         2479.36         2453.84 
       0.129052         2319.99         2338.42 
       0.135211         2222.13         2237.45 
       0.141259         2143.25         2134.24 
       0.147318         2039.16          2017.9 
       0.153489          1888.4         1886.11 
       0.159709         1781.39         1747.21 
       0.165845          1693.2         1614.83 
       0.171974          1575.4         1496.84 
       0.178125         1487.19         1398.45 
       0.184229         1420.21         1321.55 
        0.19034         1330.62         1262.08 
       0.196428         1310.49         1214.44 
       0.202534         1273.06         1171.67 
       0.208729         1219.18         1127.61 
       0.214876         1163.32          1079.8 
       0.220989         1130.81         1027.61 
       0.227147          1070.7         972.245 
        0.23329          1025.4         917.428 
       0.239377         1000.87         866.769 
       0.245482         933.558         821.961 
       0.251667         923.662         783.662 
       0.257832         890.095         752.058 
       0.263955         862.055         725.591 
       0.270079         834.236         701.936 
        0.27624         826.355         678.947 
       0.282372         792.335         655.465 
        0.28843         776.565         631.068 
       0.294538         740.051         605.507 
       0.300721         735.955         579.479 
        0.30691         702.445         554.318 
       0.313033         688.392         531.243 
       0.319153         668.391         510.519 
       0.325316         648.469         492.115 
        0.33145         631.333         475.909 
       0.337538         624.027         461.342 
       0.343633         605.181         447.603 
       0.349808         586.433         433.975 
       0.355968          581.84         420.322 
       0.362074         570.837         406.622 
       0.368217         555.478         392.838 
       0.374374         534.323         379.271 
       0.380519         529.675         366.309 
       0.386598         517.482         354.285 
       0.392688         514.584         343.145 
        0.39888         499.816         332.742 
       0.405048         490.774         323.149 
       0.411186         481.615         314.176 
       0.417313         473.166         305.588 
       0.423458         465.384         297.162 
       0.429607         455.852         288.849 
       0.435692         445.497         280.724 
       0.441815          442.64         272.681 
       0.447964         434.039          264.84 
       0.454126         420.797         257.303 
       0.460267         415.685         250.156 
       0.466387         411.131         243.428 
        0.47254          402.91         237.046 
       0.478662         401.608         231.015 
       0.484765         390.174         225.256 
       0.490885         385.972         219.681 
       0.497035         379.602         214.231 
       0.503198          372.53         208.887 
       0.509342         369.743         203.678 
       0.515458          365.64          198.63 
       0.521598         359.279         193.716 
       0.527764         352.839         188.951 
       0.533884         350.055         184.406 
           0.54          345.42         180.057 
       0.546137         344.154         175.871 
       0.552299         337.355         171.826 
       0.558452         334.357         167.926 
       0.564573          329.03         164.165 
       0.570708         323.733         160.503 
       0.576825         319.074         156.947 
       0.582926         316.355         153.489 
       0.589034         312.849         150.118 
       0.595184         310.064         146.823 
       0.601379         307.116         143.611 
       0.607522         301.543          140.53 
       0.613639         300.416         137.563 
       0.619772         293.346         134.682 
       0.625918         292.035         131.884 
       0.632068         288.196          129.17 
       0.638161         287.075         126.557 
         0.6443         282.176         123.997 
       0.650464         279.875         121.495 
       0.656582         278.487         119.073 
       0.662703         275.586         116.714 
       0.668861         271.171         114.403 
       0.675024         268.495         112.155 
       0.681124         267.567         109.994 
       0.687237         263.849         107.889 
       0.693381         260.226         105.833 
       0.699536         258.353         103.829 
       0.705665         257.373         101.886 
       0.711789         253.569         99.9943 
       0.717957         252.255         98.1371 
        0.72409         249.492         96.3371 
       0.730186         246.498         94.5931 
       0.736317         244.497          92.883 
       0.742472         243.383         91.2093 
       0.748622         241.562          89.579 
        0.75476         239.594         87.9927 
       0.760888         236.313         86.4478 
       0.767043         235.705         84.9344 
       0.773185         232.986         83.4609 
       0.779291         229.207         82.0312 
       0.785407         228.622         80.6334 
       0.791564         226.547         79.2597 
       0.797719         224.057         77.9191 
       0.803834         223.018         76.6184 
       0.809972         220.924         75.3431 
       0.816124         221.188         74.0944 
       0.822261         217.704         72.8776 
       0.828378         216.169         71.6922 
       0.834502         215.944         70.5323 
       0.840667         212.449         69.3909 
       0.846816         211.454         68.2782 
       0.852925         209.993         67.1972 
       0.859047         208.123         66.1375 
       0.865192         206.836         65.0974 
       0.871341         204.687         64.0791 
       0.877463         203.541         63.0874 
       0.883569         201.931         62.1194 
       0.889708         200.567         61.1669 
       0.895864         198.297         60.2321 
       0.902008          197.61          59.319 
       0.908149         196.682         58.4255 
       0.914301         194.539         57.5492 
       0.920448         193.187         56.6918 
       0.926574         192.285          55.855 
       0.932687         191.418         55.0371 
       0.938823         189.221         54.2327 
       0.944975         187.748         53.4427 
       0.951105         186.976         52.6715 
       0.957225         184.832         51.9169 
       0.963368         183.321         51.1747 
       0.969511         182.651         50.4471 
       0.975621         181.617         49.7377 
       0.981748         181.114         49.0402 
       0.987916          178.83         48.3518 
        0.99406         177.942         47.6794 
        1.00019         177.348         47.0212 
        1.00632         175.799         46.3761 
        1.01246         174.736         45.7423 
        1.01859         173.314         45.1215 
        1.02471         172.639         44.5131 
        1.03085         170.833         43.9138 
        1.03698         169.752          43.327 
        1.04314         168.725         42.7485 
        1.04929         167.459          42.182 
        1.05541         166.841         41.6282 
        1.06154         165.666          41.083 
        1.06769         165.547         40.5468 
        1.07382         164.338          40.022 
        1.07993         162.993         39.5078 
        1.08607         161.851         39.0006 
        1.09222          161.06         38.5018 
        1.09836         159.702         38.0124 
        1.10449         158.633         37.5322 
        1.11063         157.707         37.0597 
        1.11677         157.242         36.5957 
         1.1229         155.519         36.1404 
        1.12903         154.838         35.6925 
        1.13518         154.748         35.2519 
        1.14131         153.105          34.819 
        1.14745         152.479         34.3936 
        1.15359         151.363         33.9754 
        1.15973         151.095          33.564 
        1.16584         149.625         33.1613 
        1.17197         148.897         32.7646 
        1.17811         148.075         32.3733 
        1.18424         147.214         31.9895 
        1.19038          146.64         31.6109 
        1.19652         145.682         31.2386 
        1.20267         144.772         30.8724 
        1.20881          143.81         30.5121 
        1.21495         143.002         30.1582 
        1.22108         142.363           29.81 
         1.2272         141.301         29.4682 
        1.23334         140.561         29.1309 
        1.23949         139.061         28.7982 
        1.24562         138.956         28.4716 
        1.25174         137.521         28.1507 
        1.25789         137.111         27.8337 
        1.26402         136.586         27.5222 
        1.27014         135.558         27.2163 
        1.27628         134.992         26.9142 
        1.28244         134.219          26.616 
        1.28858         133.609         26.3229 
        1.29471         132.333         26.0348 
        1.30084         131.813         25.7513 
        1.30697         131.139         25.4717 
        1.31312         130.842         25.1958 
        1.31925         129.646         24.9249 
        1.32537         129.263         24.6583 
        1.33151          127.91         24.3947 
        1.33765         127.516          24.135 
        1.34378         126.638         23.8798 
        1.34992         126.537          23.628 
        1.35606         125.621         23.3793 
         1.3622         124.741         23.1347 
        1.36833         124.193         22.8942 
        1.37445         123.318         22.6573 
        1.38059         122.999         22.4229 
        1.38675         122.007         22.1914 
        1.39288         121.511          21.964 
        1.39901         121.094           21.74 
        1.40515         120.442         21.5186 
         1.4113         119.129         21.3004 
        1.41742         119.124          21.086 
        1.42355         118.173         20.8743 
         1.4297         117.518         20.6648 
        1.43585         116.749         20.4582 
        1.44198         116.528         20.2553 
        1.44809         115.557         20.0556 
        1.45423         114.806         19.8578 
        1.46036         114.573         19.6631 
        1.46649         113.956         19.4709 
        1.47263         113.443         19.2812 
        1.47877         112.892          19.094 
        1.48491         112.038         18.9091 
        1.49104         111.482          18.727 
        1.49718         110.789         18.5472 
        1.50333         110.254         18.3695 
        1.50947         109.544         18.1945 
         1.5156          109.31         18.0221 
        1.52172         108.454         17.8519 
        1.52787         108.283         17.6836 
          1.534         107.635         17.5176 
        1.54013         106.753          17.354 
        1.54627         106.244         17.1922 
        1.55241          105.75         17.0324 
        1.55855          105.38         16.8749 
        1.56467         104.708         16.7198 
         1.5708         104.063         16.5662 
        1.57695         103.865         16.4144 
        1.58308         102.773         16.2648 
        1.58922         102.777          16.117 
        1.59535         102.223          15.971 
         1.6015         101.636         15.8267 
        1.60764         101.051         15.6843 
        1.61376           100.6          15.544 
        1.61989         100.108         15.4053 
        1.62604          99.487          15.268 
        1.63218         99.2488         15.1324 
        1.63831         98.5081         14.9988 
        1.64444         98.0662         14.8668 
        1.65059         97.3509         14.7361 
        1.65673         96.8359         14.6071 
        1.66285         96.6109           14.48 
        1.66898         95.9516         14.3544 
        1.67512         95.4287           14.23 
        1.68127         94.9083         14.1071 
         1.6874          94.499         13.9858 
        1.69353         94.0281          13.866 
        1.69967         93.4513         13.7474 
        1.70581         93.1996         13.6302 
        1.71193         92.8196         13.5148 
        1.71806         91.9978         13.4006 
        1.72421          91.796         13.2874 
        1.73035          91.188         13.1757 
        1.73649         90.7485         13.0652 
        1.74262         90.3403         12.9562 
        1.74876         89.9052         12.8483 
        1.75489         89.2793         12.7419 
        1.76101         88.9998         12.6367 
        1.76715         88.5012         12.5325 
        1.77329         88.1088         12.4295 
        1.77943         87.6568         12.3275 
        1.78557         87.2907         12.2268 
        1.79171          86.757         12.1273 
        1.79785         86.4346         12.0288 
        1.80399         85.9679         11.9315 
        1.81012         85.6335         11.8353 
        1.81625         85.0444         11.7403 
        1.82239         84.6302         11.6462 
        1.82853         84.3704         11.5532 
        1.83466         83.7974         11.4612 
        1.84078         83.4332         11.3704 
        1.84692         82.9427         11.2804 
        1.85306         82.5858         11.1913 
         1.8592         81.9721         11.1033 
        1.86533         81.6988         11.0162 
        1.87147         81.1372         10.9301 
        1.87761         80.8539         10.8448 
        1.88375          80.619         10.7605 
        1.88988         80.1988         10.6772 
        1.89601         79.6671         10.5947 
        1.90215         79.3586         10.5131 
        1.90829         79.0702         10.4324 
        1.91442         78.4973         10.3525 
        1.92056         78.0766         10.2735 
         1.9267         77.7941         10.1952 
        1.93284         77.1802         10.1178 
        1.93897         76.9082         10.0412 
        1.94509          76.375          9.9657 
        1.95123         76.1459         9.89073 
        1.95737         76.0201         9.81648 
        1.96349         75.4594         9.74319 
        1.96964          75.054         9.67044 
        1.97578          74.787          9.5984 
        1.98192         74.4062         9.52725 
        1.98805         74.1303         9.45681 
        1.99419          73.559         9.38708 
        2.00033          73.325         9.31802 
        2.00647         73.0122         9.24968 
         2.0126         72.4658         9.18214 
        2.01874         72.1174         9.11518 
        2.02488         71.9775         9.04882 
        2.03101          71.595         8.98325 
        2.03714         71.0733          8.9184 
        2.04328         70.8327         8.85411 
        2.04941          70.367         8.79052 
        2.05554         70.0103         8.72759 
        2.06167         69.8977          8.6652 
        2.06781         69.4623         8.60341 
        2.07396         69.0425         8.54214 
        2.08009         68.8225         8.48158 
        2.08622         68.4196         8.42167 
        2.09237          68.137         8.36222 
        2.09851         67.8677         8.30334 
        2.10464         67.4443         8.24512 
        2.11077         67.0646         8.18754 
        2.11691         66.7871         8.13038 
        2.12305         66.4335         8.07376 
        2.12918         66.1037         8.01782 
        2.13531         65.7932         7.96241 
        2.14145         65.4732         7.90739 
         2.1476         65.2803         7.85283 
        2.15372         64.9064         7.79906 
        2.15985         64.5288         7.74574 
        2.16599         64.2408         7.69277 
        2.17213          63.961         7.64035 
        2.17827         63.6235         7.58844 
         2.1844         63.1527         7.53705 
        2.19054         62.9194         7.48613 
        2.19666         62.7435         7.43575 
         2.2028         62.5501         7.38578 
        2.20893         62.1837         7.33626 
        2.21508         61.8706         7.28713 
        2.22122         61.6248         7.23844 
        2.22736         61.2604          7.1903 
        2.23349         60.9995         7.14261 
        2.23962         60.6179         7.09533 
        2.24577         60.2929         7.04843 
         2.2519         60.0765         7.00203 
        2.25802         59.8319         6.95612 
        2.26417         59.4757         6.91049 
        2.27031         59.2592         6.86523 
        2.27644         58.8554         6.82051 
        2.28257         58.6555         6.77619 
        2.28872         58.3746         6.73218 
        2.29486         58.0934         6.68858 
        2.30099         57.8606         6.64545 
        2.30712         57.5811         6.60268 
        2.31326         57.2368         6.56022 
         2.3194         57.0072         6.51815 
        2.32553         56.7135         6.47653 
        2.33166         56.4105         6.43529 
         2.3378         56.0673         6.39435 
        2.34394         55.7304         6.35376 
        2.35007         55.5593         6.31358 
        2.35619         55.4176         6.27379 
        2.36233         55.2284         6.23426 
        2.36848         54.7511         6.19498 
        2.37462         54.5619         6.15613 
        2.38075         54.3052         6.11765 
        2.38689         54.1161         6.07947 
        2.39303          53.921         6.04162 
        2.39916         53.6927         6.00413 
        2.40529         53.3399         5.96696 
        2.41143         53.0643         5.93009 
        2.41757         52.8337          5.8935 
         2.4237         52.6179          5.8573 
        2.42983         52.3145          5.8214 
        2.43598         52.0481         5.78571 
        2.44211         51.8412         5.75038 
        2.44823         51.5591         5.71543 
        2.45437         51.2997         5.68067 
        2.46052         50.9939         5.64617 
        2.46665         50.8379         5.61201 
        2.47279          50.632         5.57816 
        2.47892         50.3985         5.54456 
        2.48507         50.1408          5.5112 
         2.4912         49.9851         5.47819 
