# k  (h/Mpc)    P(k)  (Mpc/h)^3    P_linear(k)  (Mpc/h)^3
     0.00783031         4825.22         4876.91 
       0.013688         5123.61         5208.82 
       0.019231         4632.65         4667.82 
      0.0249154          3851.1         3831.75 
      0.0312784         2945.02         2939.49 
      0.0375637         2276.68         2280.16 
      0.0433917         1893.91          1884.3 
      0.0492413         1648.43         1647.28 
      0.0555754         1506.53         1496.42 
      0.0619321         1366.79         1381.93 
       0.067871         1262.82         1263.35 
      0.0738098         1123.05         1119.79 
      0.0800417         963.059         954.526 
      0.0862327         806.092         800.226 
      0.0921407         689.261         681.238 
      0.0982031         608.146         595.379 
       0.104506         545.603          541.18 
       0.110769         516.604         511.142 
       0.116806         500.048         491.233 
       0.122832          473.14          468.95 
       0.129052         443.267         437.006 
       0.135211         406.931         396.638 
       0.141259         361.917         353.634 
       0.147318         320.465         313.562 
       0.153489         289.557         280.605 
       0.159709         268.591         257.112 
       0.165845         248.793         242.275 
       0.171974         243.855         232.713 
       0.178125         234.458         224.831 
       0.184229         222.508         215.813 
        0.19034         213.056         204.182 
       0.196428         200.014         190.261 
       0.202534         182.005         175.386 
       0.208729         171.835         161.159 
       0.214876         161.116         149.247 
       0.220989         149.336         140.088 
       0.227147         144.568          133.29 
        0.23329         138.962         128.128 
       0.239377         135.237          123.64 
       0.245482         129.041         118.954 
       0.251667         122.626         113.595 
       0.257832         119.164          107.67 
       0.263955         111.164         101.557 
       0.270079         105.126         95.6899 
        0.27624         99.7538         90.4214 
       0.282372         95.7447         85.9868 
        0.28843         93.7029          82.366 
       0.294538         89.4991         79.2712 
       0.300721         85.7336         76.4455 
        0.30691         83.8361         73.6722 
       0.313033         80.1528         70.8507 
       0.319153          78.171          67.922 
       0.325316         74.6339          64.948 
        0.33145         71.5361         62.0756 
       0.337538         68.7173         59.4257 
       0.343633         66.5364         57.0287 
       0.349808         64.1105         54.8705 
       0.355968         62.1157         52.9368 
       0.362074         60.7494         51.1655 
       0.368217         58.8901         49.4618 
       0.374374         57.2288         47.7781 
       0.380519         54.7776         46.1104 
       0.386598         53.1594           44.48 
       0.392688         51.2554         42.8927 
        0.39888         50.2481         41.3584 
       0.405048         48.8577         39.9272 
       0.411186         47.4649         38.6043 
       0.417313          46.052         37.3776 
       0.423458         44.6577         36.2199 
       0.429607         43.7291         35.1137 
       0.435692         42.9904         34.0568 
       0.441815         41.2994         33.0201 
       0.447964         39.9152         32.0044 
       0.454126         39.1442         31.0192 
       0.460267         38.6425         30.0758 
       0.466387         37.4548         29.1779 
        0.47254         36.8719           28.32 
       0.478662         35.5537         27.5111 
       0.484765          34.765         26.7428 
       0.490885         33.7065          26.004 
       0.497035         33.2331         25.2884 
       0.503198          32.493         24.5957 
       0.509342         31.5217         23.9269 
       0.515458         30.9712         23.2817 
       0.521598         30.1809         22.6559 
       0.527764         29.6996          22.051 
       0.533884         29.1453         21.4749 
           0.54         28.4426         20.9221 
       0.546137         27.5887         20.3885 
       0.552299         27.0246         19.8725 
       0.558452          26.409         19.3757 
       0.564573         26.1506          18.898 
       0.570708         25.4417         18.4347 
       0.576825         25.0879         17.9872 
       0.582926         24.6309         17.5548 
       0.589034         24.0905         17.1358 
       0.595184         23.7524         16.7279 
       0.601379         23.1232         16.3314 
       0.607522         22.6213         15.9516 
       0.613639         22.3283         15.5858 
       0.619772         21.8407         15.2307 
       0.625918         21.4807         14.8859 
       0.632068         21.2088         14.5514 
       0.638161         20.7523         14.2299 
         0.6443         20.4515         13.9158 
       0.650464         19.8947         13.6101 
       0.656582         19.7748         13.3157 
       0.662703           19.44         13.0301 
       0.668861         18.9517         12.7513 
       0.675024         18.6961         12.4804 
       0.681124         18.5684         12.2202 
       0.687237         18.1808         11.9669 
       0.693381         17.7886         11.7197 
       0.699536         17.6566         11.4789 
       0.705665         17.2902          11.246 
       0.711789         17.0209         11.0198 
       0.717957         16.6582         10.7983 
        0.72409         16.4682         10.5841 
       0.730186          16.357         10.3771 
       0.736317          16.003         10.1745 
       0.742472         15.8164         9.97652 
       0.748622          15.543         9.78404 
        0.75476         15.1717         9.59706 
       0.760888          15.126         9.41524 
       0.767043         14.8165         9.23742 
       0.773185         14.6097         9.06456 
       0.779291          14.436         8.89711 
       0.785407         14.2372         8.73365 
       0.791564         14.1255         8.57328 
       0.797719          13.763         8.41702 
       0.803834         13.7214         8.26565 
       0.809972         13.4353         8.11747 
       0.816124         13.2944         7.97261 
       0.822261         13.1191         7.83167 
       0.828378         12.9843         7.69458 
       0.834502         12.8306         7.56065 
       0.840667         12.6664         7.42905 
       0.846816         12.4061         7.30095 
       0.852925         12.3532         7.17668 
       0.859047         12.1856         7.05503 
       0.865192         12.0103          6.9358 
       0.871341         11.8641         6.81925 
       0.877463         11.7006          6.7059 
       0.883569         11.6063         6.59542 
       0.889708          11.418         6.48685 
       0.895864         11.2636         6.38045 
       0.902008         11.1546         6.27666 
       0.908149          10.971         6.17524 
       0.914301         10.8848          6.0759 
       0.920448         10.7551         5.97883 
       0.926574         10.6698         5.88422 
       0.932687         10.4961         5.79186 
       0.938823         10.3411         5.70116 
       0.944975         10.2834         5.61218 
       0.951105         10.1699         5.52543 
       0.957225          10.072         5.44066 
       0.963368         9.91844         5.35738 
       0.969511         9.81054         5.27584 
       0.975621         9.72706         5.19644 
       0.981748         9.59044         5.11847 
       0.987916         9.52358          5.0416 
        0.99406         9.38399         4.96661 
        1.00019         9.31759         4.89329 
        1.00632         9.25148         4.82151 
        1.01246         9.10793         4.75107 
        1.01859         9.02696         4.68215 
        1.02471         8.92466         4.61468 
        1.03085         8.86384         4.54831 
        1.03698         8.78542         4.48338 
        1.04314          8.6625         4.41944 
        1.04929         8.55399         4.35689 
        1.05541          8.4913         4.29581 
        1.06154         8.41278         4.23574 
        1.06769         8.33244         4.17673 
        1.07382          8.2263         4.11903 
        1.07993         8.15407         4.06256 
        1.08607         8.08728          4.0069 
        1.09222         7.99256         3.95223 
        1.09836         7.92453         3.89865 
        1.10449         7.86376         3.84612 
        1.11063         7.80501         3.79449 
        1.11677         7.74655         3.74383 
         1.1229         7.65377         3.69418 
        1.12903         7.58149         3.64539 
        1.13518          7.5093         3.59743 
        1.14131         7.45707         3.55036 
        1.14745         7.34059         3.50416 
        1.15359         7.26569         3.45876 
        1.15973          7.2288         3.41416 
        1.16584         7.14566         3.37053 
        1.17197         7.07321         3.32761 
        1.17811          7.0274          3.2853 
        1.18424         6.97344         3.24385 
        1.19038         6.94202           3.203 
        1.19652         6.84662         3.16286 
        1.20267         6.81793         3.12341 
        1.20881         6.71785         3.08464 
        1.21495         6.67987         3.04658 
        1.22108         6.62154         3.00918 
         1.2272         6.55933         2.97249 
        1.23334         6.52935         2.93632 
        1.23949          6.4645         2.90068 
        1.24562         6.40037         2.86572 
        1.25174         6.37232         2.83139 
        1.25789         6.30648         2.79751 
        1.26402          6.2518         2.76425 
        1.27014         6.22281         2.73161 
        1.27628         6.15163          2.6994 
        1.28244         6.12494         2.66764 
        1.28858         6.05584         2.63644 
        1.29471         5.99887          2.6058 
        1.30084         5.95142         2.57567 
        1.30697         5.91803         2.54598 
        1.31312         5.87548         2.51671 
        1.31925         5.83716         2.48799 
        1.32537         5.77617         2.45974 
        1.33151           5.732         2.43183 
        1.33765         5.69999         2.40437 
        1.34378         5.66901         2.37738 
        1.34992         5.61788         2.35079 
        1.35606          5.5607         2.32455 
         1.3622         5.52118         2.29875 
        1.36833         5.49627         2.27341 
        1.37445         5.44709         2.24845 
        1.38059         5.39317          2.2238 
        1.38675         5.37195         2.19946 
        1.39288         5.33214         2.17557 
        1.39901         5.27856         2.15205 
        1.40515         5.24847         2.12882 
         1.4113           5.211         2.10595 
        1.41742         5.18095         2.08349 
        1.42355         5.13076         2.06133 
         1.4297         5.09448         2.03941 
        1.43585         5.06601         2.01782 
        1.44198         5.04555         1.99663 
        1.44809         5.00046         1.97578 
        1.45423         4.96038         1.95515 
        1.46036         4.92906         1.93485 
        1.46649         4.89902         1.91483 
        1.47263         4.86225         1.89508 
        1.47877         4.81805         1.87561 
        1.48491         4.80849         1.85639 
        1.49104         4.77302         1.83747 
        1.49718         4.74208          1.8188 
        1.50333         4.70961         1.80036 
        1.50947         4.67711         1.78222 
         1.5156         4.65018         1.76435 
        1.52172         4.60792         1.74672 
        1.52787          4.6014          1.7293 
          1.534         4.55181         1.71214 
        1.54013         4.53597         1.69523 
        1.54627         4.49814         1.67851 
        1.55241         4.45881         1.66201 
        1.55855         4.44579         1.64576 
        1.56467         4.43214         1.62978 
         1.5708         4.38385         1.61395 
        1.57695         4.35663         1.59832 
        1.58308         4.33164         1.58292 
        1.58922         4.31033         1.56772 
        1.59535         4.28972         1.55272 
         1.6015         4.23794          1.5379 
        1.60764         4.21936         1.52327 
        1.61376         4.19986         1.50887 
        1.61989         4.17294         1.49465 
        1.62604         4.15791         1.48058 
        1.63218         4.12686          1.4667 
        1.63831          4.1022         1.45303 
        1.64444         4.07291         1.43952 
        1.65059         4.04622         1.42616 
        1.65673         4.03151         1.41297 
        1.66285          4.0042         1.39999 
        1.66898         3.99259         1.38717 
        1.67512         3.96707         1.37449 
        1.68127         3.92424         1.36195 
         1.6874         3.91747         1.34959 
        1.69353         3.88073          1.3374 
        1.69967         3.86588         1.32532 
        1.70581         3.84211          1.3134 
        1.71193          3.8168         1.30167 
        1.71806         3.79761         1.29006 
        1.72421         3.77446         1.27856 
        1.73035         3.76477         1.26722 
        1.73649         3.74314         1.25602 
        1.74262         3.70942         1.24496 
        1.74876         3.69833         1.23403 
        1.75489         3.68111         1.22325 
        1.76101         3.64549          1.2126 
        1.76715         3.64611         1.20206 
        1.77329         3.61375         1.19164 
        1.77943         3.58599         1.18133 
        1.78557         3.58483         1.17116 
        1.79171         3.55697         1.16111 
        1.79785         3.54435         1.15118 
        1.80399         3.52625         1.14136 
        1.81012         3.49852         1.13167 
        1.81625           3.483         1.12209 
        1.82239         3.46537         1.11261 
        1.82853         3.43772         1.10325 
        1.83466         3.41897           1.094 
        1.84078         3.39936         1.08486 
        1.84692         3.38922         1.07582 
        1.85306         3.37166         1.06686 
         1.8592         3.35641         1.05803 
        1.86533         3.33636         1.04929 
        1.87147         3.32416         1.04065 
        1.87761         3.30383          1.0321 
        1.88375         3.29012         1.02365 
        1.88988         3.27395         1.01531 
        1.89601         3.24619         1.00705 
        1.90215         3.23741        0.998879 
        1.90829         3.22574        0.990802 
        1.91442         3.20948        0.982814 
        1.92056         3.19549         0.97492 
         1.9267         3.17749        0.967105 
        1.93284         3.15737         0.95937 
        1.93897         3.14043        0.951734 
        1.94509         3.11356        0.944197 
        1.95123         3.11503        0.936723 
        1.95737         3.09928        0.929323 
        1.96349         3.08343        0.922023 
        1.96964          3.0594        0.914779 
        1.97578         3.04875        0.907609 
        1.98192         3.03627        0.900531 
        1.98805         3.02179        0.893526 
        1.99419         3.00838        0.886596 
        2.00033         2.98743        0.879735 
        2.00647         2.98359        0.872948 
         2.0126         2.96633        0.866244 
        2.01874         2.94834          0.8596 
        2.02488         2.94071        0.853019 
        2.03101         2.92071        0.846519 
        2.03714         2.90376        0.840093 
        2.04328         2.89379        0.833726 
        2.04941         2.87643        0.827429 
        2.05554         2.86731        0.821202 
        2.06167         2.85909         0.81503 
        2.06781          2.8435        0.808921 
        2.07396         2.82726        0.802865 
        2.08009         2.81542        0.796881 
        2.08622         2.80815        0.790965 
        2.09237         2.79138        0.785097 
        2.09851         2.77705        0.779288 
        2.10464         2.76841        0.773546 
        2.11077         2.74822        0.767869 
        2.11691         2.74225        0.762236 
        2.12305         2.73225        0.756659 
        2.12918          2.7156        0.751151 
        2.13531         2.70795        0.745697 
        2.14145         2.69202        0.740284 
         2.1476         2.67903        0.734919 
        2.15372         2.66627        0.729633 
        2.15985         2.65883        0.724394 
        2.16599         2.64725         0.71919 
        2.17213         2.64194        0.714044 
        2.17827         2.62204        0.708948 
         2.1844         2.61922        0.703907 
        2.19054         2.60507        0.698913 
        2.19666         2.59245        0.693973 
         2.2028         2.57595        0.689078 
        2.20893         2.57392        0.684226 
        2.21508         2.55533        0.679416 
        2.22122         2.54618         0.67465 
        2.22736          2.5322         0.66994 
        2.23349         2.52061        0.665275 
        2.23962         2.51122        0.660652 
        2.24577         2.50401        0.656069 
         2.2519         2.49951        0.651535 
        2.25802         2.47702        0.647052 
        2.26417          2.4696        0.642598 
        2.27031         2.45696        0.638181 
        2.27644         2.45373        0.633818 
        2.28257         2.43917        0.629497 
        2.28872         2.42742        0.625207 
        2.29486         2.41984        0.620958 
        2.30099         2.41145        0.616757 
        2.30712         2.39904        0.612592 
        2.31326         2.39196        0.608459 
         2.3194          2.3791        0.604366 
        2.32553         2.37215        0.600318 
        2.33166         2.35871        0.596308 
         2.3378         2.35223        0.592329 
        2.34394         2.34011        0.588385 
        2.35007         2.33458        0.584482 
        2.35619         2.32679        0.580619 
        2.36233         2.31757        0.576781 
        2.36848         2.30495        0.572971 
        2.37462         2.29917        0.569202 
        2.38075         2.28764        0.565471 
        2.38689         2.28083         0.56177 
        2.39303         2.27132        0.558103 
        2.39916         2.26212        0.554472 
        2.40529         2.25205        0.550873 
        2.41143         2.25073        0.547304 
        2.41757         2.23744        0.543764 
         2.4237         2.22923        0.540263 
        2.42983         2.21789        0.536792 
        2.43598         2.21297        0.533342 
        2.44211          2.2009        0.529928 
        2.44823         2.19143        0.526552 
        2.45437         2.18682        0.523195 
        2.46052         2.18093        0.519865 
        2.46665          2.1697         0.51657 
        2.47279         2.16153        0.513304 
        2.47892         2.15237        0.510064 
        2.48507         2.14428        0.506848 
         2.4912         2.13643        0.503667 
