# k  (h/Mpc)    Pcb(k)  (Mpc/h)^3    Pcb_linear(k)  (Mpc/h)^3
     0.00783031         14473.3         14572.7 
       0.013688         15227.3         15580.3 
       0.019231         13803.2         13967.9 
      0.0249154         11561.9         11468.7 
      0.0312784         8797.25         8799.43 
      0.0375637         6790.43         6826.32 
      0.0433917         5672.37         5641.51 
      0.0492413          4932.5         4932.08 
      0.0555754         4517.26         4480.56 
      0.0619321         4060.74         4137.84 
       0.067871         3769.32         3782.85 
      0.0738098         3369.77         3353.05 
      0.0800417         2900.13         2858.21 
      0.0862327         2432.82          2396.2 
      0.0921407         2098.64         2039.92 
      0.0982031         1865.27         1782.83 
       0.104506         1665.39         1620.54 
       0.110769            1579          1530.6 
       0.116806         1530.18         1470.99 
       0.122832         1443.92         1404.27 
       0.129052         1348.23         1308.62 
       0.135211         1257.11         1187.74 
       0.141259         1119.42         1058.97 
       0.147318          998.82         938.973 
       0.153489         909.634         840.283 
       0.159709         856.476          769.93 
       0.165845          788.08         725.504 
       0.171974         775.732         696.871 
       0.178125          747.03         673.266 
       0.184229          697.84         646.264 
        0.19034         674.727         611.432 
       0.196428         641.329         569.746 
       0.202534         584.259         525.205 
       0.208729         563.658         482.603 
       0.214876         529.934         446.929 
       0.220989         493.458         419.502 
       0.227147         479.749         399.145 
        0.23329         460.415         383.687 
       0.239377         453.854         370.248 
       0.245482         429.201         356.215 
       0.251667         410.796          340.17 
       0.257832         401.829         322.427 
       0.263955         376.553         304.122 
       0.270079         358.389         286.551 
        0.27624         342.295         270.775 
       0.282372         332.628         257.496 
        0.28843         328.003         246.651 
       0.294538         310.797         237.384 
       0.300721         300.772         228.923 
        0.30691         294.482         220.618 
       0.313033         279.894         212.167 
       0.319153         274.513         203.398 
       0.325316         267.578         194.493 
        0.33145         259.177         185.891 
       0.337538         248.401         177.955 
       0.343633          240.68         170.778 
       0.349808         233.308         164.315 
       0.355968         228.421         158.524 
       0.362074          220.14          153.22 
       0.368217         217.149         148.117 
       0.374374         211.771         143.076 
       0.380519         202.654         138.082 
       0.386598         199.315         133.199 
       0.392688         192.973         128.446 
        0.39888         188.785         123.852 
       0.405048         183.731         119.566 
       0.411186         182.078         115.604 
       0.417313         178.276         111.931 
       0.423458         173.413         108.464 
       0.429607         167.956         105.151 
       0.435692         165.375         101.986 
       0.441815         161.544         98.8817 
       0.447964         156.901         95.8403 
       0.454126         154.452         92.8898 
       0.460267         152.195          90.065 
       0.466387         147.918          87.376 
        0.47254         146.253         84.8072 
       0.478662             142         82.3845 
       0.484765         139.481         80.0839 
       0.490885         137.034         77.8714 
       0.497035          134.97         75.7287 
       0.503198         133.352         73.6543 
       0.509342          130.01         71.6514 
       0.515458         127.491         69.7193 
       0.521598          124.33         67.8453 
       0.527764         123.281          66.034 
       0.533884         121.935         64.3087 
           0.54         119.157         62.6533 
       0.546137         116.302         61.0555 
       0.552299         114.463         59.5103 
       0.558452         112.655         58.0223 
       0.564573          112.13          56.592 
       0.570708          108.87         55.2046 
       0.576825         107.494         53.8644 
       0.582926         106.358         52.5695 
       0.589034         104.386         51.3147 
       0.595184         103.079         50.0935 
       0.601379         101.331          48.906 
       0.607522         98.6873         47.7685 
       0.613639         98.1373         46.6731 
       0.619772         96.6573         45.6099 
       0.625918         95.8377         44.5774 
       0.632068         93.3835         43.5756 
       0.638161         92.8403          42.613 
         0.6443         91.7704         41.6723 
       0.650464         89.8838         40.7567 
       0.656582         89.1666         39.8752 
       0.662703         88.3666         39.0198 
       0.668861         86.3434         38.1849 
       0.675024         86.1427         37.3739 
       0.681124         84.6742         36.5947 
       0.687237         83.7855         35.8362 
       0.693381         82.1775         35.0957 
       0.699536          81.685         34.3748 
       0.705665         80.6847         33.6774 
       0.711789         79.3434         32.9999 
       0.717957          78.474         32.3366 
        0.72409         77.4275         31.6952 
       0.730186         77.2221         31.0752 
       0.736317         76.2342         30.4684 
       0.742472          74.767         29.8757 
       0.748622         73.7185         29.2993 
        0.75476         73.7821         28.7393 
       0.760888         72.8271         28.1949 
       0.767043         71.4324         27.6624 
       0.773185         70.4583         27.1447 
       0.779291         69.8928         26.6433 
       0.785407         69.4059         26.1538 
       0.791564         68.6394         25.6735 
       0.797719         67.4723         25.2056 
       0.803834          67.378         24.7523 
       0.809972         66.6601         24.3086 
       0.816124         65.4513         23.8748 
       0.822261         64.8906         23.4527 
       0.828378         64.5931         23.0422 
       0.834502         64.0369         22.6411 
       0.840667         63.4179          22.247 
       0.846816         62.5453         21.8634 
       0.852925         61.9948         21.4913 
       0.859047         61.4164          21.127 
       0.865192         60.8434           20.77 
       0.871341         60.3422         20.4209 
       0.877463         59.6304         20.0815 
       0.883569         59.6119         19.7506 
       0.889708         58.9128         19.4255 
       0.895864         58.3688         19.1069 
       0.902008         57.5967         18.7961 
       0.908149         56.9602         18.4924 
       0.914301         56.7097         18.1949 
       0.920448          56.654         17.9042 
       0.926574         55.4177         17.6209 
       0.932687         55.2548         17.3443 
       0.938823         54.9033         17.0727 
       0.944975          54.296         16.8062 
       0.951105         53.7657         16.5465 
       0.957225         53.4844         16.2926 
       0.963368         52.9522         16.0432 
       0.969511         52.6297          15.799 
       0.975621         51.8535         15.5613 
       0.981748         51.6719         15.3278 
       0.987916         51.1065         15.0976 
        0.99406          50.956          14.873 
        1.00019           50.36         14.6534 
        1.00632         49.8987         14.4385 
        1.01246         49.6513         14.2276 
        1.01859         49.3092         14.0212 
        1.02471         48.9904         13.8191 
        1.03085         48.4624         13.6204 
        1.03698         48.1303         13.4259 
        1.04314         47.8012         13.2345 
        1.04929         47.5132         13.0472 
        1.05541         46.9981         12.8642 
        1.06154         46.6331         12.6843 
        1.06769         46.3139         12.5076 
        1.07382          45.947         12.3349 
        1.07993         45.7691         12.1657 
        1.08607         45.3676         11.9991 
        1.09222         45.1092         11.8354 
        1.09836         44.7648         11.6749 
        1.10449         44.4446         11.5176 
        1.11063          44.113          11.363 
        1.11677         44.0102         11.2113 
         1.1229         43.4477         11.0626 
        1.12903         43.2487         10.9165 
        1.13518         42.8729         10.7729 
        1.14131           42.66         10.6319 
        1.14745         42.4828         10.4935 
        1.15359         41.9398         10.3576 
        1.15973         41.8877          10.224 
        1.16584         41.6012         10.0934 
        1.17197          41.267         9.96486 
        1.17811         40.9958         9.83817 
        1.18424         40.5318         9.71404 
        1.19038          40.385         9.59169 
        1.19652         40.2466         9.47149 
        1.20267         39.8231         9.35335 
        1.20881         39.5763         9.23725 
        1.21495          39.379          9.1233 
        1.22108         39.2729         9.01128 
         1.2272         38.9318         8.90141 
        1.23334         38.7701         8.79311 
        1.23949         38.3911         8.68636 
        1.24562         38.1507         8.58167 
        1.25174         38.0645         8.47886 
        1.25789         37.8057         8.37742 
        1.26402         37.4897         8.27782 
        1.27014         37.3001         8.18008 
        1.27628         37.0903         8.08361 
        1.28244         37.0606         7.98852 
        1.28858         36.7025         7.89507 
        1.29471         36.3666         7.80333 
        1.30084         36.1406         7.71311 
        1.30697         36.0281         7.62419 
        1.31312         35.8824         7.53653 
        1.31925         35.5403         7.45052 
        1.32537           35.34         7.36593 
        1.33151         35.2067         7.28235 
        1.33765         35.0106         7.20011 
        1.34378         34.7859          7.1193 
        1.34992         34.5728         7.03967 
        1.35606         34.3191         6.96109 
         1.3622         34.2072         6.88383 
        1.36833         34.0415         6.80794 
        1.37445         33.7706         6.73322 
        1.38059         33.5678         6.65939 
        1.38675         33.4308         6.58649 
        1.39288         33.2897         6.51496 
        1.39901         33.0258         6.44453 
        1.40515         32.8219         6.37497 
         1.4113         32.7713         6.30647 
        1.41742         32.5238         6.23923 
        1.42355         32.3564         6.17284 
         1.4297         32.2493         6.10722 
        1.43585           32.13         6.04257 
        1.44198         31.8164          5.9791 
        1.44809         31.6039         5.91666 
        1.45423         31.5755         5.85488 
        1.46036         31.4162         5.79409 
        1.46649         31.1522         5.73414 
        1.47263         30.9895         5.67499 
        1.47877         30.8092          5.6167 
        1.48491         30.5926         5.55913 
        1.49104         30.5775         5.50248 
        1.49718          30.362         5.44658 
        1.50333         30.2649         5.39137 
        1.50947         30.0312         5.33703 
         1.5156          29.959         5.28351 
        1.52172         29.7294         5.23073 
        1.52787         29.6958         5.17856 
          1.534         29.4296         5.12717 
        1.54013         29.4179         5.07652 
        1.54627         29.1471         5.02646 
        1.55241         29.0841         4.97707 
        1.55855         28.9118          4.9284 
        1.56467         28.6272         4.88052 
         1.5708           28.69         4.83314 
        1.57695         28.4748         4.78631 
        1.58308         28.3465         4.74021 
        1.58922         28.1608         4.69469 
        1.59535         28.1295         4.64977 
         1.6015          28.036         4.60538 
        1.60764         27.8191         4.56158 
        1.61376         27.6557         4.51847 
        1.61989         27.4865         4.47588 
        1.62604         27.3513         4.43375 
        1.63218         27.1613         4.39217 
        1.63831         27.1095         4.35123 
        1.64444         26.9836         4.31079 
        1.65059         26.8504         4.27076 
        1.65673         26.7438         4.23129 
        1.66285         26.6125         4.19242 
        1.66898          26.506         4.15402 
        1.67512         26.2785         4.11603 
        1.68127          26.269         4.07848 
         1.6874         26.1776         4.04148 
        1.69353         25.9779         4.00496 
        1.69967         25.8832          3.9688 
        1.70581         25.7921          3.9331 
        1.71193         25.5966         3.89798 
        1.71806         25.5496          3.8632 
        1.72421         25.3485         3.82878 
        1.73035         25.3467         3.79482 
        1.73649         25.1775         3.76127 
        1.74262         25.0352         3.72816 
        1.74876         25.0347         3.69542 
        1.75489         24.8263         3.66314 
        1.76101         24.8096         3.63125 
        1.76715         24.5853          3.5997 
        1.77329         24.4821         3.56848 
        1.77943         24.4158         3.53762 
        1.78557          24.339         3.50716 
        1.79171         24.1901         3.47706 
        1.79785          24.093          3.4473 
        1.80399          23.959          3.4179 
        1.81012         23.8485         3.38888 
        1.81625         23.7482         3.36021 
        1.82239         23.6138         3.33182 
        1.82853         23.5623         3.30378 
        1.83466         23.3919         3.27608 
        1.84078         23.3359         3.24873 
        1.84692         23.1976         3.22164 
        1.85306         23.1263         3.19483 
         1.8592         22.9644         3.16836 
        1.86533         22.9292         3.14221 
        1.87147         22.8006         3.11632 
        1.87761         22.7604         3.09071 
        1.88375         22.6179         3.06541 
        1.88988         22.4457         3.04043 
        1.89601         22.4359         3.01571 
        1.90215         22.3521         2.99124 
        1.90829         22.2174         2.96705 
        1.91442         22.1357         2.94313 
        1.92056         22.0366         2.91949 
         1.9267         21.9432         2.89609 
        1.93284         21.9072         2.87292 
        1.93897         21.7918         2.85006 
        1.94509         21.7149         2.82749 
        1.95123         21.5739         2.80511 
        1.95737           21.52         2.78295 
        1.96349         21.4462         2.76108 
        1.96964         21.3501         2.73939 
        1.97578         21.2276         2.71792 
        1.98192         21.1531         2.69672 
        1.98805         21.0295         2.67575 
        1.99419         20.9417         2.65499 
        2.00033         20.8564         2.63445 
        2.00647          20.781         2.61413 
         2.0126         20.7129         2.59405 
        2.01874         20.6238         2.57415 
        2.02488         20.4996         2.55445 
        2.03101          20.451         2.53498 
        2.03714         20.3724         2.51574 
        2.04328         20.2923         2.49667 
        2.04941         20.1414         2.47781 
        2.05554         20.1022         2.45917 
        2.06167         20.0149         2.44068 
        2.06781         19.9209         2.42239 
        2.07396         19.8588         2.40425 
        2.08009         19.7467         2.38634 
        2.08622         19.6799         2.36862 
        2.09237          19.606         2.35105 
        2.09851         19.5453         2.33365 
        2.10464         19.4777         2.31646 
        2.11077         19.4008         2.29946 
        2.11691         19.2739         2.28259 
        2.12305          19.206         2.26589 
        2.12918         19.1812         2.24939 
        2.13531         18.9976         2.23306 
        2.14145         18.9902         2.21685 
         2.1476         18.8922         2.20078 
        2.15372         18.8522         2.18495 
        2.15985         18.7503         2.16926 
        2.16599         18.6511         2.15368 
        2.17213         18.6625         2.13827 
        2.17827         18.5409         2.12301 
         2.1844         18.4503         2.10791 
        2.19054         18.3908         2.09296 
        2.19666          18.298         2.07817 
         2.2028         18.2406         2.06351 
        2.20893         18.1906         2.04898 
        2.21508         18.1169         2.03457 
        2.22122         18.0408          2.0203 
        2.22736         17.9626          2.0062 
        2.23349         17.9363         1.99223 
        2.23962         17.8431         1.97838 
        2.24577         17.7712         1.96466 
         2.2519         17.6823         1.95108 
        2.25802         17.5942         1.93766 
        2.26417         17.5074         1.92432 
        2.27031         17.4424         1.91109 
        2.27644         17.4042         1.89803 
        2.28257         17.3536         1.88509 
        2.28872         17.2562         1.87224 
        2.29486         17.2124         1.85952 
        2.30099         17.1469         1.84693 
        2.30712         17.0857         1.83446 
        2.31326         17.0008         1.82209 
         2.3194         16.9349         1.80983 
        2.32553         16.8935         1.79771 
        2.33166         16.8093          1.7857 
         2.3378         16.7391         1.77378 
        2.34394          16.707         1.76197 
        2.35007         16.6068         1.75028 
        2.35619         16.5546         1.73872 
        2.36233         16.4892         1.72722 
        2.36848         16.4504         1.71581 
        2.37462         16.4076         1.70453 
        2.38075         16.3054         1.69335 
        2.38689         16.2635         1.68227 
        2.39303         16.1648         1.67129 
        2.39916         16.1234         1.66042 
        2.40529         16.0563         1.64964 
        2.41143         16.0244         1.63895 
        2.41757         15.9231         1.62835 
         2.4237         15.8625         1.61786 
        2.42983         15.7817         1.60747 
        2.43598         15.7564         1.59714 
        2.44211         15.6774         1.58692 
        2.44823         15.6152         1.57681 
        2.45437         15.5792         1.56675 
        2.46052         15.5113         1.55678 
        2.46665         15.4751         1.54691 
        2.47279         15.3728         1.53713 
        2.47892         15.3861         1.52743 
        2.48507         15.2658          1.5178 
         2.4912         15.2245         1.50827 
