# k  (h/Mpc)    Pcb(k)  (Mpc/h)^3    Pcb_linear(k)  (Mpc/h)^3
     0.00783031         1050.74         1058.18 
       0.013688         1310.51         1323.57 
       0.019231         1363.31         1369.11 
      0.0249154         1301.03         1300.87 
      0.0312784         1160.53         1162.21 
      0.0375637         1011.45         1014.26 
      0.0433917         895.239         893.845 
      0.0492413         797.087         798.257 
      0.0555754         724.087         721.815 
      0.0619321         660.244         665.322 
       0.067871         621.096         621.875 
      0.0738098         579.938         580.303 
      0.0800417         535.176         534.384 
      0.0862327         485.207         485.878 
      0.0921407         438.742         439.145 
      0.0982031         395.453         394.154 
       0.104506         352.815         353.747 
       0.110769         321.422         321.689 
       0.116806         300.283         298.271 
       0.122832         281.039         280.736 
       0.129052         267.808         266.475 
       0.135211         255.926         253.819 
       0.141259         241.916         241.036 
       0.147318         226.569         227.015 
       0.153489         212.166          211.57 
       0.159709         197.295         195.649 
       0.165845         180.531         180.703 
       0.171974         169.954         167.477 
       0.178125         158.937         156.433 
       0.184229         149.267         147.699 
        0.19034         143.525         140.787 
       0.196428         137.612          135.09 
       0.202534         130.912          129.89 
       0.208729         126.771         124.572 
       0.214876         121.742          118.94 
       0.220989         114.324          112.96 
       0.227147         109.772         106.761 
        0.23329         104.045         100.721 
       0.239377         98.9346         95.1828 
       0.245482         93.7413         90.2775 
       0.251667         89.0163         86.0388 
       0.257832         86.4763         82.4728 
       0.263955         82.5301         79.4135 
       0.270079         79.7001         76.6312 
        0.27624         76.5143         73.9249 
       0.282372         73.9184         71.1982 
        0.28843           72.12         68.4301 
       0.294538          69.006         65.5906 
       0.300721         65.7181         62.7491 
        0.30691          63.767         60.0284 
       0.313033         61.0339         57.5378 
       0.319153         59.4821         55.2857 
       0.325316         56.6794         53.2588 
        0.33145         54.7569         51.4433 
       0.337538         53.2132          49.787 
       0.343633         51.7971         48.2138 
       0.349808         50.0502         46.6616 
       0.355968         48.4653         45.1236 
       0.362074         47.3441         43.6076 
       0.368217         45.7718         42.1026 
       0.374374          44.654          40.638 
       0.380519         42.7656         39.2453 
       0.386598          41.392         37.9501 
       0.392688         40.1241         36.7435 
        0.39888         39.2268         35.6035 
       0.405048          38.242         34.5417 
       0.411186         37.1756         33.5419 
       0.417313         36.1502         32.5821 
       0.423458         35.0448         31.6461 
       0.429607         34.4156         30.7306 
       0.435692         33.7028         29.8434 
       0.441815         32.4516         28.9742 
       0.447964         31.4626         28.1316 
       0.454126          30.863         27.3221 
       0.460267         30.4269         26.5537 
       0.466387         29.5147         25.8276 
        0.47254         28.9857         25.1333 
       0.478662         28.1292          24.474 
       0.484765         27.5022         23.8434 
       0.490885         26.7149         23.2328 
       0.497035         26.1561          22.637 
       0.503198         25.6094         22.0564 
       0.509342         24.9031         21.4942 
       0.515458         24.5344         20.9514 
       0.521598         23.9676         20.4242 
       0.527764         23.5836         19.9138 
       0.533884         22.9202         19.4269 
           0.54         22.5028         18.9594 
       0.546137          21.839         18.5078 
       0.552299           21.45         18.0706 
       0.558452         20.9938         17.6491 
       0.564573         20.7113          17.243 
       0.570708         20.2255         16.8479 
       0.576825         19.8714          16.465 
       0.582926         19.4734         16.0941 
       0.589034         19.1021         15.7337 
       0.595184         18.8439          15.382 
       0.601379         18.3434         15.0391 
       0.607522          18.025         14.7098 
       0.613639         17.6534         14.3923 
       0.619772         17.3831         14.0841 
       0.625918         17.0232         13.7848 
       0.632068         16.8274         13.4943 
       0.638161         16.4942         13.2148 
         0.6443         16.1889         12.9409 
       0.650464         15.7973         12.6734 
       0.656582         15.6819         12.4152 
       0.662703         15.4627         12.1641 
       0.668861         15.0432         11.9185 
       0.675024         14.8166         11.6797 
       0.681124         14.7652           11.45 
       0.687237         14.4368         11.2261 
       0.693381         14.0796         11.0073 
       0.699536         14.0088         10.7941 
       0.705665         13.7461         10.5875 
       0.711789         13.4727         10.3865 
       0.717957         13.2011         10.1894 
        0.72409         13.0782         9.99849 
       0.730186         12.9824         9.81366 
       0.736317         12.6961         9.63247 
       0.742472         12.5349         9.45519 
       0.748622         12.3443         9.28254 
        0.75476         12.0348         9.11459 
       0.760888          11.957          8.9511 
       0.767043         11.7182         8.79102 
       0.773185         11.5801         8.63525 
       0.779291         11.5042         8.48419 
       0.785407         11.2813         8.33657 
       0.791564          11.155         8.19157 
       0.797719         10.9371         8.05012 
       0.803834         10.8482         7.91292 
       0.809972         10.6493         7.77845 
       0.816124         10.5266         7.64682 
       0.822261         10.3927          7.5186 
       0.828378         10.2466         7.39372 
       0.834502         10.1308         7.27158 
       0.840667          10.025         7.15143 
       0.846816          9.8179         7.03435 
       0.852925         9.73423         6.92065 
       0.859047         9.60886         6.80924 
       0.865192         9.47746         6.69994 
       0.871341          9.3445         6.59297 
       0.877463         9.22932         6.48884 
       0.883569         9.14704         6.38723 
       0.889708          9.0082         6.28729 
       0.895864         8.89557         6.18924 
       0.902008         8.77755          6.0935 
       0.908149         8.65902         5.99984 
       0.914301         8.58914         5.90801 
       0.920448         8.47424         5.81819 
       0.926574         8.42599         5.73057 
       0.932687         8.28471         5.64493 
       0.938823         8.16171         5.56075 
       0.944975         8.10299          5.4781 
       0.951105         7.97532         5.39743 
       0.957225         7.92689         5.31853 
       0.963368         7.82932         5.24095 
       0.969511         7.73881         5.16491 
       0.975621         7.64616          5.0908 
       0.981748         7.52261         5.01796 
       0.987916         7.46417          4.9461 
        0.99406         7.41115         4.87591 
        1.00019         7.33394         4.80724 
        1.00632         7.25903         4.73996 
        1.01246         7.16007         4.67387 
        1.01859         7.08437         4.60915 
        1.02471          6.9809         4.54575 
        1.03085         6.95115         4.48332 
        1.03698         6.87679         4.42221 
        1.04314          6.8071         4.36198 
        1.04929          6.7098         4.30302 
        1.05541         6.65418          4.2454 
        1.06154         6.59635         4.18869 
        1.06769         6.56474         4.13293 
        1.07382         6.44888         4.07838 
        1.07993          6.3772         4.02494 
        1.08607         6.34476         3.97225 
        1.09222         6.25978         3.92044 
        1.09836         6.24605         3.86962 
        1.10449         6.11867         3.81977 
        1.11063         6.09385         3.77074 
        1.11677         6.04388          3.7226 
         1.1229         5.97994         3.67538 
        1.12903         5.93782         3.62894 
        1.13518         5.85008         3.58326 
        1.14131         5.80006          3.5384 
        1.14745         5.73112         3.49434 
        1.15359         5.68679         3.45101 
        1.15973         5.62915         3.40841 
        1.16584          5.5853         3.36672 
        1.17197         5.53038         3.32566 
        1.17811         5.47739         3.28516 
        1.18424         5.42869         3.24546 
        1.19038         5.38754          3.2063 
        1.19652          5.3478          3.1678 
        1.20267         5.30077         3.12994 
        1.20881         5.24775          3.0927 
        1.21495         5.20134         3.05613 
        1.22108         5.16004         3.02016 
         1.2272         5.09863         2.98486 
        1.23334         5.09118         2.95003 
        1.23949         5.02507         2.91569 
        1.24562          4.9889         2.88198 
        1.25174         4.95499         2.84886 
        1.25789         4.88492         2.81616 
        1.26402         4.85353         2.78404 
        1.27014         4.81892          2.7525 
        1.27628         4.76916         2.72135 
        1.28244         4.74475         2.69062 
        1.28858         4.71259         2.66041 
        1.29471         4.64912         2.63074 
        1.30084         4.61134         2.60155 
        1.30697         4.59218         2.57275 
        1.31312         4.55021         2.54435 
        1.31925         4.51148         2.51648 
        1.32537         4.48329         2.48904 
        1.33151         4.43971         2.46192 
        1.33765         4.40765         2.43522 
        1.34378         4.38692         2.40897 
        1.34992         4.34515         2.38309 
        1.35606         4.31382         2.35753 
         1.3622         4.28229          2.3324 
        1.36833         4.23833         2.30769 
        1.37445         4.20086         2.28335 
        1.38059         4.17387         2.25929 
        1.38675         4.14175         2.23552 
        1.39288          4.1222         2.21219 
        1.39901         4.07602          2.1892 
        1.40515         4.05427         2.16648 
         1.4113         4.02408          2.1441 
        1.41742         3.98981         2.12212 
        1.42355         3.95892          2.1004 
         1.4297         3.93854         2.07893 
        1.43585          3.9108         2.05776 
        1.44198         3.87827         2.03697 
        1.44809         3.85886          2.0165 
        1.45423         3.82853         1.99625 
        1.46036          3.8023          1.9763 
        1.46649         3.76369         1.95662 
        1.47263         3.75389         1.93719 
        1.47877         3.72726         1.91804 
        1.48491         3.69576         1.89911 
        1.49104         3.67016         1.88049 
        1.49718         3.64972         1.86209 
        1.50333          3.6196         1.84392 
        1.50947         3.59017         1.82602 
         1.5156         3.57269         1.80839 
        1.52172         3.55065         1.79099 
        1.52787         3.52614         1.77378 
          1.534         3.50518         1.75683 
        1.54013         3.47839         1.74011 
        1.54627         3.45463         1.72358 
        1.55241         3.42563         1.70726 
        1.55855         3.41248         1.69118 
        1.56467         3.38862         1.67535 
         1.5708          3.3664         1.65967 
        1.57695         3.33524         1.64418 
        1.58308         3.31273         1.62892 
        1.58922         3.30443         1.61384 
        1.59535         3.27651         1.59895 
         1.6015         3.25114         1.58424 
        1.60764          3.2383         1.56972 
        1.61376         3.21089         1.55542 
        1.61989         3.18919         1.54128 
        1.62604         3.16724         1.52729 
        1.63218         3.15758         1.51349 
        1.63831         3.14209         1.49988 
        1.64444         3.11623         1.48644 
        1.65059         3.10339         1.47313 
        1.65673         3.07466            1.46 
        1.66285         3.05857         1.44706 
        1.66898         3.04176         1.43428 
        1.67512         3.01643         1.42162 
        1.68127         2.99842         1.40911 
         1.6874         2.99288         1.39677 
        1.69353          2.9606         1.38459 
        1.69967         2.94745         1.37253 
        1.70581          2.9358         1.36062 
        1.71193         2.90502         1.34889 
        1.71806         2.89436         1.33727 
        1.72421         2.88115         1.32577 
        1.73035         2.85913         1.31442 
        1.73649         2.84854          1.3032 
        1.74262         2.83049         1.29212 
        1.74876         2.81261         1.28117 
        1.75489         2.79705         1.27036 
        1.76101         2.77717         1.25968 
        1.76715          2.7685         1.24911 
        1.77329          2.7472         1.23865 
        1.77943         2.73259          1.2283 
        1.78557         2.71878         1.21809 
        1.79171         2.70701         1.20799 
        1.79785         2.69072           1.198 
        1.80399         2.67354         1.18813 
        1.81012         2.65821         1.17839 
        1.81625         2.63928         1.16875 
        1.82239         2.63015         1.15921 
        1.82853         2.61392         1.14978 
        1.83466         2.59271         1.14047 
        1.84078         2.58173         1.13127 
        1.84692         2.56923         1.12215 
        1.85306         2.55818         1.11313 
         1.8592         2.54257         1.10421 
        1.86533         2.52853          1.0954 
        1.87147         2.51606         1.08668 
        1.87761         2.50588         1.07805 
        1.88375         2.48931         1.06952 
        1.88988         2.47733         1.06109 
        1.89601         2.45922         1.05275 
        1.90215         2.44543         1.04449 
        1.90829          2.4408         1.03632 
        1.91442         2.42134         1.02825 
        1.92056         2.41484         1.02026 
         1.9267         2.40196         1.01235 
        1.93284         2.38756         1.00452 
        1.93897         2.37018        0.996785 
        1.94509         2.36415         0.98915 
        1.95123         2.34918        0.981575 
        1.95737         2.34055        0.974075 
        1.96349         2.32603        0.966671 
        1.96964         2.31628        0.959324 
        1.97578         2.30256        0.952049 
        1.98192         2.28659        0.944864 
        1.98805         2.28151        0.937753 
        1.99419          2.2668        0.930714 
        2.00033         2.25305        0.923745 
        2.00647         2.24925        0.916848 
         2.0126         2.23807        0.910034 
        2.01874         2.22549        0.903278 
        2.02488         2.21227        0.896585 
        2.03101         2.20169        0.889972 
        2.03714         2.19473        0.883432 
        2.04328         2.18161        0.876951 
        2.04941         2.17198        0.870539 
        2.05554         2.16153        0.864196 
        2.06167         2.14856        0.857908 
        2.06781         2.13917        0.851681 
        2.07396          2.1292        0.845508 
        2.08009         2.12239        0.839406 
        2.08622         2.10972        0.833371 
        2.09237         2.10429        0.827384 
        2.09851         2.08682        0.821454 
        2.10464         2.08348        0.815592 
        2.11077         2.07416        0.809795 
        2.11691         2.06003        0.804041 
        2.12305         2.05144        0.798342 
        2.12918         2.03955        0.792713 
        2.13531         2.03204        0.787137 
        2.14145         2.02385        0.781602 
         2.1476         2.01006        0.776114 
        2.15372         2.00231        0.770706 
        2.15985         1.99338        0.765344 
        2.16599         1.98868        0.760018 
        2.17213         1.97918        0.754748 
        2.17827         1.96678        0.749529 
         2.1844         1.95817        0.744365 
        2.19054         1.95012        0.739247 
        2.19666         1.94169        0.734184 
         2.2028         1.93116        0.729164 
        2.20893         1.92375        0.724188 
        2.21508         1.91706        0.719254 
        2.22122         1.90831        0.714363 
        2.22736         1.89569        0.709528 
        2.23349         1.88832        0.704739 
        2.23962         1.88421        0.699992 
        2.24577         1.87357        0.695284 
         2.2519         1.86412        0.690626 
        2.25802            1.86        0.686017 
        2.26417         1.85054        0.681438 
        2.27031         1.84149        0.676897 
        2.27644         1.83477         0.67241 
        2.28257         1.82266        0.667964 
        2.28872         1.81972         0.66355 
        2.29486         1.80961        0.659176 
        2.30099         1.79992        0.654851 
        2.30712         1.79725        0.650563 
        2.31326         1.78807        0.646305 
         2.3194         1.77876        0.642089 
        2.32553         1.77375        0.637917 
        2.33166         1.76843        0.633783 
         2.3378          1.7591        0.629681 
        2.34394         1.74987        0.625614 
        2.35007         1.73941        0.621588 
        2.35619         1.73701        0.617602 
        2.36233          1.7293        0.613642 
        2.36848         1.72282        0.609709 
        2.37462         1.71541        0.605818 
        2.38075         1.70776        0.601965 
        2.38689         1.70358        0.598142 
        2.39303         1.69654        0.594353 
        2.39916         1.68602          0.5906 
        2.40529         1.68186        0.586881 
        2.41143         1.67371         0.58319 
        2.41757         1.66934         0.57953 
         2.4237         1.66136        0.575907 
        2.42983         1.65385        0.572316 
        2.43598         1.64943        0.568746 
        2.44211         1.64172        0.565213 
        2.44823         1.63586        0.561717 
        2.45437         1.62902        0.558241 
        2.46052         1.62316        0.554792 
        2.46665         1.61774        0.551378 
        2.47279          1.6093        0.547993 
        2.47892          1.6033        0.544635 
        2.48507         1.59641        0.541302 
         2.4912         1.59175        0.538003 
