# k  (h/Mpc)    Pcb(k)  (Mpc/h)^3    Pcb_linear(k)  (Mpc/h)^3
     0.00783031         1216.12         1228.41 
       0.013688         1464.52         1466.33 
       0.019231         1440.74         1440.27 
      0.0249154          1284.2         1290.81 
      0.0312784         1083.38         1083.35 
      0.0375637         906.145         902.969 
      0.0433917         779.177         779.579 
      0.0492413          697.14          695.99 
      0.0555754         633.527         636.245 
      0.0619321         592.494          589.88 
       0.067871         543.888         545.675 
      0.0738098         493.325         495.099 
      0.0800417         434.523         436.937 
      0.0862327         380.102          380.43 
      0.0921407         334.694         333.885 
      0.0982031         297.125         297.168 
       0.104506         273.222         270.966 
       0.110769         255.749         254.139 
       0.116806          242.53         242.473 
       0.122832         232.274         231.352 
       0.129052         217.322         217.679 
       0.135211         201.043         201.256 
       0.141259         184.528         183.509 
       0.147318         168.021         166.164 
       0.153489         152.271         150.868 
       0.159709         140.595         138.938 
       0.165845         133.167         130.571 
       0.171974         126.126         124.726 
       0.178125         121.627         120.098 
       0.184229         117.194          115.51 
        0.19034         110.662         110.133 
       0.196428         105.256         103.822 
       0.202534          99.272         96.9138 
       0.208729          91.985         89.9907 
       0.214876         85.4966         83.8488 
       0.220989         81.2563         78.8327 
       0.227147         76.6162         74.9192 
        0.23329         73.5796         71.9096 
       0.239377         71.2878          69.415 
       0.245482          68.191         66.9978 
       0.251667         66.1942         64.3518 
       0.257832         63.2145         61.4263 
       0.263955         60.1996         58.3242 
       0.270079         57.1889         55.2267 
        0.27624         54.7911         52.3294 
       0.282372         52.2929         49.8065 
        0.28843         49.9231         47.7111 
       0.294538          48.047         45.9376 
       0.300721           46.81         44.3737 
        0.30691         44.9322         42.8984 
       0.313033           43.47          41.426 
       0.319153         41.4437          39.888 
       0.325316         40.4987         38.2889 
        0.33145         38.7704         36.6967 
       0.337538         37.3894         35.1863 
       0.343633         35.8615         33.7942 
       0.349808         34.7224         32.5351 
       0.355968         33.6245         31.4194 
       0.362074         32.5319         30.4203 
       0.368217         31.5717           29.48 
       0.374374         30.5289         28.5603 
       0.380519         29.7229         27.6451 
       0.386598         28.8481         26.7349 
       0.392688         28.0774         25.8303 
        0.39888         27.1121         24.9393 
       0.405048         26.3395         24.0977 
       0.411186         25.5999         23.3183 
       0.417313         24.7333         22.6009 
       0.423458         24.0802         21.9321 
       0.429607         23.3863         21.3014 
       0.435692         22.6987         20.7031 
       0.441815         22.1842         20.1145 
       0.447964         21.7365         19.5324 
       0.454126         20.9201         18.9607 
       0.460267         20.4555         18.4062 
       0.466387         19.7975         17.8736 
        0.47254         19.4061         17.3636 
       0.478662         19.0033         16.8841 
       0.484765          18.414         16.4315 
       0.490885         17.9698         15.9988 
       0.497035         17.7098         15.5817 
       0.503198          17.212         15.1781 
       0.509342         16.7803         14.7867 
       0.515458         16.3659          14.406 
       0.521598         16.0325          14.034 
       0.527764         15.6282         13.6727 
       0.533884         15.3475         13.3275 
           0.54         14.9786         12.9963 
       0.546137         14.6863         12.6769 
       0.552299         14.4006         12.3688 
       0.558452         13.9592          12.073 
       0.564573         13.7465         11.7889 
       0.570708         13.4663         11.5129 
       0.576825         13.1158         11.2453 
       0.582926         12.8708         10.9854 
       0.589034         12.5091         10.7327 
       0.595184         12.3139         10.4863 
       0.601379         12.0374         10.2464 
       0.607522         11.8483         10.0168 
       0.613639         11.6802         9.79574 
       0.619772         11.3567         9.58114 
       0.625918         11.2478         9.37265 
       0.632068          11.059         9.17016 
       0.638161         10.7818         8.97535 
         0.6443         10.5571         8.78472 
       0.650464         10.3382         8.59888 
       0.656582         10.2437         8.41972 
       0.662703         10.0433         8.24561 
       0.668861         9.85473         8.07544 
       0.675024           9.652         7.90997 
       0.681124         9.47708         7.75084 
       0.687237         9.32662         7.59584 
       0.693381         9.19085         7.44442 
       0.699536         8.93957         7.29693 
       0.705665         8.83838         7.15412 
       0.711789         8.68182          7.0153 
       0.717957         8.52861         6.87924 
        0.72409          8.3824         6.74755 
       0.730186         8.26069         6.62011 
       0.736317         8.16642         6.49526 
       0.742472         8.02976         6.37318 
       0.748622         7.89229         6.25435 
        0.75476         7.72765         6.13881 
       0.760888         7.62108         6.02637 
       0.767043         7.52524          5.9163 
       0.773185         7.36891         5.80923 
       0.779291         7.30219         5.70542 
       0.785407         7.18151         5.60401 
       0.791564         7.06878         5.50444 
       0.797719          6.9397         5.40736 
       0.803834         6.88553         5.31324 
       0.809972         6.80098         5.22104 
       0.816124         6.65685         5.13084 
       0.822261         6.54646         5.04302 
       0.828378         6.46634         4.95754 
       0.834502         6.40848         4.87398 
       0.840667         6.28077         4.79181 
       0.846816         6.17338         4.71178 
       0.852925         6.11815         4.63409 
       0.859047         6.03284           4.558 
       0.865192         5.96961         4.48337 
       0.871341         5.90005         4.41037 
       0.877463         5.80456         4.33933 
       0.883569         5.70612         4.27004 
       0.889708         5.61381         4.20192 
       0.895864         5.55391         4.13512 
       0.902008         5.48796         4.06991 
       0.908149         5.42773         4.00615 
       0.914301         5.33952         3.94365 
       0.920448         5.26366         3.88255 
       0.926574         5.19242         3.82297 
       0.932687         5.13781         3.76476 
       0.938823         5.07111         3.70756 
       0.944975         5.00294         3.65141 
       0.951105         4.94962         3.59664 
       0.957225          4.9225         3.54308 
       0.963368         4.84931         3.49044 
       0.969511         4.78324         3.43886 
       0.975621         4.71784         3.38861 
       0.981748         4.66846         3.33923 
       0.987916         4.61663         3.29053 
        0.99406         4.53823         3.24298 
        1.00019         4.48058         3.19647 
        1.00632         4.45094         3.15091 
        1.01246          4.3969         3.10617 
        1.01859         4.33754         3.06238 
        1.02471         4.29186         3.01949 
        1.03085         4.24096         2.97727 
        1.03698         4.18427         2.93595 
        1.04314         4.14853         2.89524 
        1.04929         4.09611          2.8554 
        1.05541         4.04694         2.81648 
        1.06154         4.00943         2.77818 
        1.06769         3.98355         2.74054 
        1.07382           3.917         2.70372 
        1.07993         3.86978         2.66767 
        1.08607         3.84785         2.63212 
        1.09222         3.79995         2.59719 
        1.09836         3.76259         2.56293 
        1.10449         3.72238         2.52934 
        1.11063         3.67733         2.49631 
        1.11677         3.64714         2.46388 
         1.1229         3.60983         2.43208 
        1.12903         3.56436         2.40082 
        1.13518         3.52973         2.37009 
        1.14131         3.48369         2.33991 
        1.14745          3.4381         2.31027 
        1.15359         3.41935         2.28114 
        1.15973         3.37499          2.2525 
        1.16584         3.34593         2.22449 
        1.17197         3.31288          2.1969 
        1.17811         3.28935         2.16971 
        1.18424         3.25711         2.14305 
        1.19038          3.2297         2.11676 
        1.19652         3.19405         2.09093 
        1.20267         3.16194         2.06552 
        1.20881         3.13363         2.04054 
        1.21495         3.10542         2.01602 
        1.22108         3.07353          1.9919 
         1.2272         3.05288         1.96823 
        1.23334         3.01212         1.94489 
        1.23949         2.98186         1.92188 
        1.24562         2.96439          1.8993 
        1.25174         2.92824         1.87712 
        1.25789         2.90695         1.85522 
        1.26402         2.87694         1.83372 
        1.27014         2.84952          1.8126 
        1.27628         2.83131         1.79176 
        1.28244         2.79426          1.7712 
        1.28858         2.77995           1.751 
        1.29471         2.74622         1.73115 
        1.30084         2.71965         1.71163 
        1.30697         2.71301         1.69239 
        1.31312         2.66418         1.67341 
        1.31925         2.65113         1.65478 
        1.32537         2.62632         1.63646 
        1.33151          2.6122         1.61834 
        1.33765         2.57737         1.60051 
        1.34378         2.56002         1.58299 
        1.34992         2.54689         1.56572 
        1.35606         2.50849         1.54866 
         1.3622         2.49949         1.53189 
        1.36833         2.47593         1.51541 
        1.37445         2.45295         1.49918 
        1.38059         2.44133         1.48314 
        1.38675         2.42474         1.46729 
        1.39288           2.398         1.45174 
        1.39901         2.37199         1.43642 
        1.40515         2.35518         1.42129 
         1.4113         2.33876         1.40638 
        1.41742         2.32077         1.39174 
        1.42355         2.30437         1.37728 
         1.4297         2.28044         1.36299 
        1.43585         2.26886          1.3489 
        1.44198         2.25395         1.33506 
        1.44809         2.22817         1.32145 
        1.45423         2.21028         1.30797 
        1.46036         2.19103         1.29471 
        1.46649         2.17573         1.28162 
        1.47263         2.15696          1.2687 
        1.47877         2.13758         1.25597 
        1.48491         2.12258          1.2434 
        1.49104            2.11         1.23102 
        1.49718         2.09448          1.2188 
        1.50333         2.07791         1.20673 
        1.50947         2.06291         1.19484 
         1.5156         2.04589         1.18313 
        1.52172          2.0312         1.17158 
        1.52787         2.01596         1.16016 
          1.534         1.99954         1.14891 
        1.54013          1.9861         1.13782 
        1.54627         1.96816         1.12685 
        1.55241         1.95269         1.11603 
        1.55855         1.94266         1.10536 
        1.56467         1.92982         1.09486 
         1.5708          1.9107         1.08447 
        1.57695         1.89886          1.0742 
        1.58308         1.88392         1.06408 
        1.58922         1.87402         1.05409 
        1.59535         1.85984         1.04423 
         1.6015         1.84594         1.03448 
        1.60764         1.83506         1.02486 
        1.61376         1.82309         1.01539 
        1.61989         1.80744         1.00603 
        1.62604         1.79335        0.996771 
        1.63218         1.78805        0.987631 
        1.63831         1.76921        0.978626 
        1.64444         1.75733         0.96973 
        1.65059         1.74769        0.960923 
        1.65673         1.73531        0.952235 
        1.66285         1.72162        0.943678 
        1.66898         1.71293        0.935223 
        1.67512         1.69629        0.926856 
        1.68127         1.68608        0.918583 
         1.6874         1.68077        0.910429 
        1.69353         1.66012        0.902379 
        1.69967         1.65092        0.894407 
        1.70581         1.64652        0.886535 
        1.71193         1.63136        0.878787 
        1.71806         1.62459        0.871115 
        1.72421         1.61254         0.86352 
        1.73035         1.60109        0.856023 
        1.73649         1.59074        0.848617 
        1.74262         1.58025        0.841304 
        1.74876         1.57257        0.834072 
        1.75489         1.55732        0.826941 
        1.76101         1.54805        0.819894 
        1.76715         1.54057         0.81292 
        1.77329          1.5322        0.806018 
        1.77943         1.51775        0.799193 
        1.78557         1.50954        0.792457 
        1.79171          1.5046        0.785798 
        1.79785         1.49046        0.779213 
        1.80399         1.48265        0.772706 
        1.81012         1.47573        0.766281 
        1.81625         1.46475        0.759932 
        1.82239         1.45435        0.753645 
        1.82853         1.44187        0.747433 
        1.83466         1.43798        0.741296 
        1.84078         1.42857        0.735235 
        1.84692          1.4219        0.729231 
        1.85306         1.41032        0.723287 
         1.8592         1.40205        0.717418 
        1.86533         1.39302        0.711618 
        1.87147         1.38749        0.705875 
        1.87761         1.37763        0.700192 
        1.88375         1.36743        0.694579 
        1.88988         1.36254        0.689033 
        1.89601         1.35263        0.683544 
        1.90215          1.3416        0.678111 
        1.90829         1.33326        0.672739 
        1.91442         1.32946        0.667424 
        1.92056         1.32039        0.662172 
         1.9267         1.31239        0.656971 
        1.93284         1.30875        0.651822 
        1.93897         1.29879        0.646738 
        1.94509         1.29026         0.64172 
        1.95123         1.28125        0.636741 
        1.95737         1.27489        0.631812 
        1.96349         1.26812        0.626948 
        1.96964         1.26245         0.62212 
        1.97578         1.25343        0.617342 
        1.98192         1.24737        0.612622 
        1.98805         1.23885        0.607952 
        1.99419         1.23516         0.60333 
        2.00033         1.23018        0.598754 
        2.00647         1.21849        0.594226 
         2.0126         1.21426        0.589752 
        2.01874         1.20526        0.585318 
        2.02488         1.20133        0.580925 
        2.03101         1.19057        0.576586 
        2.03714         1.18396        0.572294 
        2.04328         1.18078        0.568041 
        2.04941         1.17141        0.563835 
        2.05554         1.16686        0.559675 
        2.06167          1.1594         0.55555 
        2.06781         1.15539        0.551467 
        2.07396         1.14774        0.547418 
        2.08009         1.14208        0.543418 
        2.08622         1.13461        0.539461 
        2.09237         1.13027        0.535536 
        2.09851         1.12373         0.53165 
        2.10464         1.12065        0.527808 
        2.11077         1.11223        0.524009 
        2.11691         1.10551        0.520239 
        2.12305         1.10153        0.516506 
        2.12918         1.09523        0.512818 
        2.13531          1.0895        0.509166 
        2.14145         1.08309         0.50554 
         2.1476         1.07615        0.501946 
        2.15372         1.07181        0.498405 
        2.15985          1.0651        0.494894 
        2.16599         1.06103        0.491407 
        2.17213         1.05358        0.487957 
        2.17827         1.05073        0.484541 
         2.1844         1.04596         0.48116 
        2.19054          1.0415        0.477811 
        2.19666         1.03495        0.474498 
         2.2028         1.02935        0.471213 
        2.20893         1.02455        0.467958 
        2.21508         1.02085         0.46473 
        2.22122         1.01146        0.461531 
        2.22736         1.00771        0.458369 
        2.23349         1.00632        0.455237 
        2.23962        0.998146        0.452133 
        2.24577        0.994288        0.449055 
         2.2519        0.987932        0.446009 
        2.25802        0.984925        0.442997 
        2.26417         0.97913        0.440004 
        2.27031        0.975291        0.437036 
        2.27644        0.969833        0.434104 
        2.28257        0.965543        0.431199 
        2.28872        0.960467        0.428315 
        2.29486        0.955677        0.425457 
        2.30099        0.950551        0.422632 
        2.30712        0.945918        0.419831 
        2.31326        0.943843         0.41705 
         2.3194        0.938979        0.414297 
        2.32553        0.935019        0.411572 
        2.33166        0.928129        0.408873 
         2.3378         0.92366        0.406195 
        2.34394        0.918939         0.40354 
        2.35007         0.91521        0.400912 
        2.35619        0.913005         0.39831 
        2.36233        0.906141        0.395726 
        2.36848        0.902878        0.393159 
        2.37462        0.898734         0.39062 
        2.38075        0.895292        0.388106 
        2.38689        0.890932        0.385611 
        2.39303        0.886486         0.38314 
        2.39916        0.881889        0.380692 
        2.40529        0.878893        0.378266 
        2.41143        0.874134        0.375859 
        2.41757        0.870633        0.373472 
         2.4237        0.868263         0.37111 
        2.42983        0.862575        0.368768 
        2.43598        0.859941        0.366441 
        2.44211        0.855959        0.364137 
        2.44823        0.851332        0.361859 
        2.45437        0.848081        0.359593 
        2.46052        0.845499        0.357345 
        2.46665        0.840744         0.35512 
        2.47279        0.836776        0.352915 
        2.47892        0.832217        0.350727 
        2.48507        0.829873        0.348555 
         2.4912        0.825573        0.346406 
