# k  (h/Mpc)    Pcb(k)  (Mpc/h)^3    Pcb_linear(k)  (Mpc/h)^3
     0.00783031         17244.3         17498.6 
       0.013688           22048         21832.6 
       0.019231         22264.3           22235 
      0.0249154         20104.9         20589.8 
      0.0312784         17551.3         17795.1 
      0.0375637         15079.2         15107.2 
      0.0433917         12855.4         13132.4 
      0.0492413         11611.9         11726.3 
      0.0555754         10329.2         10714.6 
      0.0619321         9962.04         9990.25 
       0.067871         9042.03         9366.68 
      0.0738098         8368.17         8667.51 
      0.0800417            7467         7823.12 
      0.0862327          6731.3         6933.01 
      0.0921407         6101.27         6129.99 
      0.0982031         5407.21         5434.68 
       0.104506         5050.36         4891.81 
       0.110769         4670.01         4525.45 
       0.116806         4414.71         4291.64 
       0.122832         4222.59          4116.2 
       0.129052         3935.77         3937.33 
       0.135211         3735.64         3723.43 
       0.141259          3570.4         3468.57 
       0.147318         3349.87         3185.44 
       0.153489         3054.23         2899.46 
       0.159709         2876.03         2644.69 
       0.165845         2765.71         2444.79 
       0.171974         2615.02         2299.04 
       0.178125         2492.79         2196.58 
       0.184229            2388         2120.24 
        0.19034         2272.13          2049.6 
       0.196428         2226.35         1969.98 
       0.202534         2139.01         1874.11 
       0.208729         2041.49          1762.8 
       0.214876         1958.75         1647.28 
       0.220989          1887.7         1538.18 
       0.227147         1809.15         1442.85 
        0.23329         1738.52          1366.4 
       0.239377         1713.92         1308.08 
       0.245482         1611.36         1262.34 
       0.251667         1604.26         1222.45 
       0.257832         1541.37         1182.78 
       0.263955          1491.1         1139.33 
       0.270079            1441         1090.79 
        0.27624         1423.63         1038.42 
       0.282372         1364.91         986.137 
        0.28843         1359.26         937.752 
       0.294538         1292.92         894.736 
       0.300721         1284.45         858.056 
        0.30691         1237.04         827.478 
       0.313033         1212.46         801.499 
       0.319153         1194.74         777.465 
       0.325316          1155.7         753.288 
        0.33145         1130.89          728.03 
       0.337538         1109.74         701.684 
       0.343633         1087.65         674.665 
       0.349808         1051.91          647.78 
       0.355968         1044.05         622.605 
       0.362074         1034.96         599.966 
       0.368217         1002.08         579.799 
       0.374374         966.252         561.813 
       0.380519         968.801         545.482 
       0.386598         940.896         530.151 
       0.392688         937.257         514.957 
        0.39888         910.798         499.385 
       0.405048         900.684         483.675 
       0.411186         888.274         468.083 
       0.417313         869.729         452.968 
       0.423458         854.401         438.568 
       0.429607         844.746         425.142 
       0.435692         827.374         412.928 
       0.441815         820.454         401.533 
       0.447964         803.739         390.775 
       0.454126         797.902         380.456 
       0.460267         777.863         370.414 
       0.466387         768.326         360.488 
        0.47254         765.309          350.62 
       0.478662         756.476         340.994 
       0.484765          735.08          331.67 
       0.490885         730.698          322.69 
       0.497035         715.707         314.134 
       0.503198         711.631          306.05 
       0.509342          704.11         298.406 
       0.515458         700.527         291.129 
       0.521598         683.142         284.087 
       0.527764         671.504         277.222 
       0.533884         669.294          270.56 
           0.54         663.087         264.028 
       0.546137         656.725          257.62 
       0.552299         648.512         251.381 
       0.558452         643.444         245.381 
       0.564573         635.489         239.648 
       0.570708         628.555         234.125 
       0.576825         612.206         228.828 
       0.582926          615.06         223.738 
       0.589034         608.733         218.813 
       0.595184         603.304         214.003 
       0.601379         594.755         209.284 
       0.607522          586.52         204.714 
       0.613639         586.644         200.275 
       0.619772         575.003         195.946 
       0.625918         571.369         191.742 
       0.632068         564.034         187.676 
       0.638161         561.698         183.783 
         0.6443          552.49         179.985 
       0.650464         550.643         176.288 
       0.656582          545.56         172.721 
       0.662703          543.96         169.247 
       0.668861         535.065         165.844 
       0.675024         530.685         162.529 
       0.681124         527.059         159.337 
       0.687237         523.087         156.224 
       0.693381         516.193         153.182 
       0.699536         508.024         150.218 
       0.705665         507.766         147.346 
       0.711789          505.21         144.553 
       0.717957         500.553         141.815 
        0.72409          498.16         139.164 
       0.730186         490.582         136.597 
       0.736317          488.03         134.081 
       0.742472         485.066          131.62 
       0.748622         479.952         129.223 
        0.75476         473.009         126.892 
       0.760888         469.122         124.623 
       0.767043         469.182           122.4 
       0.773185         464.756         120.238 
       0.779291         459.756          118.14 
       0.785407         456.627         116.089 
       0.791564         451.768         114.075 
       0.797719         450.024          112.11 
       0.803834          444.73         110.204 
       0.809972         443.907         108.336 
       0.816124         442.413         106.507 
       0.822261         436.348         104.725 
       0.828378         434.095          102.99 
       0.834502          429.28         101.293 
       0.840667         426.333         99.6235 
       0.846816         424.417         97.9967 
       0.852925         421.572         96.4168 
       0.859047         419.735         94.8688 
       0.865192         414.377         93.3501 
       0.871341         411.009         91.8641 
       0.877463         411.047         90.4174 
       0.883569         406.888         89.0059 
       0.889708         404.351         87.6175 
       0.895864         403.102         86.2555 
       0.902008         399.391         84.9255 
       0.908149          394.41         83.6246 
       0.914301         392.598         82.3489 
       0.920448         390.789         81.1013 
       0.926574         384.816         79.8841 
       0.932687         384.623         78.6945 
       0.938823         380.819         77.5251 
       0.944975         381.102         76.3769 
       0.951105         376.747         75.2563 
       0.957225         374.396         74.1602 
       0.963368         370.028         73.0823 
       0.969511         369.264          72.026 
       0.975621         367.169         70.9963 
       0.981748         364.811         69.9842 
       0.987916         362.987         68.9856 
        0.99406         357.491         68.0103 
        1.00019         356.034          67.056 
        1.00632         354.664         66.1209 
        1.01246         351.728         65.2024 
        1.01859         351.928         64.3029 
        1.02471         346.832         63.4216 
        1.03085         345.538         62.5539 
        1.03698         344.095         61.7043 
        1.04314         341.234          60.867 
        1.04929         337.882         60.0473 
        1.05541         338.848         59.2461 
        1.06154         333.132         58.4576 
        1.06769         332.258         57.6823 
        1.07382         329.717         56.9238 
        1.07993         328.145         56.1806 
        1.08607         327.253         55.4478 
        1.09222         323.636         54.7274 
        1.09836         321.644         54.0207 
        1.10449         319.299         53.3275 
        1.11063         315.807         52.6456 
        1.11677         316.374         51.9761 
         1.1229         313.793         51.3193 
        1.12903         311.909         50.6735 
        1.13518         308.926         50.0383 
        1.14131         307.564         49.4143 
        1.14745         305.969         48.8015 
        1.15359         304.061         48.1989 
        1.15973         302.085         47.6064 
        1.16584         299.854         47.0265 
        1.17197         299.753         46.4555 
        1.17811         296.173         45.8923 
        1.18424         294.084         45.3401 
        1.19038          293.29         44.7954 
        1.19652         290.976         44.2599 
        1.20267         290.122         43.7332 
        1.20881          287.97         43.2152 
        1.21495         285.886         42.7064 
        1.22108         284.315         42.2059 
         1.2272         282.683         41.7147 
        1.23334         281.316         41.2302 
        1.23949         278.633         40.7523 
        1.24562         277.876         40.2833 
        1.25174         276.272         39.8224 
        1.25789         273.902         39.3674 
        1.26402         271.883         38.9203 
        1.27014          270.41         38.4813 
        1.27628         268.753         38.0477 
        1.28244          268.57         37.6201 
        1.28858         265.991         37.1996 
        1.29471         264.704         36.7865 
        1.30084         262.535         36.3801 
        1.30697         261.502         35.9792 
        1.31312         258.843         35.5838 
        1.31925         257.676         35.1957 
        1.32537         257.089         34.8137 
        1.33151         254.723         34.4361 
        1.33765         252.755         34.0643 
        1.34378         252.172         33.6988 
        1.34992         250.732         33.3384 
        1.35606         249.915         32.9825 
         1.3622         247.475         32.6325 
        1.36833         245.904         32.2884 
        1.37445         244.653         31.9494 
        1.38059         242.716         31.6143 
        1.38675         241.814         31.2833 
        1.39288         240.538         30.9582 
        1.39901         239.328          30.638 
        1.40515         237.788         30.3216 
         1.4113          236.47         30.0098 
        1.41742         234.639         29.7036 
        1.42355         233.734         29.4012 
         1.4297         231.772          29.102 
        1.43585         230.669         28.8071 
        1.44198         229.881         28.5175 
        1.44809         228.106         28.2323 
        1.45423         226.978         27.9501 
        1.46036         225.628         27.6722 
        1.46649         224.163          27.398 
        1.47263          223.11         27.1274 
        1.47877         221.474         26.8605 
        1.48491         219.492         26.5968 
        1.49104         218.998         26.3372 
        1.49718         217.267         26.0808 
        1.50333         216.606         25.8275 
        1.50947           215.1         25.5781 
         1.5156         213.364         25.3323 
        1.52172         212.619         25.0898 
        1.52787         210.873           24.85 
          1.534         210.447         24.6136 
        1.54013         208.616         24.3806 
        1.54627         207.637         24.1501 
        1.55241         206.473         23.9226 
        1.55855         204.788         23.6984 
        1.56467         204.049         23.4777 
         1.5708         203.109         23.2591 
        1.57695         201.936         23.0431 
        1.58308         200.655         22.8302 
        1.58922         199.015         22.6199 
        1.59535          197.69         22.4124 
         1.6015         196.935         22.2072 
        1.60764         195.877         22.0046 
        1.61376         194.905         21.8052 
        1.61989         193.895          21.608 
        1.62604         192.511         21.4129 
        1.63218         191.621         21.2203 
        1.63831         190.116         21.0305 
        1.64444         189.357          20.843 
        1.65059         188.436         20.6573 
        1.65673         187.145         20.4741 
        1.66285         185.792         20.2937 
        1.66898          185.02         20.1153 
        1.67512         184.335         19.9388 
        1.68127         182.483         19.7642 
         1.6874         181.895         19.5921 
        1.69353         180.687         19.4222 
        1.69967         179.374         19.2539 
        1.70581         178.709         19.0876 
        1.71193          177.35         18.9239 
        1.71806         176.776         18.7619 
        1.72421         175.562         18.6014 
        1.73035         174.787         18.4429 
        1.73649         173.778         18.2864 
        1.74262         172.765         18.1318 
        1.74876         171.514         17.9788 
        1.75489         170.852          17.828 
        1.76101         169.279         17.6789 
        1.76715         169.046         17.5314 
        1.77329         167.789         17.3853 
        1.77943         167.154         17.2409 
        1.78557           166.1         17.0983 
        1.79171         165.328         16.9573 
        1.79785         164.079         16.8179 
        1.80399         163.316           16.68 
        1.81012         162.376         16.5439 
        1.81625         161.793         16.4094 
        1.82239         160.467         16.2762 
        1.82853         159.958         16.1445 
        1.83466         158.873         16.0144 
        1.84078         158.103         15.8859 
        1.84692         156.807         15.7586 
        1.85306         156.438         15.6325 
         1.8592         155.405         15.5081 
        1.86533         154.814          15.385 
        1.87147         153.591         15.2631 
        1.87761         152.647         15.1425 
        1.88375         151.824         15.0234 
        1.88988         150.558         14.9056 
        1.89601         150.374         14.7891 
        1.90215          149.34         14.6737 
        1.90829         148.426         14.5596 
        1.91442         147.882         14.4467 
        1.92056          146.87         14.3352 
         1.9267         146.028         14.2246 
        1.93284          145.03         14.1152 
        1.93897         144.622         14.0072 
        1.94509         143.853         13.9005 
        1.95123         143.115         13.7946 
        1.95737         142.196         13.6898 
        1.96349         141.469         13.5863 
        1.96964         140.483         13.4837 
        1.97578         139.701          13.382 
        1.98192         139.094         13.2816 
        1.98805         138.402         13.1822 
        1.99419         137.472         13.0838 
        2.00033         136.825         12.9864 
        2.00647         136.078           12.89 
         2.0126         135.114         12.7947 
        2.01874         134.538         12.7003 
        2.02488          134.18         12.6067 
        2.03101         132.809         12.5142 
        2.03714         132.499         12.4228 
        2.04328         131.434         12.3322 
        2.04941         131.073         12.2425 
        2.05554         130.073         12.1538 
        2.06167         129.642         12.0659 
        2.06781         128.647         11.9788 
        2.07396         128.201         11.8925 
        2.08009         127.417         11.8071 
        2.08622         126.494         11.7227 
        2.09237         126.101          11.639 
        2.09851         125.343         11.5561 
        2.10464         124.943         11.4741 
        2.11077         124.163          11.393 
        2.11691         123.535         11.3125 
        2.12305         122.861         11.2328 
        2.12918         122.003          11.154 
        2.13531         121.404          11.076 
        2.14145         120.721         10.9986 
         2.1476         119.804         10.9218 
        2.15372         119.687         10.8461 
        2.15985         118.921         10.7711 
        2.16599         118.104         10.6966 
        2.17213         117.607         10.6228 
        2.17827         116.916         10.5498 
         2.1844         116.177         10.4775 
        2.19054         115.786         10.4059 
        2.19666         115.011          10.335 
         2.2028         114.348         10.2648 
        2.20893         114.007         10.1951 
        2.21508         113.182         10.1261 
        2.22122         112.652         10.0576 
        2.22736         112.112         9.98995 
        2.23349         111.585         9.92292 
        2.23962         110.993         9.85646 
        2.24577         110.274         9.79056 
         2.2519         109.891         9.72535 
        2.25802         108.979         9.66084 
        2.26417         108.721         9.59674 
        2.27031         107.949         9.53316 
        2.27644         107.474         9.47034 
        2.28257         106.805         9.40809 
        2.28872         106.376         9.34628 
        2.29486         105.677         9.28504 
        2.30099         105.142         9.22448 
        2.30712         104.577         9.16443 
        2.31326         104.009         9.10481 
         2.3194         103.507         9.04576 
        2.32553         102.937         8.98733 
        2.33166         102.406         8.92944 
         2.3378         102.093         8.87199 
        2.34394         101.453         8.81502 
        2.35007         100.822         8.75863 
        2.35619         100.417         8.70281 
        2.36233         99.9113         8.64734 
        2.36848         99.2955         8.59224 
        2.37462         98.9192         8.53773 
        2.38075         98.2001         8.48376 
        2.38689          97.748          8.4302 
        2.39303         97.1771         8.37712 
        2.39916          96.819         8.32455 
        2.40529         96.5749         8.27243 
        2.41143         95.8465         8.22073 
        2.41757         95.2901         8.16944 
         2.4237         94.7847         8.11868 
        2.42983         94.2506         8.06837 
        2.43598          93.724         8.01834 
        2.44211         93.5121         7.96882 
        2.44823         92.9352         7.91984 
        2.45437         92.2871         7.87112 
        2.46052         91.7428         7.82278 
        2.46665         91.5637         7.77493 
        2.47279         90.9647          7.7275 
        2.47892          90.475         7.68043 
        2.48507         90.0831         7.63371 
         2.4912         89.6898         7.58746 
