# k  (h/Mpc)    Pcb(k)  (Mpc/h)^3    Pcb_linear(k)  (Mpc/h)^3
     0.00783031         24700.1         25094.5 
       0.013688         28102.9         27738.1 
       0.019231           25724         25592.7 
      0.0249154         21202.8         21662.4 
      0.0312784         17093.2         17226.4 
      0.0375637           13934         13820.9 
      0.0433917         11580.6         11699.4 
      0.0492413         10367.3         10361.6 
      0.0555754         9186.98         9431.03 
      0.0619321         8756.93         8664.03 
       0.067871          7727.4         7880.75 
      0.0738098         6886.98         6983.24 
      0.0800417         5902.17         5999.46 
      0.0862327         5146.74         5111.68 
      0.0921407         4612.03         4439.54 
      0.0982031         4086.01         3954.78 
       0.104506         3878.64         3637.13 
       0.110769         3625.48         3437.19 
       0.116806         3444.33         3277.73 
       0.122832         3252.73          3094.9 
       0.129052          2955.5         2857.87 
       0.135211         2725.17         2587.32 
       0.141259         2552.25         2320.07 
       0.147318         2362.05         2083.95 
       0.153489          2148.5          1896.1 
       0.159709         2033.75         1762.61 
       0.165845         1962.27         1673.12 
       0.171974         1873.82         1605.58 
       0.178125         1782.89            1540 
       0.184229         1690.85         1464.31 
        0.19034         1589.39         1374.95 
       0.196428         1534.15         1277.91 
       0.202534         1460.16         1182.26 
       0.208729         1380.07         1096.08 
       0.214876         1322.91         1026.39 
       0.220989          1271.9         972.674 
       0.227147         1224.91         930.429 
        0.23329          1174.3         894.465 
       0.239377         1151.14         859.662 
       0.245482         1075.96         822.335 
       0.251667         1066.26         781.477 
       0.257832         1017.53         739.297 
       0.263955         979.826         698.603 
       0.270079         941.718         661.514 
        0.27624         927.788         629.125 
       0.282372         890.493           601.8 
        0.28843         880.184         578.543 
       0.294538         833.514         557.308 
       0.300721         826.696         536.614 
        0.30691         794.379         515.748 
       0.313033         776.299         494.767 
       0.319153         758.827         473.814 
       0.325316         735.314         453.426 
        0.33145         716.172         434.467 
       0.337538         700.126         417.315 
       0.343633         684.216         401.823 
       0.349808         658.067         387.542 
       0.355968         652.851         374.297 
       0.362074          645.54         361.718 
       0.368217          624.17         349.361 
       0.374374         599.486         337.164 
       0.380519         598.751         325.249 
       0.386598         579.774         313.883 
       0.392688         576.279         303.053 
        0.39888         558.917         292.718 
       0.405048         551.049         283.115 
       0.411186         542.644         274.151 
       0.417313         531.388         265.686 
       0.423458         518.642         257.565 
       0.429607         513.995         249.703 
       0.435692         500.284         242.152 
       0.441815         494.351         234.789 
       0.447964          484.76         227.652 
       0.454126         479.014          220.79 
       0.460267         466.958         214.275 
       0.466387         460.469         208.098 
        0.47254         457.303         202.177 
       0.478662         451.611         196.543 
       0.484765         436.174         191.153 
       0.490885         432.442         185.939 
       0.497035          423.77          180.87 
       0.503198         419.954         175.956 
       0.509342         417.278         171.228 
       0.515458         412.803         166.694 
       0.521598         400.626         162.313 
       0.527764         396.346         158.082 
       0.533884         392.181         154.045 
           0.54         387.241         150.164 
       0.546137         384.229         146.409 
       0.552299         378.465         142.767 
       0.558452         375.133         139.248 
       0.564573         371.002          135.86 
       0.570708         364.574         132.573 
       0.576825         357.146         129.405 
       0.582926          355.84         126.351 
       0.589034         351.676         123.395 
       0.595184          349.48         120.516 
       0.601379         342.073         117.711 
       0.607522         338.759          115.02 
       0.613639         335.966         112.425 
       0.619772         331.472         109.904 
       0.625918         328.963         107.456 
       0.632068         323.423         105.081 
       0.638161         321.487         102.798 
         0.6443         317.301         100.566 
       0.650464         314.727          98.392 
       0.656582         310.098         96.2987 
       0.662703         310.117         94.2665 
       0.668861          305.84         92.2824 
       0.675024          302.52         90.3547 
       0.681124         299.366          88.502 
       0.687237         296.864         86.6979 
       0.693381         292.304         84.9358 
       0.699536         288.809         83.2197 
       0.705665         286.972         81.5583 
       0.711789         285.908         79.9438 
       0.717957         283.261         78.3622 
        0.72409         281.507         76.8323 
       0.730186         277.661         75.3527 
       0.736317         275.241         73.9043 
       0.742472         272.558         72.4889 
       0.748622         270.738         71.1122 
        0.75476           267.2         69.7743 
       0.760888         264.564          68.473 
       0.767043         263.874         67.1999 
       0.773185         261.731          65.962 
       0.779291         257.938         64.7623 
       0.785407         257.158         63.5909 
       0.791564         254.548         62.4411 
       0.797719         252.216         61.3204 
       0.803834         249.081         60.2345 
       0.809972         248.488          59.171 
       0.816124         247.289         58.1309 
       0.822261         245.492         57.1188 
       0.828378         242.833         56.1338 
       0.834502         240.235         55.1713 
       0.840667         238.894         54.2252 
       0.846816         237.684          53.304 
       0.852925         236.064         52.4101 
       0.859047         233.911         51.5349 
       0.865192         231.141         50.6768 
       0.871341         229.122         49.8378 
       0.877463         229.442         49.0216 
       0.883569         227.135         48.2258 
       0.889708         224.669         47.4437 
       0.895864         224.474         46.6769 
       0.902008         221.949         45.9288 
       0.908149         219.927         45.1975 
       0.914301         218.117          44.481 
       0.920448          216.67         43.7808 
       0.926574         214.441         43.0982 
       0.932687         214.355         42.4315 
       0.938823         211.632         41.7767 
       0.944975         211.463         41.1342 
       0.951105         209.581         40.5075 
       0.957225         208.618          39.895 
       0.963368         205.576         39.2932 
       0.969511         204.838         38.7037 
       0.975621         203.488         38.1296 
       0.981748         202.254         37.5656 
       0.987916          201.12         37.0096 
        0.99406         199.627         36.4669 
        1.00019         197.971         35.9361 
        1.00632         197.301         35.4164 
        1.01246         195.509         34.9063 
        1.01859         195.223          34.407 
        1.02471         192.609         33.9181 
        1.03085         191.727         33.4371 
        1.03698         190.253         32.9664 
        1.04314         189.098         32.5027 
        1.04929         188.188         32.0491 
        1.05541         187.224          31.606 
        1.06154         185.271         31.1702 
        1.06769         184.941         30.7419 
        1.07382         183.406         30.3231 
        1.07993         182.214          29.913 
        1.08607         181.944         29.5088 
        1.09222         180.068         29.1117 
        1.09836         178.645         28.7224 
        1.10449         177.408         28.3406 
        1.11063          176.19         27.9654 
        1.11677         175.487         27.5971 
         1.1229          173.65         27.2361 
        1.12903         173.165         26.8812 
        1.13518         172.209         26.5324 
        1.14131         170.902           26.19 
        1.14745         170.952         25.8538 
        1.15359         168.902         25.5234 
        1.15973         167.635         25.1987 
        1.16584         167.113         24.8811 
        1.17197         166.874         24.5686 
        1.17811         164.625         24.2604 
        1.18424         164.161         23.9585 
        1.19038         163.371         23.6608 
        1.19652         161.766         23.3683 
        1.20267          161.81         23.0807 
        1.20881         160.273         22.7981 
        1.21495         159.335         22.5206 
        1.22108         158.406         22.2478 
         1.2272          157.24         21.9801 
        1.23334          157.32         21.7163 
        1.23949         155.339         21.4561 
        1.24562         154.751         21.2009 
        1.25174         153.999         20.9503 
        1.25789          153.33         20.7029 
        1.26402         151.574           20.46 
        1.27014         151.039         20.2215 
        1.27628         149.964         19.9862 
        1.28244         149.836         19.7541 
        1.28858         148.395          19.526 
        1.29471         147.886         19.3021 
        1.30084         146.694         19.0818 
        1.30697         145.628         18.8647 
        1.31312         144.735         18.6506 
        1.31925         143.871         18.4405 
        1.32537         143.786         18.2339 
        1.33151         142.505         18.0297 
        1.33765         141.644         17.8287 
        1.34378         140.957         17.6312 
        1.34992         140.407         17.4365 
        1.35606         139.908         17.2444 
         1.3622         138.317         17.0554 
        1.36833         137.836         16.8698 
        1.37445          137.17          16.687 
        1.38059         136.247         16.5064 
        1.38675         135.858          16.328 
        1.39288         134.691          16.153 
        1.39901         134.236         15.9806 
        1.40515         133.344         15.8103 
         1.4113         132.768         15.6426 
        1.41742         131.506         15.4779 
        1.42355         131.319         15.3153 
         1.4297         130.196         15.1546 
        1.43585         129.592         14.9962 
        1.44198         129.436         14.8407 
        1.44809         128.468         14.6877 
        1.45423         128.041         14.5363 
        1.46036         126.937         14.3872 
        1.46649         126.204         14.2403 
        1.47263         125.466         14.0952 
        1.47877         124.594         13.9523 
        1.48491         123.848         13.8111 
        1.49104         123.617         13.6721 
        1.49718         122.429          13.535 
        1.50333         121.739         13.3995 
        1.50947          121.21         13.2661 
         1.5156         120.687         13.1348 
        1.52172         120.086         13.0052 
        1.52787         119.116         12.8771 
          1.534         118.785         12.7509 
        1.54013         118.236         12.6265 
        1.54627           117.6         12.5035 
        1.55241         116.744         12.3822 
        1.55855         116.123         12.2626 
        1.56467         115.174         12.1449 
         1.5708         114.642         12.0284 
        1.57695         114.597         11.9133 
        1.58308          113.95            11.8 
        1.58922         113.253          11.688 
        1.59535         112.575         11.5776 
         1.6015         112.211         11.4684 
        1.60764         111.716         11.3607 
        1.61376          110.89         11.2546 
        1.61989         110.104         11.1498 
        1.62604         109.563         11.0461 
        1.63218         109.291         10.9438 
        1.63831         108.708         10.8431 
        1.64444         107.992         10.7435 
        1.65059         107.146          10.645 
        1.65673         106.944         10.5478 
        1.66285         106.483         10.4521 
        1.66898          105.79         10.3575 
        1.67512         104.864          10.264 
        1.68127         104.697         10.1715 
         1.6874         104.222         10.0803 
        1.69353         103.726         9.99034 
        1.69967          103.03         9.90124 
        1.70581          102.18         9.81327 
        1.71193         101.653         9.72669 
        1.71806         101.596         9.64097 
        1.72421         100.994         9.55612 
        1.73035         100.662         9.47238 
        1.73649         99.9522         9.38966 
        1.74262         99.5166         9.30799 
        1.74876         98.9988         9.22724 
        1.75489         98.3117         9.14761 
        1.76101         97.7578         9.06893 
        1.76715         97.5014         8.99108 
        1.77329         96.7381         8.91404 
        1.77943         96.6228         8.83786 
        1.78557         96.1981         8.76269 
        1.79171          95.235         8.68837 
        1.79785         94.9089          8.6149 
        1.80399         94.4201         8.54229 
        1.81012           93.96         8.47062 
        1.81625         93.6071         8.39979 
        1.82239         92.9991         8.32967 
        1.82853          92.437         8.26038 
        1.83466         92.0987         8.19194 
        1.84078         91.7582         8.12435 
        1.84692         90.9337         8.05741 
        1.85306         90.7741         7.99115 
         1.8592         90.1264         7.92572 
        1.86533         89.7489         7.86107 
        1.87147         89.1724         7.79707 
        1.87761         88.5649         7.73374 
        1.88375          88.398         7.67119 
        1.88988         87.6782          7.6094 
        1.89601         87.2605         7.54826 
        1.90215         86.9434         7.48773 
        1.90829         86.4614          7.4279 
        1.91442         86.0949         7.36872 
        1.92056          85.522         7.31023 
         1.9267         85.1962         7.25231 
        1.93284         84.7284         7.19499 
        1.93897         84.1901         7.13839 
        1.94509         83.9766         7.08253 
        1.95123         83.5275         7.02712 
        1.95737         82.9998         6.97226 
        1.96349         82.6185         6.91812 
        1.96964         82.0766          6.8644 
        1.97578         81.6082         6.81123 
        1.98192         81.4544         6.75873 
        1.98805         81.0516         6.70678 
        1.99419          80.471         6.65536 
        2.00033         80.2293         6.60446 
        2.00647         79.7912         6.55411 
         2.0126         79.3528         6.50436 
        2.01874         79.0339         6.45505 
        2.02488         78.5853         6.40621 
        2.03101           78.18         6.35796 
        2.03714         77.6791         6.31026 
        2.04328         77.3527         6.26298 
        2.04941          76.995         6.21623 
        2.05554         76.6143         6.16999 
        2.06167         76.2413         6.12415 
        2.06781         75.7028         6.07878 
        2.07396         75.5277         6.03379 
        2.08009         75.1933         5.98934 
        2.08622         74.7075         5.94538 
        2.09237         74.4827         5.90178 
        2.09851          74.026         5.85861 
        2.10464         73.6663         5.81594 
        2.11077         73.1329         5.77374 
        2.11691         73.0201         5.73187 
        2.12305         72.6222         5.69041 
        2.12918         72.2345         5.64946 
        2.13531         71.8032         5.60891 
        2.14145         71.5701         5.56866 
         2.1476         71.2059         5.52876 
        2.15372         70.7854         5.48944 
        2.15985         70.3889         5.45047 
        2.16599         70.1139         5.41177 
        2.17213         69.7221         5.37348 
        2.17827         69.2004         5.33557 
         2.1844         69.0692         5.29806 
        2.19054         68.5862          5.2609 
        2.19666         68.2896         5.22414 
         2.2028         68.1006          5.1877 
        2.20893         67.6402         5.15159 
        2.21508         67.4656         5.11579 
        2.22122         67.0371          5.0803 
        2.22736         66.6285         5.04523 
        2.23349         66.4669          5.0105 
        2.23962         66.0939         4.97607 
        2.24577         65.8485         4.94194 
         2.2519         65.5364         4.90818 
        2.25802         65.1732         4.87478 
        2.26417         64.8501          4.8416 
        2.27031         64.5441         4.80869 
        2.27644          64.131         4.77619 
        2.28257          63.875         4.74399 
        2.28872         63.6906         4.71203 
        2.29486         63.1799         4.68036 
        2.30099         62.8198         4.64905 
        2.30712         62.6572         4.61801 
        2.31326         62.3087          4.5872 
         2.3194         62.0332         4.55669 
        2.32553           61.87         4.52651 
        2.33166         61.4068         4.49661 
         2.3378         61.1345         4.46695 
        2.34394         60.8757         4.43754 
        2.35007         60.5714         4.40843 
        2.35619         60.2537         4.37962 
        2.36233          59.989           4.351 
        2.36848         59.5703         4.32257 
        2.37462          59.473         4.29446 
        2.38075         59.1228         4.26662 
        2.38689         58.8688         4.23901 
        2.39303         58.5474         4.21164 
        2.39916         58.1934         4.18455 
        2.40529         58.0191         4.15769 
        2.41143          57.514         4.13105 
        2.41757         57.4239         4.10463 
         2.4237         57.1869         4.07849 
        2.42983         56.8882         4.05258 
        2.43598         56.5793         4.02682 
        2.44211         56.2611         4.00133 
        2.44823         56.0665         3.97612 
        2.45437         55.8307         3.95105 
        2.46052         55.5772         3.92618 
        2.46665         55.3413         3.90157 
        2.47279         54.9455         3.87717 
        2.47892         54.7025         3.85297 
        2.48507         54.4576         3.82895 
         2.4912         54.1521         3.80518 
