#  k  (h/Mpc)          P(k)  (Mpc/h)^3     P_linear(k) (Mpc/h)^3
     0.00783031           19684         19978.2 
       0.013688         22146.6         21905.8 
       0.019231         20045.9         19946.5 
      0.0249154         16298.6         16589.5 
      0.0312784           12878         12935.6 
      0.0375637         10344.2         10246.3 
      0.0433917         8597.39          8653.8 
      0.0492413         7722.55         7705.65 
      0.0555754         6917.19         7068.85 
      0.0619321         6587.03         6512.58 
       0.067871         5807.02         5895.39 
      0.0738098         5119.03         5166.64 
      0.0800417          4330.6         4376.47 
      0.0862327         3729.98         3688.92 
      0.0921407         3317.49         3195.65 
      0.0982031          2949.5         2864.47 
       0.104506         2819.23         2665.84 
       0.110769         2658.63         2545.24 
       0.116806          2526.6         2435.01 
       0.122832         2382.66         2288.39 
       0.129052          2149.3         2089.76 
       0.135211         1959.92         1867.76 
       0.141259         1813.45         1659.16 
       0.147318         1667.16         1486.74 
       0.153489         1518.44         1360.33 
       0.159709         1443.93         1278.33 
       0.165845          1396.4         1226.22 
       0.171974         1334.68         1183.35 
       0.178125         1272.43         1133.59 
       0.184229         1205.98         1070.21 
        0.19034         1119.14         994.912 
       0.196428         1075.32         916.437 
       0.202534         1021.68         843.829 
       0.208729         961.187         783.167 
       0.214876         916.122         737.776 
       0.220989         882.448         704.745 
       0.227147          849.24         678.547 
        0.23329         814.553         653.956 
       0.239377         796.033          627.26 
       0.245482         739.711          596.87 
       0.251667         730.815         563.532 
       0.257832          697.08         530.371 
       0.263955         670.327         500.156 
       0.270079          641.98         474.223 
        0.27624         632.511         452.774 
       0.282372         608.207         435.078 
        0.28843         595.673         419.674 
       0.294538         564.193          404.72 
       0.300721         559.709         389.154 
        0.30691         534.936         372.879 
       0.313033         522.743         356.463 
       0.319153         507.281         340.485 
       0.325316         492.199         325.515 
        0.33145         477.206         312.149 
       0.337538         467.913          300.42 
       0.343633         454.134         289.907 
       0.349808         436.813         280.082 
       0.355968         432.764         270.632 
       0.362074          426.36          261.37 
       0.368217         413.342         252.063 
       0.374374         395.011         242.853 
       0.380519         393.189         233.986 
       0.386598          382.01         225.688 
       0.392688         378.453         217.969 
        0.39888         367.652         210.723 
       0.405048         359.965         204.004 
       0.411186         353.996         197.696 
       0.417313         346.526         191.645 
       0.423458         338.425         185.727 
       0.429607         333.944         179.947 
       0.435692          324.71         174.386 
       0.441815         321.114         168.982 
       0.447964         314.234         163.798 
       0.454126         307.451         158.881 
       0.460267         301.267         154.242 
       0.466387          297.06         149.849 
        0.47254             292         145.629 
       0.478662         290.471         141.593 
       0.484765         279.664         137.698 
       0.490885         276.895         133.905 
       0.497035         271.602         130.215 
       0.503198         267.649         126.649 
       0.509342         265.886         123.232 
       0.515458         261.995         119.966 
       0.521598         255.002          116.82 
       0.527764          252.16          113.79 
       0.533884         249.245           110.9 
           0.54         245.535         108.113 
       0.546137         244.076         105.407 
       0.552299          239.13         102.773 
       0.558452         237.808         100.227 
       0.564573         234.475          97.779 
       0.570708         229.274         95.4092 
       0.576825         225.586         93.1284 
       0.582926         223.208         90.9311 
       0.589034         220.901         88.8044 
       0.595184         219.189         86.7337 
       0.601379         215.004         84.7163 
       0.607522         212.483         82.7798 
       0.613639         210.624         80.9118 
       0.619772         206.826         79.0963 
       0.625918         205.551          77.332 
       0.632068         202.106         75.6201 
       0.638161         200.977         73.9751 
         0.6443         197.853         72.3676 
       0.650464         196.061          70.803 
       0.656582         193.146         69.2968 
       0.662703         193.131          67.835 
       0.668861         190.021         66.4078 
       0.675024         187.295         65.0209 
       0.681124         185.837         63.6878 
       0.687237         183.758         62.3893 
       0.693381         180.848         61.1209 
       0.699536         179.382         59.8855 
       0.705665         177.617         58.6895 
       0.711789         176.186         57.5275 
       0.717957         175.566         56.3891 
        0.72409          173.39         55.2881 
       0.730186         171.249         54.2233 
       0.736317         169.297         53.1811 
       0.742472         167.991         52.1626 
       0.748622         166.692         51.1718 
        0.75476         164.959         50.2091 
       0.760888         163.334         49.2727 
       0.767043         162.701         48.3565 
       0.773185         161.445         47.4657 
       0.779291         158.382         46.6024 
       0.785407         157.837         45.7594 
       0.791564         156.615          44.932 
       0.797719         153.946         44.1256 
       0.803834         153.166         43.3442 
       0.809972         152.523         42.5789 
       0.816124         151.491         41.8306 
       0.822261         150.547         41.1023 
       0.828378         148.838         40.3935 
       0.834502          148.07          39.701 
       0.840667         146.254         39.0203 
       0.846816         145.022         38.3576 
       0.852925         144.139         37.7144 
       0.859047          143.08         37.0848 
       0.865192         141.338         36.4675 
       0.871341         140.228         35.8639 
       0.877463         139.333         35.2768 
       0.883569         138.955         34.7043 
       0.889708         137.243         34.1417 
       0.895864         136.211         33.5902 
       0.902008         135.116          33.052 
       0.908149         134.774          32.526 
       0.914301         132.997         32.0107 
       0.920448         132.253          31.507 
       0.926574         131.162          31.016 
       0.932687         131.217         30.5365 
       0.938823         129.282         30.0655 
       0.944975         128.776         29.6033 
       0.951105         127.694         29.1526 
       0.957225          127.09          28.712 
       0.963368         125.166          28.279 
       0.969511         124.868          27.855 
       0.975621         123.839          27.442 
       0.981748         123.769         27.0364 
       0.987916         122.516         26.6363 
        0.99406         121.607         26.2459 
        1.00019          121.27         25.8641 
        1.00632         120.067         25.4902 
        1.01246         119.372         25.1232 
        1.01859         118.944          24.764 
        1.02471          117.54         24.4123 
        1.03085         116.529         24.0663 
        1.03698         116.095         23.7276 
        1.04314         114.919         23.3941 
        1.04929         114.739         23.0678 
        1.05541         113.917          22.749 
        1.06154         113.243         22.4355 
        1.06769          112.93         22.1274 
        1.07382         111.832         21.8261 
        1.07993         111.215         21.5311 
        1.08607         110.505         21.2404 
        1.09222         110.117         20.9548 
        1.09836         109.178         20.6747 
        1.10449         108.255         20.4001 
        1.11063         107.676         20.1302 
        1.11677         106.985         19.8654 
         1.1229         106.314         19.6057 
        1.12903         106.048         19.3505 
        1.13518         105.523         19.0996 
        1.14131         104.477         18.8533 
        1.14745         104.335         18.6115 
        1.15359         103.378         18.3739 
        1.15973         103.011         18.1403 
        1.16584         102.122         17.9119 
        1.17197         101.595         17.6871 
        1.17811         100.968         17.4654 
        1.18424         100.713         17.2482 
        1.19038         100.469         17.0341 
        1.19652         99.5566         16.8237 
        1.20267         98.9253         16.6169 
        1.20881         98.5842         16.4136 
        1.21495         97.5488          16.214 
        1.22108          97.375         16.0177 
         1.2272           96.51         15.8252 
        1.23334         96.1339         15.6353 
        1.23949         95.7113         15.4482 
        1.24562         95.0763         15.2646 
        1.25174         94.7661         15.0843 
        1.25789         94.2341         14.9063 
        1.26402         93.1096         14.7315 
        1.27014         92.8808           14.56 
        1.27628         92.5666         14.3907 
        1.28244         92.2858         14.2237 
        1.28858         91.7752         14.0596 
        1.29471         91.0617         13.8985 
        1.30084         90.9472         13.7401 
        1.30697          90.035         13.5838 
        1.31312         89.6275         13.4298 
        1.31925         89.1268         13.2787 
        1.32537         88.7358           13.13 
        1.33151          88.181         12.9831 
        1.33765         87.6934         12.8385 
        1.34378         87.3246         12.6965 
        1.34992         87.0912         12.5564 
        1.35606         86.6047         12.4182 
         1.3622         85.9339         12.2823 
        1.36833         85.5698         12.1488 
        1.37445         85.2125         12.0173 
        1.38059         84.5022         11.8874 
        1.38675         84.0138          11.759 
        1.39288         84.0324         11.6331 
        1.39901         83.5025         11.5091 
        1.40515         82.8441         11.3866 
         1.4113         82.6495         11.2659 
        1.41742         82.1031         11.1475 
        1.42355         81.8115         11.0305 
         1.4297         81.4289         10.9149 
        1.43585         80.9259         10.8009 
        1.44198          80.487          10.689 
        1.44809         80.2837         10.5789 
        1.45423          80.002           10.47 
        1.46036         79.4071         10.3628 
        1.46649         78.9766          10.257 
        1.47263         78.4467         10.1527 
        1.47877         78.1431         10.0498 
        1.48491         77.7685         9.94821 
        1.49104         77.5398         9.84823 
        1.49718         77.2203         9.74954 
        1.50333         76.8517         9.65205 
        1.50947         76.2892         9.55609 
         1.5156         76.1636         9.46158 
        1.52172          75.747         9.36834 
        1.52787         75.2865         9.27617 
          1.534         74.8738         9.18535 
        1.54013         74.4992         9.09584 
        1.54627         74.2698         9.00736 
        1.55241         73.8933         8.92004 
        1.55855         73.5008           8.834 
        1.56467         73.2471         8.74933 
         1.5708         72.7792         8.66553 
        1.57695         72.6789          8.5827 
        1.58308         72.2925         8.50115 
        1.58922         71.9271          8.4206 
        1.59535         71.6093         8.34112 
         1.6015         71.2772         8.26256 
        1.60764         70.9662         8.18504 
        1.61376         70.6459         8.10873 
        1.61989         70.3299         8.03333 
        1.62604         69.9308         7.95873 
        1.63218         69.8081         7.88511 
        1.63831         69.1701         7.81259 
        1.64444         68.8242         7.74096 
        1.65059         68.6549         7.67006 
        1.65673         68.2262         7.60012 
        1.66285         68.0489         7.53124 
        1.66898         67.8008          7.4632 
        1.67512         67.2205         7.39586 
        1.68127         67.1425          7.3293 
         1.6874         66.6465          7.2637 
        1.69353         66.3916         7.19894 
        1.69967         66.2522         7.13482 
        1.70581         65.8516          7.0715 
        1.71193         65.5586         7.00919 
        1.71806         65.2716          6.9475 
        1.72421         65.0685         6.88643 
        1.73035         64.7281         6.82617 
        1.73649         64.4683         6.76663 
        1.74262         64.0691         6.70785 
        1.74876         63.8881         6.64973 
        1.75489         63.5646         6.59242 
        1.76101         63.3242         6.53579 
        1.76715         62.8489         6.47976 
        1.77329         62.6893         6.42431 
        1.77943         62.3922         6.36948 
        1.78557         62.2066         6.31537 
        1.79171         61.7734         6.26189 
        1.79785         61.4191         6.20901 
        1.80399         61.2722         6.15675 
        1.81012         61.0423         6.10516 
        1.81625          60.797         6.05418 
        1.82239         60.4576         6.00371 
        1.82853          60.271         5.95384 
        1.83466         60.0302         5.90458 
        1.84078         59.5566         5.85594 
        1.84692         59.4601         5.80776 
        1.85306         59.1554         5.76006 
         1.8592         58.9898         5.71297 
        1.86533         58.6455         5.66643 
        1.87147         58.2713         5.62036 
        1.87761         58.1389         5.57478 
        1.88375         57.9471         5.52976 
        1.88988         57.4698         5.48528 
        1.89601         57.4729         5.44126 
        1.90215         56.9116          5.3977 
        1.90829         56.7433         5.35463 
        1.91442         56.6327         5.31202 
        1.92056         56.3862         5.26992 
         1.9267         56.0636         5.22823 
        1.93284          55.831         5.18696 
        1.93897         55.5801         5.14622 
        1.94509         55.4439           5.106 
        1.95123         55.1363         5.06611 
        1.95737         54.8805         5.02661 
        1.96349         54.6347         4.98764 
        1.96964         54.2878         4.94897 
        1.97578         54.0846         4.91069 
        1.98192         54.1017         4.87289 
        1.98805         53.6512         4.83549 
        1.99419         53.4712         4.79847 
        2.00033         53.2789         4.76183 
        2.00647          53.043         4.72557 
         2.0126         52.7114         4.68976 
        2.01874         52.4746         4.65425 
        2.02488         52.3698         4.61909 
        2.03101         52.1296         4.58435 
        2.03714         51.8385            4.55 
        2.04328         51.6326         4.51597 
        2.04941         51.3818         4.48231 
        2.05554         51.2311         4.44901 
        2.06167         51.0738         4.41601 
        2.06781           50.71         4.38334 
        2.07396         50.6015         4.35095 
        2.08009         50.3835         4.31894 
        2.08622         50.0579         4.28729 
        2.09237          49.942          4.2559 
        2.09851         49.8009         4.22481 
        2.10464         49.4602         4.19409 
        2.11077         49.3009         4.16371 
        2.11691         49.0269         4.13356 
        2.12305         48.9032         4.10371 
        2.12918         48.6988         4.07422 
        2.13531         48.3502         4.04502 
        2.14145           48.21         4.01604 
         2.1476         48.0044         3.98731 
        2.15372          47.837           3.959 
        2.15985         47.6148         3.93094 
        2.16599         47.4511         3.90307 
        2.17213         47.2556          3.8755 
        2.17827         47.0365          3.8482 
         2.1844         46.7859         3.82119 
        2.19054         46.5716         3.79443 
        2.19666         46.4471         3.76796 
         2.2028         46.3286         3.74172 
        2.20893         46.0018         3.71571 
        2.21508         45.9404         3.68992 
        2.22122         45.6859         3.66437 
        2.22736         45.4424         3.63912 
        2.23349         45.3193          3.6141 
        2.23962         45.0917         3.58931 
        2.24577         44.8143         3.56473 
         2.2519         44.7095         3.54041 
        2.25802         44.5029         3.51636 
        2.26417         44.3236         3.49246 
        2.27031         44.2295         3.46877 
        2.27644         43.9198         3.44536 
        2.28257          43.752         3.42217 
        2.28872         43.5391         3.39915 
        2.29486         43.4404         3.37634 
        2.30099         43.2014         3.35379 
        2.30712         43.0322         3.33143 
        2.31326          42.817         3.30924 
         2.3194         42.6571         3.28727 
        2.32553         42.4907         3.26553 
        2.33166         42.2796           3.244 
         2.3378          42.144         3.22263 
        2.34394         41.9716         3.20144 
        2.35007         41.8079         3.18048 
        2.35619         41.6128         3.15973 
        2.36233         41.4244         3.13911 
        2.36848         41.2933         3.11863 
        2.37462         41.0855         3.09838 
        2.38075         41.0052         3.07833 
        2.38689         40.7608         3.05844 
        2.39303         40.5329         3.03873 
        2.39916          40.396         3.01921 
        2.40529           40.31         2.99987 
        2.41143         40.1348         2.98068 
        2.41757         39.9594         2.96164 
         2.4237          39.755         2.94281 
        2.42983         39.6226         2.92415 
        2.43598         39.4659          2.9056 
        2.44211         39.2728         2.88723 
        2.44823         39.1539         2.86907 
        2.45437         38.9468         2.85101 
        2.46052         38.7969          2.8331 
        2.46665         38.6689         2.81537 
        2.47279          38.392         2.79779 
        2.47892         38.3058         2.78036 
        2.48507         38.1652         2.76305 
         2.4912         38.0253         2.74593 
