# k  (h/Mpc)    Pcb(k)  (Mpc/h)^3    Pcb_linear(k)  (Mpc/h)^3
     0.00783031         1787.41         1798.81 
       0.013688         2307.39         2335.93 
       0.019231         2441.56         2455.44 
      0.0249154         2349.85         2349.24 
      0.0312784         2102.73         2107.73 
      0.0375637         1844.12         1852.85 
      0.0433917         1655.12          1653.9 
      0.0492413          1498.7         1503.76 
      0.0555754         1389.32         1387.65 
      0.0619321         1282.12         1298.02 
       0.067871            1213         1218.91 
      0.0738098         1128.74          1132.4 
      0.0800417         1031.03         1031.37 
      0.0862327         924.233         927.007 
      0.0921407         831.045         833.192 
      0.0982031         753.236         750.983 
       0.104506         681.498         684.772 
       0.110769         635.194         637.363 
       0.116806         607.577         604.273 
       0.122832         575.703         577.369 
       0.129052         550.569         550.029 
       0.135211         523.191         519.585 
       0.141259          486.69          485.73 
       0.147318         447.878          449.73 
       0.153489         415.604         414.093 
       0.159709         387.193         382.294 
       0.165845         356.713         356.719 
       0.171974          343.41         337.049 
       0.178125         328.327         321.986 
       0.184229         312.446         309.718 
        0.19034         303.689         298.106 
       0.196428         291.379         285.747 
       0.202534         273.856         271.986 
       0.208729         262.847          256.95 
       0.214876         250.064         241.885 
       0.220989          232.35         227.808 
       0.227147         224.464         215.348 
        0.23329         214.875         204.966 
       0.239377         207.531          196.53 
       0.245482         198.735         189.402 
       0.251667         190.885         182.874 
       0.257832         187.258         176.454 
       0.263955          178.05         169.798 
       0.270079         171.243         162.798 
        0.27624         163.169         155.589 
       0.282372         157.094         148.565 
        0.28843         153.755          142.08 
       0.294538         146.929         136.202 
       0.300721         140.572         130.987 
        0.30691         137.789         126.403 
       0.313033         132.679         122.316 
       0.319153         130.389         118.457 
       0.325316         124.874         114.635 
        0.33145          120.91         110.793 
       0.337538         117.261         106.948 
       0.343633         113.764         103.125 
       0.349808         109.903         99.3825 
       0.355968         106.494         95.8666 
       0.362074         104.333         92.6477 
       0.368217         101.381         89.6863 
       0.374374         99.2903         86.9521 
       0.380519         95.2009         84.4008 
       0.386598         92.7111          81.983 
       0.392688         90.1391         79.6163 
        0.39888         88.4354         77.2451 
       0.405048         86.3285         74.9137 
       0.411186         84.1555         72.6469 
       0.417313          81.844          70.466 
       0.423458          79.568         68.3815 
       0.429607         78.2276         66.4128 
       0.435692         76.8822         64.5818 
       0.441815         74.1053         62.8384 
       0.447964         72.0106         61.1695 
       0.454126         70.7769         59.5607 
       0.460267         70.1443         58.0029 
       0.466387         68.2311         56.4859 
        0.47254         67.2776         54.9991 
       0.478662         65.1452         53.5624 
       0.484765         63.8959         52.1773 
       0.490885         62.1416         50.8418 
       0.497035         61.3267         49.5584 
       0.503198         59.8876         48.3291 
       0.509342          58.391         47.1537 
       0.515458          57.713         46.0272 
       0.521598         56.3755         44.9345 
       0.527764         55.6697         43.8707 
       0.533884         54.5441         42.8438 
           0.54         53.4316          41.845 
       0.546137         51.9004         40.8717 
       0.552299         51.0878         39.9258 
       0.558452         50.0942         39.0135 
       0.564573         49.7038          38.137 
       0.570708         48.3455         37.2883 
       0.576825         47.7631         36.4706 
       0.582926         47.0168         35.6817 
       0.589034         46.1385         34.9162 
       0.595184         45.5552         34.1679 
       0.601379         44.3523         33.4351 
       0.607522         43.7438         32.7281 
       0.613639         43.0928         32.0437 
       0.619772         42.3891         31.3773 
       0.625918         41.5863         30.7294 
       0.632068          41.261         30.1008 
       0.638161         40.4382         29.4963 
         0.6443         39.8765         28.9049 
       0.650464         38.9233         28.3279 
       0.656582         38.7171          27.771 
       0.662703         38.2935          27.229 
       0.668861         37.3132         26.6985 
       0.675024          36.937         26.1818 
       0.681124         36.6629         25.6841 
       0.687237         35.9494         25.1985 
       0.693381         35.2747         24.7233 
       0.699536         35.1362         24.2598 
       0.705665         34.5022         23.8103 
       0.711789         33.9158         23.3728 
       0.717957         33.2897         22.9436 
        0.72409         33.0115         22.5278 
       0.730186         32.8613          22.125 
       0.736317         32.2233         21.7301 
       0.742472          31.836         21.3436 
       0.748622         31.3542         20.9669 
        0.75476         30.6268         20.6003 
       0.760888         30.5466         20.2431 
       0.767043         30.0567          19.893 
       0.773185         29.7764          19.552 
       0.779291         29.4823         19.2211 
       0.785407          28.995         18.8975 
       0.791564         28.8407         18.5794 
       0.797719         28.2572         18.2689 
       0.803834          28.122         17.9675 
       0.809972         27.6247          17.672 
       0.816124         27.3449         17.3826 
       0.822261         27.0676         17.1005 
       0.828378         26.7914         16.8257 
       0.834502         26.5452         16.5567 
       0.840667         26.2739          16.292 
       0.846816         25.7226         16.0339 
       0.852925         25.6644         15.7831 
       0.859047         25.3762         15.5372 
       0.865192         25.0372         15.2958 
       0.871341         24.7287         15.0595 
       0.877463         24.4988         14.8293 
       0.883569         24.3739         14.6045 
       0.889708         23.9966         14.3834 
       0.895864         23.7096         14.1663 
       0.902008         23.4423         13.9542 
       0.908149         23.1849         13.7466 
       0.914301         23.0802          13.543 
       0.920448         22.7452         13.3438 
       0.926574         22.5806         13.1493 
       0.932687         22.3038         12.9592 
       0.938823         22.0444         12.7721 
       0.944975         21.8702         12.5884 
       0.951105         21.6521         12.4091 
       0.957225         21.5352         12.2335 
       0.963368          21.219         12.0608 
       0.969511         21.0223         11.8915 
       0.975621         20.8373         11.7264 
       0.981748         20.5883          11.564 
       0.987916         20.4593         11.4037 
        0.99406         20.2525         11.2472 
        1.00019         20.0996         11.0938 
        1.00632         19.9334         10.9436 
        1.01246         19.7602         10.7959 
        1.01859         19.5298         10.6512 
        1.02471         19.3336         10.5094 
        1.03085         19.2696         10.3697 
        1.03698         19.0946         10.2328 
        1.04314         18.8722         10.0979 
        1.04929         18.6542         9.96575 
        1.05541         18.5925         9.83653 
        1.06154         18.4423         9.70932 
        1.06769         18.2974         9.58418 
        1.07382         18.0315         9.46169 
        1.07993         17.8926         9.34165 
        1.08607         17.8219         9.22321 
        1.09222         17.6123         9.10674 
        1.09836         17.5385         8.99244 
        1.10449         17.3216         8.88025 
        1.11063         17.2539         8.76988 
        1.11677         17.1547         8.66145 
         1.1229         16.9885         8.55505 
        1.12903         16.8738         8.45038 
        1.13518         16.6528         8.34739 
        1.14131         16.5827          8.2462 
        1.14745         16.3608         8.14675 
        1.15359         16.2484         8.04895 
        1.15973         16.1194         7.95274 
        1.16584         16.0034         7.85855 
        1.17197         15.8727         7.76576 
        1.17811         15.7538         7.67421 
        1.18424         15.6577         7.58441 
        1.19038         15.5759         7.49581 
        1.19652         15.4377         7.40867 
        1.20267         15.3354         7.32293 
        1.20881         15.1782         7.23859 
        1.21495         15.0666         7.15572 
        1.22108         15.0251         7.07417 
         1.2272         14.8945          6.9941 
        1.23334         14.8224          6.9151 
        1.23949          14.685         6.83714 
        1.24562         14.5661         6.76062 
        1.25174         14.4925         6.68539 
        1.25789         14.3345         6.61109 
        1.26402          14.299         6.53806 
        1.27014         14.2215         6.46632 
        1.27628         14.0436         6.39545 
        1.28244         14.0415         6.32552 
        1.28858         13.9101         6.25674 
        1.29471         13.7346         6.18915 
        1.30084         13.6615         6.12262 
        1.30697         13.6559         6.05699 
        1.31312          13.505         5.99223 
        1.31925         13.4388         5.92863 
        1.32537         13.3537         5.86603 
        1.33151         13.2603         5.80411 
        1.33765         13.1636         5.74314 
        1.34378         13.1429         5.68317 
        1.34992         13.0142         5.62403 
        1.35606          12.908         5.56561 
         1.3622          12.819         5.50813 
        1.36833         12.7732         5.45161 
        1.37445         12.6975         5.39591 
        1.38059         12.6263         5.34084 
        1.38675         12.5341         5.28641 
        1.39288         12.4212         5.23296 
        1.39901         12.3671         5.18028 
        1.40515         12.2872         5.12822 
         1.4113         12.1972          5.0769 
        1.41742         12.1556         5.02648 
        1.42355         12.0421         4.97666 
         1.4297          12.001         4.92738 
        1.43585         11.9384         4.87878 
        1.44198         11.8702         4.83104 
        1.44809         11.8015         4.78402 
        1.45423         11.7055         4.73747 
        1.46036         11.6534         4.69162 
        1.46649         11.5805         4.64637 
        1.47263         11.5309         4.60169 
        1.47877         11.4536         4.55761 
        1.48491         11.4022         4.51405 
        1.49104         11.3078         4.47116 
        1.49718         11.2777          4.4288 
        1.50333         11.2022         4.38692 
        1.50947         11.1202         4.34568 
         1.5156         11.0936         4.30503 
        1.52172         11.0278          4.2649 
        1.52787         10.9666         4.22522 
          1.534         10.9085         4.18608 
        1.54013          10.855         4.14749 
        1.54627         10.7845         4.10933 
        1.55241         10.6998         4.07164 
        1.55855         10.6933         4.03448 
        1.56467          10.612         3.99789 
         1.5708         10.5696         3.96165 
        1.57695         10.4875         3.92581 
        1.58308         10.4242         3.89051 
        1.58922         10.3888         3.85561 
        1.59535         10.3265         3.82116 
         1.6015         10.2483         3.78709 
        1.60764         10.2229         3.75345 
        1.61376         10.1884         3.72032 
        1.61989         10.0929         3.68756 
        1.62604         10.0708         3.65513 
        1.63218         10.0242         3.62312 
        1.63831         9.96647         3.59156 
        1.64444          9.8868         3.56037 
        1.65059         9.84476         3.52948 
        1.65673         9.81906         3.49899 
        1.66285         9.76925         3.46896 
        1.66898         9.71664         3.43926 
        1.67512          9.6571         3.40986 
        1.68127         9.59397         3.38078 
         1.6874         9.57288         3.35211 
        1.69353         9.50981         3.32379 
        1.69967         9.47487         3.29573 
        1.70581          9.4083         3.26801 
        1.71193         9.39255         3.24071 
        1.71806         9.34679         3.21367 
        1.72421          9.2793         3.18689 
        1.73035         9.24369         3.16045 
        1.73649          9.2075         3.13432 
        1.74262         9.13177          3.1085 
        1.74876         9.13412         3.08296 
        1.75489          9.0768         3.05777 
        1.76101         9.01218         3.03286 
        1.76715         8.99879          3.0082 
        1.77329         8.95888         2.98379 
        1.77943         8.88656         2.95963 
        1.78557         8.88474         2.93579 
        1.79171          8.8383          2.9122 
        1.79785          8.7963         2.88887 
        1.80399         8.71708         2.86581 
        1.81012         8.70628         2.84302 
        1.81625         8.64971          2.8205 
        1.82239         8.61735         2.79819 
        1.82853         8.56883         2.77614 
        1.83466         8.51681         2.75434 
        1.84078         8.50034          2.7328 
        1.84692         8.46625         2.71146 
        1.85306         8.42976         2.69033 
         1.8592         8.40194         2.66945 
        1.86533         8.36846         2.64881 
        1.87147          8.3136         2.62837 
        1.87761         8.29945         2.60813 
        1.88375         8.24551         2.58814 
        1.88988         8.20418         2.56837 
        1.89601         8.18703         2.54881 
        1.90215         8.12335         2.52943 
        1.90829         8.11169         2.51026 
        1.91442         8.05992          2.4913 
        1.92056         8.05499         2.47255 
         1.9267         7.99375         2.45397 
        1.93284         7.99074         2.43557 
        1.93897         7.93631          2.4174 
        1.94509         7.88645         2.39946 
        1.95123         7.87379         2.38165 
        1.95737          7.8448         2.36401 
        1.96349         7.78269          2.3466 
        1.96964         7.76271         2.32931 
        1.97578         7.73456         2.31219 
        1.98192         7.69495         2.29528 
        1.98805         7.67214         2.27854 
        1.99419         7.65172         2.26197 
        2.00033         7.59858         2.24555 
        2.00647         7.58795          2.2293 
         2.0126           7.552         2.21324 
        2.01874         7.51954         2.19732 
        2.02488         7.49097         2.18154 
        2.03101         7.44291         2.16594 
        2.03714         7.41429         2.15052 
        2.04328         7.39469         2.13522 
        2.04941         7.35472         2.12009 
        2.05554         7.34316         2.10512 
        2.06167         7.30784         2.09028 
        2.06781         7.27436         2.07557 
        2.07396         7.24394         2.06099 
        2.08009         7.22033         2.04657 
        2.08622         7.19866         2.03231 
        2.09237         7.18196         2.01816 
        2.09851          7.1248         2.00414 
        2.10464         7.11015         1.99028 
        2.11077         7.08484         1.97657 
        2.11691         7.07374         1.96295 
        2.12305         7.02801         1.94947 
        2.12918         7.00812         1.93614 
        2.13531         6.97493         1.92294 
        2.14145         6.95571         1.90984 
         2.1476         6.92519         1.89684 
        2.15372          6.8964         1.88402 
        2.15985         6.87945         1.87132 
        2.16599         6.85245         1.85869 
        2.17213         6.84045          1.8462 
        2.17827          6.7902         1.83383 
         2.1844         6.76926         1.82158 
        2.19054         6.75032         1.80944 
        2.19666         6.72473         1.79743 
         2.2028         6.68542         1.78551 
        2.20893         6.68028          1.7737 
        2.21508         6.65946         1.76199 
        2.22122         6.60413         1.75038 
        2.22736         6.59837         1.73889 
        2.23349          6.5731         1.72752 
        2.23962         6.55907         1.71624 
        2.24577         6.51555         1.70505 
         2.2519         6.51121         1.69397 
        2.25802         6.46245         1.68302 
        2.26417         6.45314         1.67213 
        2.27031         6.42656         1.66132 
        2.27644          6.4016         1.65065 
        2.28257         6.38141         1.64007 
        2.28872         6.36695         1.62956 
        2.29486          6.3389         1.61915 
        2.30099         6.31345         1.60885 
        2.30712         6.29391         1.59864 
        2.31326         6.26905          1.5885 
         2.3194         6.24548         1.57845 
        2.32553         6.21752         1.56851 
        2.33166         6.20501         1.55866 
         2.3378         6.18263         1.54888 
        2.34394         6.16001         1.53918 
        2.35007         6.12894         1.52958 
        2.35619         6.12428         1.52007 
        2.36233         6.08803         1.51062 
        2.36848         6.07939         1.50123 
        2.37462         6.05473         1.49195 
        2.38075         6.04254         1.48275 
        2.38689         6.01922         1.47362 
        2.39303         5.99094         1.46457 
        2.39916         5.97521         1.45561 
        2.40529         5.94851         1.44672 
        2.41143         5.93712          1.4379 
        2.41757         5.92085         1.42915 
         2.4237         5.89186         1.42049 
        2.42983         5.88323          1.4119 
        2.43598         5.86625         1.40337 
        2.44211          5.8397         1.39491 
        2.44823         5.80746         1.38655 
        2.45437         5.79435         1.37823 
        2.46052         5.77938         1.36997 
        2.46665         5.76652          1.3618 
        2.47279         5.72861          1.3537 
        2.47892         5.71646         1.34565 
        2.48507         5.70667         1.33767 
         2.4912          5.6834         1.32977 
