# k  (h/Mpc)    Pcb(k)  (Mpc/h)^3    Pcb_linear(k)  (Mpc/h)^3
     0.00783031         6409.49          6438.5 
       0.013688         8213.88          8370.5 
       0.019231         8810.66         8904.54 
      0.0249154         8647.71          8649.2 
      0.0312784         7811.35         7876.54 
      0.0375637         6882.75          6980.5 
      0.0433917         6196.73         6229.72 
      0.0492413         5558.57         5629.01 
      0.0555754         5117.82         5149.64 
      0.0619321         4651.08         4795.11 
       0.067871         4432.74         4516.43 
      0.0738098         4176.47         4238.76 
      0.0800417         3870.67            3920 
      0.0862327         3514.15         3575.51 
      0.0921407         3192.65         3241.22 
      0.0982031         2908.01         2920.63 
       0.104506         2599.23          2636.3 
       0.110769         2393.25         2415.19 
       0.116806         2275.99         2257.33 
       0.122832         2134.28         2140.87 
       0.129052         2042.45         2044.82 
       0.135211          1977.3         1955.04 
       0.141259         1857.54         1858.96 
       0.147318         1728.08         1749.93 
       0.153489         1628.59         1628.78 
       0.159709          1541.3         1505.17 
       0.165845         1402.15         1391.71 
       0.171974         1353.83         1294.39 
       0.178125         1290.49          1216.1 
       0.184229         1200.15         1156.39 
        0.19034         1175.16         1110.03 
       0.196428         1139.94         1070.96 
       0.202534         1073.96         1032.89 
       0.208729         1054.51         990.977 
       0.214876         1014.33         944.488 
       0.220989         949.239         894.485 
       0.227147         924.901         843.256 
        0.23329         886.482         794.741 
       0.239377         865.423         751.994 
       0.245482         820.406          715.85 
       0.251667         788.239         685.961 
       0.257832          779.85         661.458 
       0.263955         740.378         640.242 
       0.270079         718.268         619.927 
        0.27624         689.115         598.754 
       0.282372          674.89         576.194 
        0.28843         669.421         552.585 
       0.294538         635.582         528.352 
       0.300721         614.546         504.544 
        0.30691         604.172         482.555 
       0.313033         578.548         463.245 
       0.319153         568.746         446.531 
       0.325316         557.032         431.909 
        0.33145         545.064         418.893 
       0.337538         526.564         406.696 
       0.343633         511.339         394.589 
       0.349808         498.673         382.007 
       0.355968         488.956          369.11 
       0.362074         475.339         356.169 
       0.368217         470.531          343.39 
       0.374374         460.889          331.21 
       0.380519         442.725         319.958 
       0.386598         436.998         309.861 
       0.392688         427.811         300.685 
        0.39888         416.848         292.139 
       0.405048         410.091         284.141 
       0.411186         407.185         276.413 
       0.417313         400.579          268.77 
       0.423458         389.433         261.089 
       0.429607         380.622         253.404 
       0.435692         373.817         245.923 
       0.441815         367.686         238.639 
       0.447964         358.928         231.674 
       0.454126          353.92         225.135 
       0.460267         349.175         219.063 
       0.466387         343.263         213.385 
        0.47254          338.82         207.983 
       0.478662         329.843         202.825 
       0.484765         326.321         197.808 
       0.490885         322.469         192.847 
       0.497035         317.764         187.936 
       0.503198         315.178         183.107 
       0.509342         306.816         178.411 
       0.515458         303.442         173.894 
       0.521598         297.216         169.556 
       0.527764         293.616         165.416 
       0.533884         293.109           161.5 
           0.54         287.128         157.756 
       0.546137         280.931         154.142 
       0.552299         279.717         150.632 
       0.558452         275.106         147.219 
       0.564573         272.897         143.891 
       0.570708         267.909         140.622 
       0.576825         263.918         137.443 
       0.582926         261.227         134.367 
       0.589034         257.996         131.388 
       0.595184         256.272         128.494 
       0.601379         251.181         125.682 
       0.607522         247.144         122.993 
       0.613639         245.394          120.41 
       0.619772         243.454         117.903 
       0.625918         241.057         115.464 
       0.632068         236.204         113.084 
       0.638161         233.912         110.779 
         0.6443         232.831          108.51 
       0.650464         228.814         106.291 
       0.656582         227.278         104.151 
       0.662703         225.401         102.073 
       0.668861         221.302         100.048 
       0.675024         221.039         98.0813 
       0.681124         217.989         96.1909 
       0.687237         215.307         94.3481 
       0.693381         213.766         92.5449 
       0.699536         211.151         90.7847 
       0.705665         208.726         89.0772 
       0.711789         206.696         87.4145 
       0.717957         204.491         85.7824 
        0.72409         203.044         84.2007 
       0.730186         202.869         82.6683 
       0.736317         199.381         81.1657 
       0.742472          196.91         79.6952 
       0.748622         194.182         78.2627 
        0.75476         194.743          76.869 
       0.760888         192.646          75.512 
       0.767043         189.876         74.1831 
       0.773185         188.133         72.8896 
       0.779291         185.872         71.6348 
       0.785407         184.632         70.4081 
       0.791564         183.317         69.2027 
       0.797719         181.014         68.0263 
       0.803834         180.955         66.8847 
       0.809972         179.825         65.7653 
       0.816124         177.361         64.6692 
       0.822261         175.552          63.601 
       0.828378         175.557         62.5603 
       0.834502         172.501          61.542 
       0.840667         172.077           60.54 
       0.846816         170.457         59.5633 
       0.852925         168.856         58.6143 
       0.859047         167.339         57.6842 
       0.865192         166.511         56.7714 
       0.871341           164.5         55.8779 
       0.877463         163.412         55.0078 
       0.883569         163.182         54.1585 
       0.889708         161.872          53.323 
       0.895864         160.248         52.5031 
       0.902008         158.933         51.7023 
       0.908149         156.996         50.9188 
       0.914301         157.154         50.1504 
       0.920448         156.052         49.3987 
       0.926574          153.85         48.6651 
       0.932687         153.498         47.9481 
       0.938823         152.298         47.2431 
       0.944975         150.669         46.5507 
       0.951105         149.648         45.8747 
       0.957225         149.483         45.2133 
       0.963368         147.776         44.5628 
       0.969511         146.454         43.9251 
       0.975621         145.471         43.3034 
       0.981748         144.307         42.6922 
       0.987916         143.569          42.089 
        0.99406         142.833         41.4998 
        1.00019         141.526         40.9231 
        1.00632         140.897         40.3579 
        1.01246         139.827         39.8025 
        1.01859         138.968         39.2586 
        1.02471         137.883         38.7256 
        1.03085         136.813         38.2006 
        1.03698          135.98         37.6866 
        1.04314         135.214         37.1798 
        1.04929         134.735         36.6836 
        1.05541         133.809         36.1985 
        1.06154          132.96          35.721 
        1.06769         131.708         35.2515 
        1.07382         130.877          34.792 
        1.07993         130.341         34.3417 
        1.08607         129.168         33.8976 
        1.09222         128.835          33.461 
        1.09836         127.455         33.0325 
        1.10449         126.767         32.6121 
        1.11063         125.989         32.1986 
        1.11677         125.253         31.7925 
         1.1229         124.342         31.3941 
        1.12903         123.966         31.0022 
        1.13518         123.179         30.6167 
        1.14131         122.443          30.238 
        1.14745          121.51         29.8659 
        1.15359         120.317            29.5 
        1.15973         119.983         29.1402 
        1.16584         119.228          28.788 
        1.17197         118.561         28.4411 
        1.17811         117.725         28.0989 
        1.18424         116.936         27.7633 
        1.19038         116.794         27.4323 
        1.19652         115.806         27.1068 
        1.20267         115.037         26.7866 
        1.20881         114.374         26.4717 
        1.21495          113.92         26.1623 
        1.22108         113.164         25.8579 
         1.2272         112.238         25.5592 
        1.23334         111.925         25.2644 
        1.23949         111.313         24.9737 
        1.24562         110.345         24.6883 
        1.25174         109.601         24.4078 
        1.25789         109.605         24.1308 
        1.26402         108.695         23.8587 
        1.27014         108.179         23.5914 
        1.27628         107.111         23.3274 
        1.28244         106.901         23.0669 
        1.28858         106.129         22.8108 
        1.29471         105.517         22.5591 
        1.30084         104.841         22.3115 
        1.30697         104.783         22.0673 
        1.31312         103.873         21.8264 
        1.31925          103.29         21.5898 
        1.32537         102.715          21.357 
        1.33151         102.535         21.1268 
        1.33765         101.546         20.9001 
        1.34378         101.387         20.6772 
        1.34992         100.811         20.4574 
        1.35606         100.096         20.2404 
         1.3622         99.7473         20.0269 
        1.36833          98.848          19.817 
        1.37445         98.2402         19.6102 
        1.38059          97.973         19.4057 
        1.38675         97.1153         19.2037 
        1.39288         96.9965         19.0053 
        1.39901         95.9915         18.8099 
        1.40515         95.8134         18.6168 
         1.4113         95.3634         18.4264 
        1.41742         94.7346         18.2395 
        1.42355          94.217         18.0548 
         1.4297         93.6961         17.8721 
        1.43585         93.1004          17.692 
        1.44198         92.6773         17.5151 
        1.44809         92.1003          17.341 
        1.45423         91.6304         17.1685 
        1.46036         90.9524         16.9988 
        1.46649         90.7007         16.8312 
        1.47263         90.2645         16.6658 
        1.47877         89.8689         16.5027 
        1.48491         89.2744         16.3415 
        1.49104         88.5769         16.1828 
        1.49718         88.3717         16.0261 
        1.50333         87.8648         15.8713 
        1.50947         87.5566         15.7188 
         1.5156         87.1082         15.5685 
        1.52172         86.4963         15.4202 
        1.52787         85.9744         15.2736 
          1.534         85.7373          15.129 
        1.54013         85.3463         14.9864 
        1.54627         84.5917         14.8455 
        1.55241         84.1419         14.7063 
        1.55855         83.9186         14.5691 
        1.56467         83.1152          14.434 
         1.5708         82.9702         14.3003 
        1.57695         82.5317         14.1681 
        1.58308         82.0825         14.0378 
        1.58922         81.7079         13.9091 
        1.59535         81.4057         13.7821 
         1.6015         81.1896         13.6565 
        1.60764         80.6916         13.5325 
        1.61376         80.1043         13.4103 
        1.61989         79.4613         13.2896 
        1.62604         79.2769         13.1701 
        1.63218         78.9812         13.0522 
        1.63831         78.5956          12.936 
        1.64444         78.2052         12.8211 
        1.65059         77.8234         12.7074 
        1.65673         77.1842         12.5952 
        1.66285         76.8469         12.4846 
        1.66898          76.308         12.3753 
        1.67512         76.2451         12.2672 
        1.68127         75.7848         12.1602 
         1.6874         75.2965         12.0547 
        1.69353         75.0424         11.9506 
        1.69967         74.6994         11.8474 
        1.70581         74.2827         11.7455 
        1.71193          73.877         11.6452 
        1.71806         73.3779         11.5459 
        1.72421         73.1993         11.4475 
        1.73035         72.9392         11.3503 
        1.73649         72.4515         11.2543 
        1.74262         71.8614         11.1595 
        1.74876         71.6997         11.0658 
        1.75489         71.1367         10.9733 
        1.76101         70.8336         10.8819 
        1.76715         70.8296         10.7914 
        1.77329         70.1085         10.7018 
        1.77943         69.9915         10.6132 
        1.78557          69.726         10.5257 
        1.79171         69.2521         10.4392 
        1.79785         68.9258         10.3537 
        1.80399         68.5606         10.2692 
        1.81012         68.2237         10.1857 
        1.81625         67.9771         10.1031 
        1.82239         67.6701         10.0214 
        1.82853         67.2601         9.94057 
        1.83466         66.9353         9.86074 
        1.84078          66.557         9.78187 
        1.84692         66.2869         9.70373 
        1.85306         65.9813         9.62636 
         1.8592         65.7387         9.54995 
        1.86533         65.2327         9.47441 
        1.87147         64.9895          9.3996 
        1.87761         64.5903         9.32557 
        1.88375         64.3319         9.25242 
        1.88988         64.0834         9.18014 
        1.89601         63.6693         9.10859 
        1.90215         63.3792         9.03774 
        1.90829         63.1729         8.96769 
        1.91442         62.7982         8.89836 
        1.92056         62.4774         8.82984 
         1.9267         62.1989         8.76196 
        1.93284         62.0126         8.69476 
        1.93897         61.7093         8.62839 
        1.94509         61.2307         8.56285 
        1.95123         60.9465         8.49783 
        1.95737         60.6021         8.43344 
        1.96349         60.3676         8.36987 
        1.96964         60.0745         8.30678 
        1.97578         59.8304         8.24432 
        1.98192         59.5444         8.18262 
        1.98805         59.2647         8.12154 
        1.99419         58.9599         8.06109 
        2.00033         58.6859         8.00122 
        2.00647         58.4382         7.94198 
         2.0126         58.0677         7.88343 
        2.01874         57.8406         7.82539 
        2.02488         57.5341         7.76788 
        2.03101         57.2874         7.71105 
        2.03714         57.0617         7.65485 
        2.04328         56.7594         7.59914 
        2.04941         56.4282         7.54403 
        2.05554         56.3001         7.48951 
        2.06167          56.097         7.43546 
        2.06781         55.5479         7.38192 
        2.07396         55.3501         7.32884 
        2.08009         55.2465         7.27637 
        2.08622         54.9088         7.22448 
        2.09237         54.6282         7.17299 
        2.09851         54.3342         7.12199 
        2.10464         54.0879         7.07157 
        2.11077         53.8881         7.02171 
        2.11691         53.5223         6.97221 
        2.12305         53.3165         6.92318 
        2.12918         53.0672         6.87475 
        2.13531         52.8855         6.82677 
        2.14145         52.5394         6.77914 
         2.1476         52.3214         6.73192 
        2.15372         52.1872         6.68537 
        2.15985         51.7837         6.63922 
        2.16599         51.6245         6.59338 
        2.17213         51.3797         6.54801 
        2.17827         51.0961         6.50309 
         2.1844         50.8212         6.45862 
        2.19054         50.6077         6.41456 
        2.19666         50.3232         6.37097 
         2.2028          50.099         6.32774 
        2.20893         49.8219          6.2849 
        2.21508         49.6448          6.2424 
        2.22122         49.4255         6.20028 
        2.22736         49.1071         6.15864 
        2.23349          48.984         6.11739 
        2.23962          48.685         6.07649 
        2.24577         48.5445         6.03594 
         2.2519         48.2007          5.9958 
        2.25802         48.0791          5.9561 
        2.26417          47.825         5.91665 
        2.27031         47.6154         5.87751 
        2.27644         47.4292         5.83885 
        2.28257         47.0089         5.80053 
        2.28872         47.0368         5.76249 
        2.29486         46.7329         5.72479 
        2.30099         46.4107         5.68751 
        2.30712         46.3421         5.65054 
        2.31326         45.9975         5.61384 
         2.3194         45.7731         5.57749 
        2.32553         45.6574         5.54152 
        2.33166         45.3066         5.50588 
         2.3378         45.1292         5.47051 
        2.34394          44.974         5.43543 
        2.35007         44.7083         5.40071 
        2.35619         44.6642         5.36634 
        2.36233         44.2907         5.33219 
        2.36848         44.1191         5.29826 
        2.37462         43.9356          5.2647 
        2.38075         43.8172         5.23146 
        2.38689         43.6036         5.19848 
        2.39303         43.4066         5.16579 
        2.39916         43.0894         5.13341 
        2.40529         42.9062         5.10131 
        2.41143         42.7298         5.06947 
        2.41757         42.5535         5.03788 
         2.4237         42.3797         5.00662 
        2.42983         42.1457         4.97562 
        2.43598         41.9776         4.94481 
        2.44211         41.7956         4.91431 
        2.44823         41.5472         4.88413 
        2.45437         41.4248         4.85413 
        2.46052         41.1297         4.82435 
        2.46665         40.9755         4.79487 
        2.47279          40.732         4.76565 
        2.47892         40.6232         4.73665 
        2.48507         40.4481         4.70787 
         2.4912          40.249         4.67938 
