# k  (h/Mpc)    P(k)  (Mpc/h)^3    P_linear(k)  (Mpc/h)^3
     0.00783031         745.378         753.152 
       0.013688         970.052         972.578 
       0.019231         1012.48         1013.17 
      0.0249154         950.466         955.787 
      0.0312784         838.896         839.843 
      0.0375637         723.142         721.507 
      0.0433917         631.013         631.651 
      0.0492413         567.122         566.412 
      0.0555754         517.555          519.31 
      0.0619321         488.184         486.391 
       0.067871         457.524          458.94 
      0.0738098         426.519         428.237 
      0.0800417         387.808         390.282 
      0.0862327         347.862         348.919 
      0.0921407         310.205         310.307 
      0.0982031         275.143          275.75 
       0.104506          249.17         247.902 
       0.110769         229.663         228.654 
       0.116806         216.196         216.419 
       0.122832          208.26         207.775 
       0.129052         199.084         199.701 
       0.135211         189.533         190.324 
       0.141259         178.879         178.865 
       0.147318         166.252          165.56 
       0.153489         151.803         151.461 
       0.159709         138.962         138.288 
       0.165845         129.201         127.487 
       0.171974          120.16         119.336 
       0.178125         114.549         113.563 
       0.184229         110.647         109.483 
        0.19034         106.206         106.098 
       0.196428         103.267         102.561 
       0.202534         99.6878         98.3078 
       0.208729         94.1301         93.1622 
       0.214876         88.1291         87.5243 
       0.220989         83.4308         81.8993 
       0.227147          77.598         76.7272 
        0.23329         73.4049         72.4026 
       0.239377         70.2891          69.034 
       0.245482          67.226         66.4429 
       0.251667         65.6429         64.3423 
       0.257832         63.5798         62.4363 
       0.263955           61.57         60.4475 
       0.270079         59.3712         58.2115 
        0.27624         57.2985         55.7037 
       0.282372         54.6794         53.0701 
        0.28843         51.9268         50.5061 
       0.294538         49.5872         48.1233 
       0.300721         47.8619         46.0293 
        0.30691         45.7983         44.2748 
       0.313033         44.3738         42.8297 
       0.319153         42.5968         41.5691 
       0.325316         41.9936         40.3749 
        0.33145         40.6106         39.1647 
       0.337538          39.407         37.8968 
       0.343633         37.9611         36.5574 
       0.349808         36.7115          35.172 
       0.355968         35.4199         33.8199 
       0.362074         34.1389         32.5638 
       0.368217         33.0445         31.4247 
       0.374374         31.9063         30.4108 
       0.380519         31.1293         29.5141 
       0.386598         30.3334         28.7035 
       0.392688         29.6552          27.929 
        0.39888          28.792         27.1507 
       0.405048         28.0709         26.3629 
       0.411186         27.3257         25.5672 
       0.417313         26.3803         24.7745 
       0.423458         25.6701         23.9974 
       0.429607         24.8801         23.2578 
       0.435692         24.1574         22.5776 
       0.441815         23.6023         21.9445 
       0.447964         23.1589         21.3568 
       0.454126         22.3691         20.8062 
       0.460267         21.8942         20.2804 
       0.466387         21.2591         19.7671 
        0.47254         20.8704         19.2571 
       0.478662         20.4335         18.7541 
       0.484765         19.8408         18.2581 
       0.490885           19.35         17.7731 
       0.497035         19.0535         17.3051 
       0.503198         18.5371         16.8596 
       0.509342         18.0945         16.4385 
       0.515458         17.6557         16.0414 
       0.521598         17.3157         15.6624 
       0.527764         16.9062         15.2966 
       0.533884         16.6147         14.9434 
           0.54         16.2455          14.597 
       0.546137         15.9325         14.2562 
       0.552299         15.6197          13.922 
       0.558452         15.1556         13.5971 
       0.564573         14.9356         13.2836 
       0.570708         14.6378         12.9804 
       0.576825         14.2633           12.69 
       0.582926         14.0228         12.4127 
       0.589034         13.6273         12.1458 
       0.595184         13.4209         11.8858 
       0.601379         13.1417         11.6313 
       0.607522         12.9483         11.3848 
       0.613639         12.7711         11.1452 
       0.619772         12.4302         10.9113 
       0.625918         12.2968         10.6832 
       0.632068         12.0979         10.4615 
       0.638161         11.8074         10.2483 
         0.6443         11.5693         10.0398 
       0.650464         11.3323         9.83692 
       0.656582         11.2268         9.64171 
       0.662703         11.0198         9.45235 
       0.668861         10.8277          9.2674 
       0.675024         10.6077         9.08741 
       0.681124         10.4199         8.91393 
       0.687237          10.267         8.74433 
       0.693381         10.1178         8.57794 
       0.699536         9.84621         8.41532 
       0.705665          9.7292         8.25752 
       0.711789         9.57267         8.10395 
       0.717957         9.40788         7.95342 
        0.72409         9.25085         7.80788 
       0.730186         9.12258         7.66716 
       0.736317         9.02488         7.52936 
       0.742472         8.87977         7.39459 
       0.748622         8.72535         7.26331 
        0.75476         8.53928         7.13549 
       0.760888         8.43781         7.01088 
       0.767043         8.33667         6.88866 
       0.773185         8.16533         6.76956 
       0.779291         8.08966         6.65392 
       0.785407         7.95895         6.54082 
       0.791564         7.83459         6.42967 
       0.797719          7.7136          6.3212 
       0.803834         7.63964         6.21601 
       0.809972         7.54798          6.1129 
       0.816124         7.39417         6.01198 
       0.822261         7.27812         5.91366 
       0.828378         7.19386         5.81789 
       0.834502         7.12568          5.7242 
       0.840667         6.98788           5.632 
       0.846816         6.87648         5.54211 
       0.852925         6.81738         5.45477 
       0.859047         6.72516         5.36915 
       0.865192         6.65422          5.2851 
       0.871341         6.57501         5.20281 
       0.877463         6.48085         5.12267 
       0.883569         6.37001         5.04443 
       0.889708         6.27001         4.96745 
       0.895864         6.21214          4.8919 
       0.902008         6.12962          4.8181 
       0.908149         6.06275         4.74588 
       0.914301         5.96184         4.67505 
       0.920448         5.88395         4.60575 
       0.926574         5.80658         4.53811 
       0.932687         5.75298         4.47199 
       0.938823         5.68216         4.40697 
       0.944975         5.60587          4.3431 
       0.951105         5.54895         4.28075 
       0.957225         5.51758         4.21974 
       0.963368         5.43599         4.15973 
       0.969511         5.36483         4.10089 
       0.975621         5.28931         4.04352 
       0.981748         5.23967         3.98711 
       0.987916         5.18076         3.93144 
        0.99406         5.09699         3.87705 
        1.00019         5.03708         3.82381 
        1.00632         4.99872         3.77163 
        1.01246         4.94374         3.72035 
        1.01859         4.88245         3.67012 
        1.02471         4.82732         3.62089 
        1.03085         4.77552         3.57241 
        1.03698         4.71252         3.52492 
        1.04314         4.67226          3.4781 
        1.04929         4.61214         3.43226 
        1.05541         4.56232         3.38743 
        1.06154         4.51905          3.3433 
        1.06769         4.48688         3.29991 
        1.07382          4.4199         3.25743 
        1.07993         4.36485         3.21581 
        1.08607         4.34148         3.17475 
        1.09222         4.28952         3.13437 
        1.09836         4.25346         3.09475 
        1.10449         4.20562         3.05587 
        1.11063         4.15782         3.01762 
        1.11677         4.11953         2.98005 
         1.1229         4.07678         2.94319 
        1.12903         4.03041         2.90693 
        1.13518         3.99668         2.87125 
        1.14131         3.94158          2.8362 
        1.14745         3.88836         2.80177 
        1.15359         3.87205          2.7679 
        1.15973         3.82084         2.73458 
        1.16584         3.79556         2.70197 
        1.17197         3.75678         2.66985 
        1.17811         3.72445         2.63816 
        1.18424         3.69766         2.60707 
        1.19038         3.65983         2.57641 
        1.19652         3.62361         2.54625 
        1.20267         3.58964         2.51658 
        1.20881         3.55153          2.4874 
        1.21495         3.52529         2.45872 
        1.22108         3.49083         2.43051 
         1.2272         3.47019         2.40281 
        1.23334         3.42427         2.37549 
        1.23949         3.39033         2.34852 
        1.24562         3.37272         2.32206 
        1.25174         3.33039         2.29604 
        1.25789          3.3067         2.27035 
        1.26402          3.2696          2.2451 
        1.27014         3.24007          2.2203 
        1.27628         3.22535         2.19581 
        1.28244         3.18256         2.17164 
        1.28858         3.16478         2.14786 
        1.29471         3.13124          2.1245 
        1.30084         3.10166         2.10152 
        1.30697         3.09013         2.07884 
        1.31312         3.03708         2.05646 
        1.31925         3.02632         2.03449 
        1.32537         2.99978         2.01287 
        1.33151         2.98088         1.99148 
        1.33765         2.94339         1.97043 
        1.34378         2.91969         1.94972 
        1.34992         2.90985         1.92929 
        1.35606          2.8686         1.90912 
         1.3622         2.85683         1.88927 
        1.36833         2.83099         1.86976 
        1.37445         2.80533         1.85054 
        1.38059         2.78863         1.83153 
        1.38675         2.77427         1.81274 
        1.39288         2.74049         1.79429 
        1.39901         2.71576         1.77611 
        1.40515         2.69756         1.75815 
         1.4113         2.67763         1.74044 
        1.41742         2.65791         1.72304 
        1.42355         2.64384         1.70586 
         1.4297         2.61217         1.68885 
        1.43585         2.60026         1.67209 
        1.44198         2.58493         1.65562 
        1.44809         2.55224         1.63941 
        1.45423         2.53502         1.62335 
        1.46036         2.51571         1.60754 
        1.46649         2.49506         1.59194 
        1.47263         2.47522         1.57653 
        1.47877         2.45263         1.56133 
        1.48491         2.43645         1.54631 
        1.49104         2.42396         1.53153 
        1.49718         2.40712         1.51692 
        1.50333          2.3867         1.50249 
        1.50947         2.37186         1.48827 
         1.5156         2.35348         1.47426 
        1.52172         2.33662         1.46044 
        1.52787           2.318         1.44676 
          1.534         2.30414         1.43328 
        1.54013         2.28451         1.41998 
        1.54627         2.26444         1.40683 
        1.55241         2.24852         1.39385 
        1.55855         2.23761         1.38104 
        1.56467         2.22246         1.36844 
         1.5708         2.19887         1.35596 
        1.57695         2.18994         1.34362 
        1.58308         2.17316         1.33146 
        1.58922         2.16074         1.31944 
        1.59535         2.14498         1.30758 
         1.6015         2.13068         1.29585 
        1.60764         2.11834         1.28427 
        1.61376         2.10336         1.27286 
        1.61989         2.08713         1.26159 
        1.62604         2.07167         1.25042 
        1.63218         2.06526          1.2394 
        1.63831         2.04293         1.22854 
        1.64444         2.02962         1.21781 
        1.65059         2.02069         1.20718 
        1.65673         2.00579         1.19669 
        1.66285         1.98981         1.18635 
        1.66898         1.98129         1.17613 
        1.67512         1.96255         1.16602 
        1.68127         1.95162         1.15601 
         1.6874         1.94384         1.14615 
        1.69353         1.92235         1.13641 
        1.69967         1.91198         1.12675 
        1.70581         1.90723         1.11722 
        1.71193         1.89049         1.10783 
        1.71806         1.88259         1.09853 
        1.72421         1.86864         1.08932 
        1.73035         1.85531         1.08023 
        1.73649         1.84457         1.07124 
        1.74262         1.83313         1.06237 
        1.74876         1.82389         1.05358 
        1.75489          1.8073         1.04492 
        1.76101         1.79714         1.03636 
        1.76715         1.78752         1.02788 
        1.77329         1.77727         1.01949 
        1.77943         1.76334         1.01119 
        1.78557          1.7534         1.00299 
        1.79171         1.74759        0.994883 
        1.79785         1.73278        0.986866 
        1.80399         1.72429        0.978939 
        1.81012         1.71707         0.97111 
        1.81625         1.70217        0.963371 
        1.82239         1.69226        0.955705 
        1.82853         1.67705        0.948127 
        1.83466         1.67285        0.940639 
        1.84078         1.66181         0.93324 
        1.84692         1.65475         0.92591 
        1.85306         1.64204        0.918649 
         1.8592         1.63443        0.911479 
        1.86533          1.6232         0.90439 
        1.87147         1.61652        0.897368 
        1.87761         1.60669        0.890418 
        1.88375         1.59235        0.883551 
        1.88988         1.58873        0.876764 
        1.89601         1.57713        0.870045 
        1.90215         1.56619        0.863392 
        1.90829         1.55702        0.856812 
        1.91442         1.54971          0.8503 
        1.92056         1.54139        0.843863 
         1.9267         1.53326        0.837486 
        1.93284         1.52764        0.831171 
        1.93897         1.51713        0.824934 
        1.94509         1.50723        0.818774 
        1.95123         1.49746        0.812663 
        1.95737         1.49032        0.806609 
        1.96349         1.48135        0.800633 
        1.96964         1.47547        0.794701 
        1.97578         1.46663        0.788827 
        1.98192         1.46035        0.783024 
        1.98805         1.44903        0.777279 
        1.99419         1.44447        0.771592 
        2.00033         1.44033         0.76596 
        2.00647         1.42682        0.760385 
         2.0126         1.42202        0.754876 
        2.01874         1.41263        0.749413 
        2.02488         1.40656           0.744 
        2.03101         1.39575        0.738651 
        2.03714         1.38684         0.73336 
        2.04328         1.38471        0.728115 
        2.04941         1.37406        0.722926 
        2.05554         1.36887        0.717791 
        2.06167         1.36005          0.7127 
        2.06781         1.35443        0.707658 
        2.07396         1.34587        0.702657 
        2.08009         1.34024        0.697714 
        2.08622         1.33078        0.692824 
        2.09237         1.32911        0.687972 
        2.09851         1.32129        0.683166 
        2.10464         1.31577        0.678413 
        2.11077         1.30677        0.673712 
        2.11691         1.29852        0.669046 
        2.12305          1.2947        0.664423 
        2.12918         1.28705        0.659856 
        2.13531         1.28156        0.655332 
        2.14145         1.27339        0.650839 
         2.1476          1.2667        0.646384 
        2.15372         1.26167        0.641993 
        2.15985         1.25441        0.637639 
        2.16599         1.24796        0.633313 
        2.17213         1.24187        0.629033 
        2.17827         1.23831        0.624792 
         2.1844         1.23221        0.620595 
        2.19054         1.22765        0.616436 
        2.19666          1.2195         0.61232 
         2.2028         1.21411        0.608239 
        2.20893         1.20636        0.604193 
        2.21508         1.20423         0.60018 
        2.22122          1.1937        0.596202 
        2.22736          1.1882        0.592269 
        2.23349         1.18804        0.588372 
        2.23962          1.1783        0.584508 
        2.24577         1.17251        0.580676 
         2.2519         1.16655        0.576884 
        2.25802         1.16378        0.573132 
        2.26417         1.15503        0.569403 
        2.27031         1.15194        0.565704 
        2.27644         1.14623        0.562048 
        2.28257         1.14163        0.558426 
        2.28872         1.13507        0.554828 
        2.29486         1.13117        0.551264 
        2.30099         1.12418        0.547738 
        2.30712         1.12005        0.544241 
        2.31326         1.11674         0.54077 
         2.3194         1.11122         0.53733 
        2.32553         1.10639        0.533927 
        2.33166         1.09968        0.530555 
         2.3378         1.09417        0.527207 
        2.34394         1.08837        0.523888 
        2.35007          1.0841        0.520601 
        2.35619         1.08167        0.517348 
        2.36233         1.07389        0.514114 
        2.36848         1.07082        0.510902 
        2.37462         1.06553        0.507724 
        2.38075         1.06217        0.504576 
        2.38689         1.05633        0.501452 
        2.39303           1.053        0.498356 
        2.39916         1.04567        0.495289 
        2.40529         1.04421        0.492248 
        2.41143         1.03858        0.489231 
        2.41757          1.0337        0.486238 
         2.4237         1.03049        0.483275 
        2.42983         1.02533        0.480338 
        2.43598          1.0213        0.477417 
        2.44211         1.01713        0.474526 
        2.44823         1.01188        0.471665 
        2.45437          1.0084         0.46882 
        2.46052          1.0059        0.465996 
        2.46665         1.00068        0.463201 
        2.47279        0.995939        0.460429 
        2.47892        0.990367        0.457679 
        2.48507        0.987386        0.454948 
         2.4912         0.98277        0.452245 
