# k  (h/Mpc)    P(k)  (Mpc/h)^3    P_linear(k)  (Mpc/h)^3
     0.00783031         812.645         822.531 
       0.013688         949.726         952.912 
       0.019231           909.3         909.712 
      0.0249154         789.653         792.807 
      0.0312784         646.648         646.057 
      0.0375637         527.084          525.11 
      0.0433917         445.965         445.633 
      0.0492413         394.955         393.941 
      0.0555754         357.786         358.861 
      0.0619321         334.282          332.84 
       0.067871         307.227         308.002 
      0.0738098         278.216         278.863 
      0.0800417         243.735          244.63 
      0.0862327         211.162         210.981 
      0.0921407         183.744         183.186 
      0.0982031         161.578         161.371 
       0.104506           147.3         146.073 
       0.110769         137.586         136.655 
       0.116806         130.741         130.566 
       0.122832         125.549         125.005 
       0.129052         117.967         118.033 
       0.135211         109.324          109.32 
       0.141259         100.119         99.5815 
       0.147318         90.7543         89.8215 
       0.153489         81.7583         81.0489 
       0.159709         74.9183         74.1164 
       0.165845         70.4666         69.2419 
       0.171974          66.559         65.9109 
       0.178125         64.1827         63.4287 
       0.184229         61.9284         61.1221 
        0.19034         58.8037         58.4706 
       0.196428         55.9879         55.3102 
       0.202534         52.8184         51.7517 
       0.208729         48.9447         48.0725 
       0.214876         45.4449         44.7049 
       0.220989         42.8927         41.8726 
       0.227147         40.3603         39.6117 
        0.23329         38.5953         37.8657 
       0.239377         37.2813         36.4617 
       0.245482         35.7206          35.177 
       0.251667         34.6741          33.838 
       0.257832          33.158         32.3866 
       0.263955         31.6596         30.8391 
       0.270079         30.0924         29.2603 
        0.27624         28.7627         27.7395 
       0.282372         27.4153         26.3706 
        0.28843         26.1111         25.1995 
       0.294538         25.0823         24.1913 
       0.300721         24.3435         23.3077 
        0.30691         23.3486         22.5013 
       0.313033         22.5893         21.7294 
       0.319153         21.6059         20.9494 
       0.325316         21.0842         20.1486 
        0.33145         20.2313         19.3477 
       0.337538         19.4746          18.574 
       0.343633         18.6721         17.8426 
       0.349808         18.0652         17.1632 
       0.355968         17.4494         16.5487 
       0.362074         16.8582         15.9959 
       0.368217         16.3455          15.481 
       0.374374         15.7899         14.9901 
       0.380519          15.365         14.5139 
       0.386598         14.9291         14.0489 
       0.392688         14.5175         13.5901 
        0.39888         14.0241         13.1352 
       0.405048          13.605         12.6996 
       0.411186          13.209         12.2891 
       0.417313         12.7688         11.9046 
       0.423458         12.4222         11.5429 
       0.429607         12.0482         11.2024 
       0.435692         11.6995         10.8819 
       0.441815         11.4043         10.5713 
       0.447964         11.1617         10.2688 
       0.454126         10.7747         9.97421 
       0.460267         10.5209         9.68863 
       0.466387         10.1878         9.41342 
        0.47254          9.9654         9.14768 
       0.478662         9.74417         8.89495 
       0.484765         9.44068          8.6543 
       0.490885         9.21131         8.42391 
       0.497035         9.06879         8.20236 
       0.503198         8.80651         7.98893 
       0.509342         8.59171         7.78327 
       0.515458         8.37902          7.5849 
       0.521598         8.19617           7.392 
       0.527764         7.97618         7.20448 
       0.533884         7.83774         7.02448 
           0.54         7.64123         6.85085 
       0.546137         7.48168         6.68293 
       0.552299         7.32557         6.52068 
       0.558452         7.11534         6.36463 
       0.564573         6.99392         6.21473 
       0.570708         6.84311         6.06937 
       0.576825         6.66891         5.92896 
       0.582926         6.54585         5.79326 
       0.589034          6.3654         5.66156 
       0.595184         6.25589         5.53302 
       0.601379         6.11347         5.40756 
       0.607522         6.01784         5.28703 
       0.613639         5.92243         5.17075 
       0.619772         5.75641         5.05784 
       0.625918          5.6842         4.94825 
       0.632068         5.58914         4.84198 
       0.638161         5.45108         4.73983 
         0.6443         5.33979         4.63991 
       0.650464         5.22241         4.54247 
       0.656582         5.16132         4.44849 
       0.662703          5.0605         4.35713 
       0.668861         4.97423         4.26783 
       0.675024         4.86731         4.18099 
       0.681124         4.77293         4.09751 
       0.687237         4.70179         4.01621 
       0.693381         4.62168         3.93677 
       0.699536         4.49903         3.85938 
       0.705665         4.43667         3.78443 
       0.711789         4.36375         3.71156 
       0.717957         4.28139          3.6401 
        0.72409         4.20652         3.57094 
       0.730186         4.13715           3.504 
       0.736317         4.09453         3.43844 
       0.742472         4.02385         3.37432 
       0.748622         3.94523         3.31193 
        0.75476         3.86779         3.25127 
       0.760888         3.80836         3.19224 
       0.767043         3.76283         3.13446 
       0.773185         3.68349         3.07826 
       0.779291          3.6414         3.02376 
       0.785407         3.57778         2.97052 
       0.791564         3.52681         2.91824 
       0.797719         3.47084         2.86726 
       0.803834         3.43062         2.81782 
       0.809972         3.37954         2.76939 
       0.816124         3.31427           2.722 
       0.822261         3.25314         2.67585 
       0.828378         3.21242         2.63093 
       0.834502         3.18261           2.587 
       0.840667         3.11232         2.54381 
       0.846816         3.06452         2.50173 
       0.852925         3.03821         2.46088 
       0.859047         2.99291         2.42086 
       0.865192         2.95175         2.38161 
       0.871341         2.91546         2.34321 
       0.877463         2.87454         2.30584 
       0.883569         2.82138         2.26938 
       0.889708         2.78061         2.23354 
       0.895864         2.74375         2.19838 
       0.902008         2.70316         2.16406 
       0.908149         2.67484         2.13049 
       0.914301         2.62393         2.09759 
       0.920448         2.59198         2.06543 
       0.926574         2.55428         2.03405 
       0.932687         2.52273          2.0034 
       0.938823         2.49659         1.97327 
       0.944975         2.46218          1.9437 
       0.951105         2.43303         1.91485 
       0.957225         2.41499         1.88664 
       0.963368         2.37809         1.85891 
       0.969511         2.34214         1.83174 
       0.975621         2.30724         1.80526 
       0.981748         2.28644         1.77924 
       0.987916         2.25485         1.75358 
        0.99406         2.21759         1.72852 
        1.00019         2.19778         1.70401 
        1.00632          2.1695         1.67999 
        1.01246         2.14448         1.65641 
        1.01859         2.11882         1.63333 
        1.02471         2.09081         1.61071 
        1.03085         2.06817         1.58845 
        1.03698         2.03954         1.56666 
        1.04314         2.02043         1.54519 
        1.04929         1.99417         1.52418 
        1.05541         1.97192         1.50364 
        1.06154         1.94849         1.48344 
        1.06769          1.9308         1.46358 
        1.07382         1.90272         1.44415 
        1.07993         1.87633         1.42512 
        1.08607         1.86644         1.40635 
        1.09222         1.83979         1.38791 
        1.09836         1.82472         1.36982 
        1.10449         1.80389         1.35208 
        1.11063          1.7776         1.33463 
        1.11677         1.75906          1.3175 
         1.1229          1.7408          1.3007 
        1.12903         1.71975         1.28418 
        1.13518         1.70496         1.26793 
        1.14131          1.6809         1.25198 
        1.14745         1.65429         1.23632 
        1.15359         1.64545         1.22092 
        1.15973         1.62065         1.20577 
        1.16584         1.61355         1.19096 
        1.17197         1.59447         1.17637 
        1.17811         1.58036         1.16198 
        1.18424         1.56529         1.14788 
        1.19038         1.54604         1.13398 
        1.19652         1.52878         1.12031 
        1.20267         1.51733         1.10686 
        1.20881         1.49755         1.09365 
        1.21495         1.48557         1.08067 
        1.22108         1.47083          1.0679 
         1.2272         1.45994         1.05537 
        1.23334         1.44075         1.04302 
        1.23949         1.42471         1.03084 
        1.24562         1.41469         1.01888 
        1.25174         1.39875         1.00714 
        1.25789         1.38612        0.995542 
        1.26402         1.36857        0.984151 
        1.27014         1.35621        0.972968 
        1.27628         1.34988        0.961926 
        1.28244         1.32986        0.951035 
        1.28858         1.31959        0.940329 
        1.29471         1.30614        0.929812 
        1.30084         1.29198        0.919467 
        1.30697         1.28336        0.909265 
        1.31312         1.26444        0.899203 
        1.31925         1.25772        0.889327 
        1.32537         1.24566        0.879609 
        1.33151         1.23624        0.870002 
        1.33765         1.22176        0.860546 
        1.34378         1.20964        0.851249 
        1.34992         1.20284        0.842083 
        1.35606         1.18643        0.833034 
         1.3622         1.18007        0.824133 
        1.36833         1.16791        0.815385 
        1.37445         1.15464        0.806769 
        1.38059         1.14701        0.798251 
        1.38675         1.14243        0.789836 
        1.39288         1.12738        0.781577 
        1.39901          1.1167         0.77344 
        1.40515           1.108        0.765402 
         1.4113         1.09819        0.757481 
        1.41742         1.08836        0.749703 
        1.42355           1.084        0.742021 
         1.4297         1.06928        0.734424 
        1.43585         1.06169        0.726936 
        1.44198         1.05654        0.719582 
        1.44809         1.04269        0.712345 
        1.45423         1.03467         0.70518 
        1.46036         1.02582        0.698128 
        1.46649         1.01745         0.69117 
        1.47263         1.00855        0.684303 
        1.47877        0.998729        0.677532 
        1.48491        0.990923        0.670842 
        1.49104        0.982951        0.664258 
        1.49718         0.97737        0.657757 
        1.50333        0.966686        0.651334 
        1.50947         0.96126        0.645009 
         1.5156        0.951996        0.638779 
        1.52172        0.944154        0.632632 
        1.52787        0.935442        0.626553 
          1.534        0.929723        0.620562 
        1.54013        0.920402        0.614656 
        1.54627        0.912825        0.608816 
        1.55241        0.905016        0.603052 
        1.55855        0.898964        0.597371 
        1.56467        0.893835        0.591778 
         1.5708        0.883235        0.586242 
        1.57695        0.879581        0.580768 
        1.58308        0.872638        0.575377 
        1.58922        0.864968        0.570051 
        1.59535         0.85863        0.564795 
         1.6015        0.851783        0.559598 
        1.60764        0.846542        0.554469 
        1.61376        0.839113        0.549419 
        1.61989          0.8331        0.544428 
        1.62604        0.825434        0.539488 
        1.63218        0.822334        0.534612 
        1.63831        0.813856        0.529809 
        1.64444        0.807583        0.525063 
        1.65059        0.802982        0.520364 
        1.65673         0.79493        0.515728 
        1.66285        0.789809        0.511161 
        1.66898        0.786767        0.506649 
        1.67512        0.777437        0.502182 
        1.68127         0.77171        0.497766 
         1.6874        0.769172        0.493413 
        1.69353        0.760986        0.489114 
        1.69967         0.75502        0.484857 
        1.70581        0.751882        0.480653 
        1.71193        0.745205        0.476514 
        1.71806        0.741497        0.472416 
        1.72421        0.735073        0.468358 
        1.73035        0.728875        0.464353 
        1.73649        0.725574        0.460395 
        1.74262        0.720033        0.456487 
        1.74876        0.714291        0.452622 
        1.75489        0.707821         0.44881 
        1.76101        0.704133        0.445043 
        1.76715        0.699481        0.441314 
        1.77329        0.695264        0.437624 
        1.77943         0.68885        0.433974 
        1.78557        0.684027        0.430372 
        1.79171        0.681143        0.426809 
        1.79785        0.675365        0.423287 
        1.80399        0.671198        0.419805 
        1.81012        0.667515        0.416367 
        1.81625        0.662144         0.41297 
        1.82239        0.658203        0.409605 
        1.82853        0.651191        0.406279 
        1.83466        0.648291        0.402994 
        1.84078        0.643112        0.399749 
        1.84692        0.640725        0.396534 
        1.85306        0.636334        0.393351 
         1.8592        0.632449        0.390208 
        1.86533        0.627817        0.387101 
        1.87147        0.623895        0.384024 
        1.87761        0.619517         0.38098 
        1.88375        0.614092        0.377973 
        1.88988         0.61196        0.375001 
        1.89601         0.60686        0.372059 
        1.90215        0.603244        0.369148 
        1.90829        0.598741        0.366268 
        1.91442        0.595244         0.36342 
        1.92056        0.592118        0.360604 
         1.9267        0.587308        0.357815 
        1.93284        0.585214        0.355054 
        1.93897         0.58034        0.352328 
        1.94509        0.577046        0.349636 
        1.95123        0.572833        0.346966 
        1.95737        0.569846        0.344322 
        1.96349        0.565151        0.341712 
        1.96964        0.562778        0.339122 
        1.97578        0.558776        0.336558 
        1.98192        0.556357        0.334025 
        1.98805        0.551596        0.331518 
        1.99419        0.549314        0.329037 
        2.00033        0.547095        0.326581 
        2.00647        0.542038         0.32415 
         2.0126         0.53906        0.321748 
        2.01874         0.53608        0.319367 
        2.02488        0.533561        0.317008 
        2.03101        0.528422        0.314677 
        2.03714        0.524812        0.312372 
        2.04328        0.523781        0.310087 
        2.04941         0.51995        0.307827 
        2.05554        0.516539        0.305592 
        2.06167        0.513393        0.303376 
        2.06781        0.509768        0.301181 
        2.07396        0.506331        0.299005 
        2.08009        0.504055        0.296855 
        2.08622        0.500895        0.294728 
        2.09237        0.499181        0.292617 
        2.09851        0.496163        0.290527 
        2.10464        0.493461        0.288461 
        2.11077        0.490265        0.286418 
        2.11691        0.486837         0.28439 
        2.12305        0.484288        0.282382 
        2.12918        0.481886        0.280397 
        2.13531        0.478452        0.278432 
        2.14145        0.476318        0.276481 
         2.1476        0.472841        0.274547 
        2.15372        0.471374        0.272641 
        2.15985        0.467483        0.270751 
        2.16599        0.464416        0.268874 
        2.17213        0.462487        0.267016 
        2.17827        0.460844        0.265177 
         2.1844        0.458401        0.263357 
        2.19054        0.455741        0.261553 
        2.19666        0.452398        0.259769 
         2.2028        0.450029           0.258 
        2.20893        0.447993        0.256246 
        2.21508        0.445794        0.254507 
        2.22122        0.441384        0.252783 
        2.22736        0.439747        0.251079 
        2.23349        0.438808        0.249392 
        2.23962         0.43584        0.247718 
        2.24577        0.432381        0.246059 
         2.2519        0.430618        0.244418 
        2.25802        0.428114        0.242794 
        2.26417        0.425559         0.24118 
        2.27031        0.423272        0.239579 
        2.27644        0.421474        0.237998 
        2.28257        0.419455        0.236431 
        2.28872        0.416892        0.234876 
        2.29486         0.41447        0.233334 
        2.30099        0.412095         0.23181 
        2.30712        0.410289        0.230299 
        2.31326        0.408126        0.228798 
         2.3194        0.407103        0.227312 
        2.32553        0.404679        0.225842 
        2.33166        0.402378        0.224385 
         2.3378        0.400177         0.22294 
        2.34394        0.396951        0.221506 
        2.35007        0.395588        0.220087 
        2.35619        0.393865        0.218683 
        2.36233        0.390737        0.217287 
        2.36848        0.389575        0.215901 
        2.37462        0.386895         0.21453 
        2.38075         0.38618        0.213172 
        2.38689        0.383631        0.211824 
        2.39303        0.382171        0.210489 
        2.39916        0.379066        0.209167 
        2.40529        0.378018        0.207856 
        2.41143        0.376212        0.206555 
        2.41757        0.374229        0.205265 
         2.4237        0.372459        0.203988 
        2.42983        0.370698        0.202722 
        2.43598        0.368845        0.201464 
        2.44211        0.367401        0.200219 
        2.44823        0.365385        0.198987 
        2.45437        0.363109        0.197761 
        2.46052        0.362172        0.196546 
        2.46665        0.359699        0.195342 
        2.47279        0.357893        0.194149 
        2.47892        0.355793        0.192966 
        2.48507        0.354452        0.191791 
         2.4912        0.352969        0.190628 
