# k  (h/Mpc)    P(k)  (Mpc/h)^3    P_linear(k)  (Mpc/h)^3
     0.00783031         15497.9         15706.3 
       0.013688         18336.8         18163.2 
       0.019231         17388.2         17324.8 
      0.0249154         14824.8         15090.5 
      0.0312784         12210.6         12292.7 
      0.0375637         10040.9            9989 
      0.0433917         8389.45         8475.81 
      0.0492413         7487.42         7491.77 
      0.0555754         6665.97         6823.98 
      0.0619321         6378.17         6328.73 
       0.067871         5742.13         5856.13 
      0.0738098         5210.67         5301.87 
      0.0800417          4543.8         4650.84 
      0.0862327         3989.34         4010.99 
      0.0921407         3545.29         3482.48 
      0.0982031         3112.63         3067.71 
       0.104506          2907.7         2776.83 
       0.110769         2705.73         2597.75 
       0.116806         2566.28         2481.98 
       0.122832         2455.17         2376.24 
       0.129052          2271.2         2243.69 
       0.135211         2123.37         2078.03 
       0.141259         1991.78         1892.91 
       0.147318         1837.99         1707.37 
       0.153489          1661.4         1540.61 
       0.159709         1557.02         1408.82 
       0.165845         1488.59         1316.16 
       0.171974         1411.93         1252.84 
       0.178125         1350.54         1205.65 
       0.184229         1295.35          1161.8 
        0.19034         1216.85          1111.4 
       0.196428          1184.1         1051.32 
       0.202534         1133.01          983.68 
       0.208729         1067.61         913.744 
       0.214876          1011.5         849.732 
       0.220989         970.901         795.895 
       0.227147         927.672         752.918 
        0.23329         889.472         719.731 
       0.239377         871.568         693.043 
       0.245482         813.981         668.623 
       0.251667          807.98         643.171 
       0.257832         775.121         615.583 
       0.263955         747.356         586.168 
       0.270079         716.954         556.158 
        0.27624         706.581         527.251 
       0.282372         677.589         501.232 
        0.28843         663.797         478.971 
       0.294538         629.449         459.808 
       0.300721         625.438         443.013 
        0.30691         598.269         427.685 
       0.313033         586.125         413.014 
       0.319153          569.59         398.187 
       0.325316         552.668         382.966 
        0.33145         536.603         367.744 
       0.337538         527.503         353.036 
       0.343633         511.766         339.134 
       0.349808         493.115         326.222 
       0.355968         488.921         314.542 
       0.362074         481.566         304.035 
       0.368217         467.394         294.248 
       0.374374         447.247         284.917 
       0.380519         445.504         275.866 
       0.386598         433.383         267.026 
       0.392688         430.471         258.306 
        0.39888         417.936         249.661 
       0.405048          409.49          241.38 
       0.411186         402.749         233.579 
       0.417313         394.591         226.271 
       0.423458         386.465         219.395 
       0.429607          380.48         212.923 
       0.435692          370.76         206.832 
       0.441815         367.239         200.928 
       0.447964         359.493         195.179 
       0.454126         351.417         189.579 
       0.460267         344.847         184.151 
       0.466387         340.516          178.92 
        0.47254          334.42         173.869 
       0.478662         333.143         169.065 
       0.484765         321.191         164.491 
       0.490885         318.212         160.112 
       0.497035         312.349         155.901 
       0.503198         307.886         151.844 
       0.509342         305.659         147.935 
       0.515458          301.75         144.165 
       0.521598         294.271         140.499 
       0.527764         290.291         136.934 
       0.533884         287.659         133.513 
           0.54         283.448         130.213 
       0.546137         282.107         127.021 
       0.552299         276.269         123.937 
       0.558452         274.771         120.971 
       0.564573         270.834         118.122 
       0.570708         265.349         115.359 
       0.576825         260.821         112.691 
       0.582926         258.535         110.111 
       0.589034         256.146         107.608 
       0.595184         253.883         105.165 
       0.601379         249.871          102.78 
       0.607522         246.354         100.489 
       0.613639         244.829         98.2793 
       0.619772         239.817         96.1333 
       0.625918         238.674         94.0504 
       0.632068         234.813         92.0304 
       0.638161         233.737         90.0889 
         0.6443         230.025         88.1897 
       0.650464         227.797         86.3377 
       0.656582         225.344         84.5514 
       0.662703         224.892         82.8149 
       0.668861         220.927         81.1175 
       0.675024         218.176         79.4672 
       0.681124         216.852         77.8805 
       0.687237         214.361          76.335 
       0.693381         211.038         74.8252 
       0.699536         209.344         73.3543 
       0.705665         207.488         71.9298 
       0.711789          205.76         70.5446 
       0.717957         204.908         69.1865 
        0.72409         202.474          67.872 
       0.730186         200.083         66.5997 
       0.736317         197.823         65.3535 
       0.742472         196.613         64.1349 
       0.748622         194.981         62.9489 
        0.75476         193.142          61.796 
       0.760888         190.991          60.674 
       0.767043          190.71         59.5759 
       0.773185         188.805         58.5076 
       0.779291         185.254         57.4718 
       0.785407         184.857         56.4599 
       0.791564         183.161         55.4663 
       0.797719         180.473         54.4972 
       0.803834          179.53         53.5576 
       0.809972         178.749          52.637 
       0.816124         177.971         51.7362 
       0.822261         176.305         50.8592 
       0.828378         174.443         50.0053 
       0.834502         173.764         49.1704 
       0.840667         171.578         48.3494 
       0.846816         170.137         47.5496 
       0.852925         169.482         46.7732 
       0.859047         167.923         46.0126 
       0.865192          166.02         45.2665 
       0.871341         164.755         44.5367 
       0.877463         163.618         43.8264 
       0.883569         163.267         43.1335 
       0.889708         161.374         42.4522 
       0.895864         159.791         41.7839 
       0.902008         158.859         41.1316 
       0.908149         158.411         40.4937 
       0.914301         156.307         39.8683 
       0.920448         155.376         39.2569 
       0.926574         154.312         38.6606 
       0.932687         154.308          38.078 
       0.938823          152.22         37.5054 
       0.944975         151.196         36.9434 
       0.951105         150.373          36.395 
       0.957225         149.214         35.8588 
       0.963368         147.205         35.3317 
       0.969511         146.915         34.8152 
       0.975621         145.678          34.312 
       0.981748         145.563         33.8175 
       0.987916         144.061         33.3297 
        0.99406         142.851         32.8534 
        1.00019         142.763         32.3875 
        1.00632         141.288         31.9311 
        1.01246         140.492         31.4829 
        1.01859         140.045         31.0441 
        1.02471         138.248         30.6143 
        1.03085         137.086         30.1912 
        1.03698         136.654         29.7771 
        1.04314         135.246          29.369 
        1.04929          134.77         28.9696 
        1.05541         134.226         28.5793 
        1.06154         133.219         28.1952 
        1.06769         133.007         27.8177 
        1.07382         131.713         27.4485 
        1.07993         130.808         27.0867 
        1.08607         130.107         26.7301 
        1.09222         129.645         26.3795 
        1.09836         128.559         26.0357 
        1.10449         127.278         25.6985 
        1.11063         126.504         25.3668 
        1.11677         126.037         25.0412 
         1.1229         125.133         24.7219 
        1.12903         124.654          24.408 
        1.13518         124.167         24.0992 
        1.14131         122.923          23.796 
        1.14745         122.634         23.4982 
        1.15359         121.721         23.2055 
        1.15973          121.13         22.9177 
        1.16584         119.984         22.6361 
        1.17197          119.48         22.3589 
        1.17811         118.859         22.0854 
        1.18424         118.395         21.8174 
        1.19038         118.088         21.5531 
        1.19652         117.119         21.2933 
        1.20267         116.365         21.0378 
        1.20881         115.669         20.7866 
        1.21495         114.867         20.5399 
        1.22108         114.376         20.2972 
         1.2272         113.395         20.0591 
        1.23334         113.036         19.8243 
        1.23949         112.405         19.5927 
        1.24562         111.693         19.3655 
        1.25174         111.121         19.1423 
        1.25789         110.535         18.9219 
        1.26402         109.402         18.7054 
        1.27014         108.998         18.4929 
        1.27628         108.693          18.283 
        1.28244         108.302          18.076 
        1.28858         107.753         17.8725 
        1.29471         106.711         17.6726 
        1.30084         106.628          17.476 
        1.30697         105.562         17.2821 
        1.31312         105.165         17.0908 
        1.31925         104.432         16.9031 
        1.32537         104.052         16.7184 
        1.33151         103.207         16.5358 
        1.33765         102.787         16.3561 
        1.34378         102.364         16.1794 
        1.34992         102.011         16.0052 
        1.35606         101.485         15.8332 
         1.3622         100.595          15.664 
        1.36833         100.145         15.4977 
        1.37445         99.6878          15.334 
        1.38059         98.9632         15.1721 
        1.38675         98.4032         15.0121 
        1.39288         98.2793         14.8551 
        1.39901         97.7404         14.7005 
        1.40515          96.999         14.5477 
         1.4113         96.5762         14.3972 
        1.41742         96.0774         14.2493 
        1.42355         95.5206         14.1033 
         1.4297         95.2316         13.9589 
        1.43585         94.4926         13.8166 
        1.44198         94.0435         13.6768 
        1.44809         93.6516         13.5393 
        1.45423         93.3181         13.4031 
        1.46036         92.8207         13.2691 
        1.46649         92.1373         13.1368 
        1.47263         91.5722         13.0063 
        1.47877         91.3664         12.8776 
        1.48491         90.6038         12.7504 
        1.49104         90.4906         12.6253 
        1.49718         89.9437         12.5017 
        1.50333         89.5017         12.3796 
        1.50947         89.0091         12.2594 
         1.5156           88.59          12.141 
        1.52172         88.1177         12.0242 
        1.52787         87.6804         11.9087 
          1.534         87.1268         11.7948 
        1.54013         86.7279         11.6825 
        1.54627         86.4516         11.5715 
        1.55241         85.8647          11.462 
        1.55855         85.4557          11.354 
        1.56467          85.261         11.2477 
         1.5708         84.5934         11.1425 
        1.57695         84.5398         11.0384 
        1.58308         83.8694          10.936 
        1.58922         83.6297         10.8347 
        1.59535         83.2317         10.7348 
         1.6015         82.6736         10.6361 
        1.60764         82.3304         10.5386 
        1.61376          82.067         10.4426 
        1.61989         81.5752         10.3477 
        1.62604         81.2351         10.2538 
        1.63218         80.9918         10.1612 
        1.63831         80.1044         10.0699 
        1.64444         79.9033         9.97965 
        1.65059         79.6051         9.89034 
        1.65673         79.0067         9.80223 
        1.66285         78.7587         9.71543 
        1.66898         78.5024         9.62967 
        1.67512         77.8784         9.54478 
        1.68127         77.7176         9.46083 
         1.6874          77.146         9.37809 
        1.69353         76.8091         9.29639 
        1.69967         76.5088         9.21548 
        1.70581         76.2261         9.13557 
        1.71193         75.8564         9.05691 
        1.71806          75.478         8.97902 
        1.72421         75.0488         8.90189 
        1.73035         74.7388         8.82576 
        1.73649         74.4476         8.75054 
        1.74262         73.9504         8.67626 
        1.74876         73.7276          8.6028 
        1.75489         73.2132         8.53034 
        1.76101         72.9812         8.45874 
        1.76715         72.4602         8.38787 
        1.77329         72.2679         8.31773 
        1.77943         71.8245         8.24836 
        1.78557         71.7021         8.17989 
        1.79171         71.0582         8.11219 
        1.79785         70.7305         8.04524 
        1.80399         70.5597         7.97906 
        1.81012          70.324         7.91372 
        1.81625         69.9024         7.84914 
        1.82239         69.6045         7.78519 
        1.82853         69.3188         7.72198 
        1.83466         69.0112         7.65954 
        1.84078         68.5626         7.59785 
        1.84692         68.3042         7.53675 
        1.85306          67.955         7.47625 
         1.8592         67.7188         7.41651 
        1.86533         67.3178         7.35746 
        1.87147         66.8603         7.29898 
        1.87761         66.7473         7.24112 
        1.88375         66.4351         7.18396 
        1.88988         66.0247         7.12748 
        1.89601         65.7703         7.07157 
        1.90215         65.3449         7.01623 
        1.90829         65.0719          6.9615 
        1.91442         64.8581         6.90736 
        1.92056         64.4816         6.85384 
         1.9267         64.2499         6.80083 
        1.93284         63.8575         6.74836 
        1.93897         63.6208         6.69654 
        1.94509         63.4236         6.64538 
        1.95123         63.0311         6.59463 
        1.95737          62.711         6.54437 
        1.96349         62.3646         6.49477 
        1.96964         62.1382         6.44554 
        1.97578         61.8192          6.3968 
        1.98192         61.7794         6.34866 
        1.98805          61.252         6.30102 
        1.99419         61.0073         6.25386 
        2.00033          60.811         6.20717 
        2.00647         60.4858         6.16097 
         2.0126         60.1161         6.11531 
        2.01874         59.7819         6.07006 
        2.02488         59.6462         6.02522 
        2.03101         59.3503         5.98092 
        2.03714         59.0042         5.93711 
        2.04328         58.7796         5.89368 
        2.04941         58.5408         5.85073 
        2.05554         58.3586         5.80825 
        2.06167         58.0748         5.76612 
        2.06781          57.664         5.72441 
        2.07396         57.4326         5.68305 
        2.08009         57.2773         5.64218 
        2.08622         56.9154         5.60175 
        2.09237         56.6972         5.56164 
        2.09851          56.552         5.52192 
        2.10464         56.1608         5.48265 
        2.11077         55.9178         5.44381 
        2.11691          55.621         5.40527 
        2.12305         55.4352         5.36709 
        2.12918          55.228         5.32938 
        2.13531         54.8166         5.29203 
        2.14145         54.6263         5.25495 
         2.1476         54.3587         5.21818 
        2.15372         54.1617         5.18196 
        2.15985         53.9468         5.14604 
        2.16599         53.6633         5.11036 
        2.17213         53.4881         5.07505 
        2.17827          53.189         5.04009 
         2.1844          52.901          5.0055 
        2.19054         52.6783         4.97121 
        2.19666         52.4397          4.9373 
         2.2028         52.3613         4.90367 
        2.20893         52.0346         4.87034 
        2.21508         51.8247         4.83729 
        2.22122         51.6108         4.80453 
        2.22736         51.3355         4.77214 
        2.23349         51.1032         4.74006 
        2.23962         50.8048         4.70826 
        2.24577         50.5494         4.67673 
         2.2519         50.3619         4.64553 
        2.25802         50.2354         4.61466 
        2.26417         49.8881         4.58399 
        2.27031         49.7071         4.55357 
        2.27644         49.5294         4.52351 
        2.28257         49.2618         4.49373 
        2.28872         48.9694         4.46416 
        2.29486          48.806         4.43487 
        2.30099         48.6294          4.4059 
        2.30712         48.4291         4.37717 
        2.31326         48.1324         4.34865 
         2.3194         47.8905         4.32041 
        2.32553         47.6911         4.29246 
        2.33166         47.4065         4.26478 
         2.3378         47.2564          4.2373 
        2.34394           47.06         4.21005 
        2.35007         46.8686         4.18309 
        2.35619         46.6195         4.15639 
        2.36233         46.4139         4.12987 
        2.36848         46.2804         4.10352 
        2.37462         45.9996         4.07746 
        2.38075         45.9011         4.05165 
        2.38689         45.6742         4.02604 
        2.39303           45.41         4.00066 
        2.39916         45.2029         3.97552 
        2.40529           45.08          3.9506 
        2.41143         44.8789         3.92588 
        2.41757         44.6413         3.90136 
         2.4237         44.4496          3.8771 
        2.42983         44.2436         3.85304 
        2.43598         44.0714         3.82912 
        2.44211         43.8765         3.80545 
        2.44823         43.6888         3.78203 
        2.45437         43.4475         3.75875 
        2.46052         43.2687         3.73564 
        2.46665         43.1181         3.71277 
        2.47279         42.8434         3.69009 
        2.47892         42.7309          3.6676 
        2.48507         42.5127         3.64527 
         2.4912         42.3985         3.62316 
