# k  (h/Mpc)    P(k)  (Mpc/h)^3    P_linear(k)  (Mpc/h)^3
     0.00783031         3251.68         3291.14 
       0.013688         4184.41         4179.26 
       0.019231         4354.98         4354.29 
      0.0249154         4103.36         4145.41 
      0.0312784         3685.06         3699.95 
      0.0375637         3231.88         3227.52 
      0.0433917         2833.01         2851.89 
      0.0492413          2559.1         2562.97 
      0.0555754          2311.7         2339.02 
      0.0619321         2183.47         2174.12 
       0.067871         2020.62         2040.69 
      0.0738098         1882.21         1903.21 
      0.0800417         1714.64         1743.74 
      0.0862327         1557.73         1573.96 
      0.0921407         1408.68         1414.05 
      0.0982031         1256.87          1266.3 
       0.104506         1150.93         1140.73 
       0.110769         1056.25         1047.16 
       0.116806          983.71          982.35 
       0.122832         941.105         934.324 
       0.129052         888.352         892.251 
       0.135211         845.781         849.528 
       0.141259         805.427         801.865 
       0.147318         756.554         748.147 
       0.153489         695.301         690.544 
       0.159709         645.403          634.58 
       0.165845         606.411         585.901 
       0.171974         562.386         546.282 
       0.178125         533.491          515.74 
       0.184229         512.143         492.796 
        0.19034         483.428         474.277 
       0.196428         473.307         457.182 
       0.202534         459.383         438.995 
       0.208729         435.937         418.293 
       0.214876         410.654          395.73 
       0.220989         394.758         372.533 
       0.227147         368.735         350.063 
        0.23329         350.737         329.978 
       0.239377         338.308          313.16 
       0.245482         317.954         299.397 
       0.251667         312.323          288.02 
       0.257832         302.182          278.26 
       0.263955         292.032         269.086 
       0.270079          282.24         259.642 
        0.27624          276.27         249.493 
       0.282372         264.882         238.804 
        0.28843         253.983         228.073 
       0.294538         242.973         217.595 
       0.300721         237.919         207.835 
        0.30691         226.721          199.19 
       0.313033         220.309         191.795 
       0.319153         210.844         185.359 
       0.325316         206.907         179.532 
        0.33145         200.007         174.028 
       0.337538         196.452         168.596 
       0.343633         189.936         163.029 
       0.349808         184.192         157.277 
       0.355968          179.79         151.518 
       0.362074         174.229         145.972 
       0.368217         169.315         140.711 
       0.374374          164.21         135.857 
       0.380519          160.36          131.47 
       0.386598         156.164         127.516 
       0.392688         153.492         123.855 
        0.39888          149.44         120.319 
       0.405048         146.171         116.878 
       0.411186         142.933         113.484 
       0.417313          139.04         110.103 
       0.423458         135.929         106.747 
       0.429607         132.421         103.479 
       0.435692         128.182         100.379 
       0.441815         126.977         97.4293 
       0.447964         124.861         94.6619 
       0.454126         119.528         92.0655 
       0.460267         117.965         89.6239 
       0.466387         115.605         87.3035 
        0.47254         113.711         85.0475 
       0.478662         112.061         82.8485 
       0.484765         109.043         80.6945 
       0.490885         106.974         78.5799 
       0.497035         105.569         76.5081 
       0.503198         102.744         74.4995 
       0.509342         100.464         72.5785 
       0.515458         98.9381         70.7575 
       0.521598         97.6078         69.0152 
       0.527764          95.937         67.3413 
       0.533884         94.2681         65.7449 
           0.54         92.5624         64.2046 
       0.546137          91.532         62.7035 
       0.552299         90.1783         61.2323 
       0.558452         87.7901          59.797 
       0.564573         86.2495         58.4065 
       0.570708         85.3033         57.0549 
       0.576825         83.6974         55.7531 
       0.582926         82.1628            54.5 
       0.589034         80.3747         53.2891 
       0.595184         79.4893         52.1128 
       0.601379         78.5191         50.9697 
       0.607522         76.6064         49.8729 
       0.613639         76.4314          48.813 
       0.619772         74.5451         47.7786 
       0.625918         74.0691         46.7674 
       0.632068          73.031         45.7816 
       0.638161         71.9305         44.8314 
         0.6443         70.8207         43.9017 
       0.650464         69.7837          42.997 
       0.656582         69.1592         42.1266 
       0.662703         67.7728         41.2817 
       0.668861          66.999         40.4563 
       0.675024         66.0745         39.6532 
       0.681124          65.039         38.8799 
       0.687237         63.9663         38.1256 
       0.693381         63.4628         37.3875 
       0.699536          62.285         36.6676 
       0.705665         62.5279         35.9696 
       0.711789         60.8924         35.2903 
       0.717957         60.3782         34.6239 
        0.72409         59.5296         33.9784 
       0.730186         58.6184         33.3534 
       0.736317         58.3472         32.7409 
       0.742472         57.3939         32.1418 
       0.748622          56.954         31.5585 
        0.75476         56.2097         30.9912 
       0.760888         55.3987          30.439 
       0.767043         54.8447         29.8981 
       0.773185         54.0934         29.3717 
       0.779291          53.841          28.861 
       0.785407         53.2974         28.3617 
       0.791564         52.4139         27.8711 
       0.797719         51.5712         27.3924 
       0.803834         51.4719          26.928 
       0.809972         50.7231         26.4727 
       0.816124         49.9019          26.027 
       0.822261         49.6568         25.5929 
       0.828378         49.2373           25.17 
       0.834502         48.6537         24.7563 
       0.840667         48.2282         24.3494 
       0.846816         47.5456         23.9528 
       0.852925         47.1476         23.5676 
       0.859047         46.5389         23.1902 
       0.865192         46.2573         22.8198 
       0.871341         46.0137         22.4573 
       0.877463         45.0947         22.1044 
       0.883569         44.7773         21.7601 
       0.889708         44.4647         21.4213 
       0.895864         44.0564          21.089 
       0.902008         43.6955         20.7644 
       0.908149         43.2948         20.4469 
       0.914301         43.0853         20.1356 
       0.920448         42.3452          19.831 
       0.926574         42.1314         19.5339 
       0.932687         41.7045         19.2435 
       0.938823         41.1458         18.9581 
       0.944975         40.9802         18.6777 
       0.951105         40.6106         18.4041 
       0.957225         40.1245         18.1365 
       0.963368         39.9685         17.8733 
       0.969511         39.6522         17.6153 
       0.975621         39.3331         17.3638 
       0.981748         38.8219         17.1167 
       0.987916         38.6402         16.8728 
        0.99406         38.3187         16.6346 
        1.00019         37.8361         16.4014 
        1.00632         37.6852          16.173 
        1.01246         37.3874         15.9486 
        1.01859          36.921         15.7289 
        1.02471          36.908         15.5135 
        1.03085         36.5384         15.3015 
        1.03698         36.0322         15.0939 
        1.04314         35.7624         14.8893 
        1.04929         35.5522          14.689 
        1.05541         35.1722         14.4932 
        1.06154         35.0532         14.3004 
        1.06769         34.7758          14.111 
        1.07382         34.4919         13.9255 
        1.07993         34.3712         13.7439 
        1.08607         33.9202         13.5647 
        1.09222         33.8001         13.3886 
        1.09836         33.4212         13.2158 
        1.10449         33.2776         13.0463 
        1.11063         32.8449         12.8796 
        1.11677         32.7418         12.7158 
         1.1229         32.6287         12.5553 
        1.12903         32.1854         12.3973 
        1.13518         31.9834          12.242 
        1.14131          31.925         12.0894 
        1.14745           31.63         11.9395 
        1.15359         31.4908         11.7921 
        1.15973         31.1407         11.6472 
        1.16584         30.8464         11.5053 
        1.17197         30.8951         11.3656 
        1.17811         30.4748         11.2279 
        1.18424         30.2262         11.0928 
        1.19038          30.185         10.9595 
        1.19652         29.9748         10.8286 
        1.20267         29.7577         10.6997 
        1.20881         29.5678          10.573 
        1.21495         29.3517         10.4485 
        1.22108         29.1492         10.3261 
         1.2272          28.846         10.2059 
        1.23334         28.7442         10.0874 
        1.23949         28.5334         9.97041 
        1.24562         28.4478         9.85566 
        1.25174         28.2833         9.74289 
        1.25789           28.09         9.63154 
        1.26402         27.9548         9.52214 
        1.27014         27.6687          9.4147 
        1.27628         27.4717         9.30861 
        1.28244         27.3867         9.20395 
        1.28858         27.2683         9.10104 
        1.29471         27.0451         8.99995 
        1.30084         26.8703         8.90048 
        1.30697         26.6906         8.80237 
        1.31312         26.4653          8.7056 
        1.31925          26.349         8.61059 
        1.32537         26.2705          8.5171 
        1.33151         26.0359         8.42466 
        1.33765         25.9629         8.33366 
        1.34378          25.845         8.24418 
        1.34992         25.4939         8.15595 
        1.35606         25.4551         8.06883 
         1.3622         25.3113         7.98314 
        1.36833         25.1458          7.8989 
        1.37445         25.1013         7.81592 
        1.38059         24.9408         7.73389 
        1.38675         24.6829         7.65283 
        1.39288         24.6297         7.57327 
        1.39901         24.4274         7.49487 
        1.40515         24.3361         7.41741 
         1.4113         24.1885         7.34107 
        1.41742         23.9807         7.26611 
        1.42355         23.9384         7.19205 
         1.4297         23.7906          7.1188 
        1.43585         23.7373          7.0466 
        1.44198         23.4806         6.97568 
        1.44809         23.4212         6.90587 
        1.45423         23.3069         6.83676 
        1.46036         23.2224         6.76873 
        1.46649         23.0693         6.70159 
        1.47263         22.9059         6.63532 
        1.47877         22.8075         6.56997 
        1.48491         22.6839          6.5054 
        1.49104         22.6427         6.44183 
        1.49718         22.4334         6.37907 
        1.50333         22.3571         6.31705 
        1.50947         22.2757         6.25597 
         1.5156          22.085          6.1958 
        1.52172         21.9354         6.13641 
        1.52787         21.9131         6.07769 
          1.534         21.7629         6.01981 
        1.54013         21.5961         5.96273 
        1.54627         21.5394          5.9063 
        1.55241         21.4012         5.85059 
        1.55855         21.3137         5.79568 
        1.56467         21.2313         5.74162 
         1.5708         21.1474          5.6881 
        1.57695         20.9457         5.63518 
        1.58308         20.9528         5.58306 
        1.58922         20.8153         5.53156 
        1.59535         20.6933         5.48073 
         1.6015         20.5826         5.43048 
        1.60764         20.5272         5.38087 
        1.61376          20.435         5.33202 
        1.61989         20.2387         5.28374 
        1.62604          20.241         5.23595 
        1.63218         20.0928         5.18878 
        1.63831         20.0428         5.14231 
        1.64444         19.8814         5.09638 
        1.65059         19.8087         5.05091 
        1.65673         19.7476         5.00604 
        1.66285         19.6093         4.96184 
        1.66898         19.5627         4.91816 
        1.67512          19.476         4.87492 
        1.68127         19.3355         4.83217 
         1.6874         19.2532         4.79002 
        1.69353         19.2206          4.7484 
        1.69967         19.0645         4.70718 
        1.70581         18.9697         4.66646 
        1.71193         18.8766         4.62638 
        1.71806         18.8335         4.58669 
        1.72421         18.7262         4.54738 
        1.73035         18.6771         4.50858 
        1.73649         18.5537         4.47024 
        1.74262         18.5251         4.43238 
        1.74876         18.4096         4.39493 
        1.75489         18.3358         4.35799 
        1.76101         18.2346         4.32148 
        1.76715         18.2221         4.28534 
        1.77329         18.1023         4.24957 
        1.77943         17.9972          4.2142 
        1.78557         17.9272         4.17927 
        1.79171         17.8872         4.14474 
        1.79785         17.7605         4.11059 
        1.80399         17.6984         4.07684 
        1.81012         17.6356          4.0435 
        1.81625         17.5354         4.01056 
        1.82239         17.4925         3.97793 
        1.82853         17.3515         3.94568 
        1.83466         17.3027         3.91382 
        1.84078         17.1784         3.88235 
        1.84692         17.1672         3.85117 
        1.85306         17.0755          3.8203 
         1.8592         17.0182         3.78981 
        1.86533         16.9489         3.75967 
        1.87147          16.868         3.72983 
        1.87761         16.8191         3.70029 
        1.88375          16.691         3.67111 
        1.88988         16.6726         3.64228 
        1.89601         16.5956         3.61374 
        1.90215         16.5046         3.58548 
        1.90829         16.4633         3.55754 
        1.91442         16.3805         3.52989 
        1.92056         16.3284         3.50257 
         1.9267         16.2604          3.4755 
        1.93284         16.1689          3.4487 
        1.93897         16.0885         3.42224 
        1.94509         16.0411         3.39611 
        1.95123         15.9745         3.37019 
        1.95737         15.9021         3.34452 
        1.96349         15.8401         3.31919 
        1.96964         15.7779         3.29404 
        1.97578         15.7195         3.26914 
        1.98192         15.6226         3.24455 
        1.98805         15.5899         3.22021 
        1.99419         15.5107         3.19612 
        2.00033         15.4602         3.17226 
        2.00647         15.4219         3.14866 
         2.0126         15.2874         3.12533 
        2.01874         15.2489          3.1022 
        2.02488         15.1741         3.07929 
        2.03101         15.1716         3.05665 
        2.03714         15.0949         3.03426 
        2.04328         15.0124         3.01207 
        2.04941          14.947         2.99012 
        2.05554         14.9364          2.9684 
        2.06167         14.8518         2.94687 
        2.06781         14.7991         2.92554 
        2.07396         14.7445          2.9044 
        2.08009         14.6801         2.88351 
        2.08622         14.6017         2.86284 
        2.09237         14.5675         2.84234 
        2.09851         14.5071         2.82203 
        2.10464         14.4388         2.80196 
        2.11077         14.3884          2.7821 
        2.11691         14.3252         2.76239 
        2.12305         14.2697         2.74288 
        2.12918         14.2225         2.72359 
        2.13531         14.1736          2.7045 
        2.14145         14.1081         2.68554 
         2.1476         14.0634         2.66674 
        2.15372          14.017         2.64821 
        2.15985         13.9466         2.62984 
        2.16599         13.9043         2.61159 
        2.17213         13.8743         2.59354 
        2.17827         13.8139         2.57566 
         2.1844         13.7588         2.55796 
        2.19054         13.6802         2.54043 
        2.19666          13.651         2.52308 
         2.2028         13.5925         2.50588 
        2.20893         13.5537         2.48883 
        2.21508         13.4928         2.47192 
        2.22122         13.4205         2.45517 
        2.22736           13.38          2.4386 
        2.23349         13.3188         2.42219 
        2.23962         13.2969         2.40592 
        2.24577         13.2249         2.38979 
         2.2519         13.1955         2.37382 
        2.25802         13.1419         2.35803 
        2.26417         13.0906         2.34234 
        2.27031         13.0498         2.32677 
        2.27644         12.9966          2.3114 
        2.28257         12.9614         2.29616 
        2.28872         12.8895         2.28103 
        2.29486         12.8696         2.26604 
        2.30099         12.8347         2.25121 
        2.30712         12.7806         2.23652 
        2.31326         12.7316         2.22192 
         2.3194          12.648         2.20747 
        2.32553         12.6407         2.19317 
        2.33166          12.554           2.179 
         2.3378         12.5389         2.16494 
        2.34394         12.4825         2.15099 
        2.35007         12.4201         2.13719 
        2.35619         12.3885         2.12353 
        2.36233         12.3366         2.10995 
        2.36848         12.3223         2.09646 
        2.37462         12.2711         2.08312 
        2.38075         12.1988         2.06991 
        2.38689         12.1726          2.0568 
        2.39303         12.1345         2.04381 
        2.39916         12.0909         2.03095 
        2.40529          12.059         2.01819 
        2.41143         11.9973         2.00554 
        2.41757         11.9792         1.99298 
         2.4237          11.909         1.98056 
        2.42983         11.8854         1.96825 
        2.43598         11.8452         1.95601 
        2.44211         11.7807         1.94389 
        2.44823         11.7518          1.9319 
        2.45437         11.7227         1.91998 
        2.46052         11.6771         1.90815 
        2.46665         11.6248         1.89644 
        2.47279         11.5901         1.88483 
        2.47892         11.5426         1.87331 
        2.48507         11.5092         1.86188 
         2.4912         11.4796         1.85057 
