# k  (h/Mpc)    P(k)  (Mpc/h)^3    P_linear(k)  (Mpc/h)^3
     0.00783031         1195.13         1207.96 
       0.013688         1532.34         1534.47 
       0.019231         1598.43            1599 
      0.0249154         1512.52         1522.45 
      0.0312784         1356.42         1358.94 
      0.0375637          1187.7         1185.48 
      0.0433917         1044.88         1047.54 
      0.0492413         941.932         941.433 
      0.0555754         854.675         859.185 
      0.0619321         802.048         798.623 
       0.067871         746.466         749.617 
      0.0738098         695.492         699.119 
      0.0800417         635.163         640.544 
      0.0862327         575.613         578.182 
      0.0921407         518.816         519.441 
      0.0982031         463.447          465.17 
       0.104506         421.459         419.043 
       0.110769         386.707          384.67 
       0.116806         360.621         360.864 
       0.122832         344.546         343.223 
       0.129052         326.819         327.768 
       0.135211         310.907         312.074 
       0.141259         294.999         294.565 
       0.147318         276.519         274.832 
       0.153489         254.489         253.672 
       0.159709         234.759         233.114 
       0.165845           219.1         215.232 
       0.171974          202.91         200.678 
       0.178125         192.156         189.458 
       0.184229         184.205          181.03 
        0.19034         175.197         174.227 
       0.196428          170.32         167.947 
       0.202534         164.915         161.266 
       0.208729         156.455         153.661 
       0.214876         147.334         145.373 
       0.220989         140.666         136.851 
       0.227147         131.087         128.597 
        0.23329         124.069         121.219 
       0.239377         118.615         115.041 
       0.245482         112.459         109.985 
       0.251667         109.524         105.805 
       0.257832         105.747          102.22 
       0.263955          102.26         98.8499 
       0.270079         98.8019         95.3806 
        0.27624         95.9552         91.6525 
       0.282372         91.9625         87.7259 
        0.28843         87.6706         83.7839 
       0.294538         83.8744         79.9344 
       0.300721         81.1456         76.3493 
        0.30691         77.3725         73.1733 
       0.313033         74.7801         70.4568 
       0.319153         71.4442         68.0926 
       0.325316         70.3706         65.9519 
        0.33145         67.9737           63.93 
       0.337538         66.1904         61.9348 
       0.343633         63.9117         59.8897 
       0.349808         61.9824         57.7764 
       0.355968          59.989         55.6609 
       0.362074         57.9059         53.6236 
       0.368217         56.0801         51.6908 
       0.374374          54.164         49.9079 
       0.380519          52.746         48.2963 
       0.386598         51.3149         46.8435 
       0.392688         50.1837         45.4988 
        0.39888          48.731         44.1998 
       0.405048         47.5856         42.9356 
       0.411186          46.433         41.6891 
       0.417313         44.8621          40.447 
       0.423458         43.7121         39.2143 
       0.429607         42.4402         38.0137 
       0.435692         41.1458          36.875 
       0.441815          40.321         35.7912 
       0.447964         39.5858         34.7746 
       0.454126         38.1022         33.8208 
       0.460267         37.3585         32.9239 
       0.466387         36.2669         32.0714 
        0.47254         35.6939         31.2427 
       0.478662         35.0115         30.4349 
       0.484765         34.0058         29.6436 
       0.490885          33.196         28.8668 
       0.497035          32.732         28.1057 
       0.503198         31.8603         27.3678 
       0.509342         31.0522         26.6621 
       0.515458         30.3583         25.9932 
       0.521598         29.8126         25.3531 
       0.527764         29.1486         24.7382 
       0.533884         28.6357         24.1518 
           0.54         28.0314         23.5859 
       0.546137         27.5353         23.0345 
       0.552299         27.0568         22.4941 
       0.558452          26.221         21.9668 
       0.564573         25.8663          21.456 
       0.570708          25.403         20.9595 
       0.576825         24.7452         20.4812 
       0.582926         24.3186         20.0209 
       0.589034         23.6486         19.5761 
       0.595184         23.3239         19.1439 
       0.601379         22.8686          18.724 
       0.607522         22.4997         18.3211 
       0.613639         22.2431         17.9317 
       0.619772         21.6562         17.5517 
       0.625918         21.5045         17.1803 
       0.632068         21.1437         16.8181 
       0.638161         20.6633         16.4691 
         0.6443         20.2437         16.1276 
       0.650464         19.8653         15.7952 
       0.656582         19.7208         15.4755 
       0.662703         19.3544         15.1651 
       0.668861          18.996         14.8619 
       0.675024          18.639         14.5668 
       0.681124         18.3217         14.2828 
       0.687237         18.0336         14.0057 
       0.693381         17.8322         13.7345 
       0.699536         17.3548         13.4701 
       0.705665         17.2183         13.2137 
       0.711789         16.9034         12.9641 
       0.717957         16.6492         12.7193 
        0.72409         16.3805         12.4822 
       0.730186         16.1662         12.2526 
       0.736317         15.9868         12.0276 
       0.742472         15.7273         11.8075 
       0.748622         15.5061         11.5932 
        0.75476         15.1928         11.3848 
       0.760888         15.0156         11.1819 
       0.767043         14.8332         10.9833 
       0.773185         14.5393         10.7899 
       0.779291         14.4401         10.6023 
       0.785407         14.2261         10.4189 
       0.791564         13.9851         10.2386 
       0.797719         13.7358         10.0628 
       0.803834         13.6608         9.89216 
       0.809972         13.5306         9.72492 
       0.816124         13.2275         9.56119 
       0.822261         13.0702         9.40169 
       0.828378         12.9154         9.24634 
       0.834502         12.7959         9.09439 
       0.840667         12.5896          8.9449 
       0.846816         12.3724         8.79921 
       0.852925          12.261         8.65771 
       0.859047         12.1143         8.51905 
       0.865192         12.0067           8.383 
       0.871341         11.8838         8.24984 
       0.877463          11.688          8.1202 
       0.883569         11.5118         7.99369 
       0.889708         11.3293         7.86925 
       0.895864         11.2524         7.74716 
       0.902008         11.1392         7.62793 
       0.908149         11.0143         7.51129 
       0.914301          10.876         7.39692 
       0.920448         10.7016         7.28506 
       0.926574         10.5867         7.17591 
       0.932687         10.4917         7.06923 
       0.938823         10.3473         6.96436 
       0.944975         10.2152         6.86138 
       0.951105         10.1278         6.76087 
       0.957225         10.0647         6.66255 
       0.963368         9.93234         6.56586 
       0.969511         9.83005         6.47109 
       0.975621         9.71081         6.37872 
       0.981748         9.60599         6.28792 
       0.987916         9.52297         6.19832 
        0.99406         9.37712         6.11081 
        1.00019         9.23795         6.02517 
        1.00632          9.2221         5.94126 
        1.01246         9.11389         5.85882 
        1.01859         8.98414         5.77809 
        1.02471          8.9146         5.69899 
        1.03085         8.82601          5.6211 
        1.03698         8.70144         5.54484 
        1.04314         8.64279         5.46968 
        1.04929         8.52868         5.39609 
        1.05541          8.4365         5.32415 
        1.06154          8.3699         5.25336 
        1.06769         8.32903         5.18375 
        1.07382         8.19673         5.11563 
        1.07993          8.1225          5.0489 
        1.08607         8.06509         4.98309 
        1.09222         7.98524         4.91839 
        1.09836         7.90284         4.85491 
        1.10449         7.82581         4.79264 
        1.11063         7.75522          4.7314 
        1.11677         7.69984         4.67125 
         1.1229         7.63307         4.61225 
        1.12903         7.54874         4.55423 
        1.13518         7.46525         4.49716 
        1.14131         7.38744         4.44111 
        1.14745         7.31035         4.38604 
        1.15359         7.27032          4.3319 
        1.15973         7.20185         4.27866 
        1.16584         7.10999         4.22655 
        1.17197         7.05793         4.17524 
        1.17811         7.01785         4.12463 
        1.18424         6.96056         4.07501 
        1.19038         6.91656         4.02606 
        1.19652         6.84247         3.97794 
        1.20267         6.76443          3.9306 
        1.20881         6.73507         3.88405 
        1.21495         6.67553         3.83833 
        1.22108         6.60097         3.79335 
         1.2272         6.56811          3.7492 
        1.23334         6.48306         3.70565 
        1.23949         6.43092          3.6627 
        1.24562          6.4009         3.62054 
        1.25174         6.33164         3.57911 
        1.25789         6.28936         3.53821 
        1.26402         6.24372         3.49802 
        1.27014         6.18765         3.45855 
        1.27628         6.13401         3.41958 
        1.28244         6.06522         3.38113 
        1.28858         6.05225         3.34333 
        1.29471         5.98493         3.30619 
        1.30084         5.92924         3.26965 
        1.30697         5.92931         3.23361 
        1.31312         5.81797         3.19806 
        1.31925         5.79512         3.16316 
        1.32537         5.74829         3.12881 
        1.33151         5.72646         3.09485 
        1.33765         5.65393         3.06142 
        1.34378         5.61398         3.02855 
        1.34992         5.58937         2.99614 
        1.35606         5.52662         2.96414 
         1.3622         5.50186         2.93266 
        1.36833         5.45824         2.90171 
        1.37445         5.42042         2.87123 
        1.38059         5.39831         2.84109 
        1.38675         5.35339         2.81132 
        1.39288         5.31052         2.78209 
        1.39901         5.25574         2.75329 
        1.40515           5.227         2.72483 
         1.4113         5.19263         2.69679 
        1.41742         5.15812         2.66925 
        1.42355         5.11359         2.64204 
         1.4297         5.07318         2.61514 
        1.43585         5.05525         2.58861 
        1.44198          5.0315         2.56256 
        1.44809         4.97526         2.53692 
        1.45423         4.93882         2.51153 
        1.46036           4.903         2.48654 
        1.46649         4.86642         2.46187 
        1.47263         4.83155         2.43753 
        1.47877         4.79531         2.41352 
        1.48491         4.76716          2.3898 
        1.49104         4.74185         2.36645 
        1.49718         4.70897         2.34339 
        1.50333         4.68209         2.32061 
        1.50947         4.64616         2.29817 
         1.5156         4.61656         2.27607 
        1.52172         4.59045         2.25425 
        1.52787          4.5632         2.23268 
          1.534          4.5247         2.21141 
        1.54013         4.50525         2.19045 
        1.54627         4.46096         2.16972 
        1.55241         4.43458         2.14925 
        1.55855         4.41776         2.12908 
        1.56467          4.3862         2.10922 
         1.5708         4.35661         2.08956 
        1.57695         4.32147         2.07012 
        1.58308         4.29191         2.05097 
        1.58922         4.28059         2.03206 
        1.59535         4.25282         2.01338 
         1.6015         4.22178         1.99492 
        1.60764         4.19519          1.9767 
        1.61376         4.17154         1.95875 
        1.61989         4.14732         1.94102 
        1.62604         4.11637         1.92346 
        1.63218         4.10589         1.90613 
        1.63831           4.075         1.88906 
        1.64444         4.04962         1.87219 
        1.65059         4.01535         1.85548 
        1.65673         4.00431           1.839 
        1.66285         3.96889         1.82276 
        1.66898         3.95227         1.80672 
        1.67512         3.92283         1.79084 
        1.68127         3.90242         1.77513 
         1.6874         3.88916         1.75965 
        1.69353         3.84977         1.74436 
        1.69967         3.83559         1.72921 
        1.70581         3.81839         1.71426 
        1.71193         3.79528         1.69953 
        1.71806         3.77651         1.68495 
        1.72421         3.75243         1.67051 
        1.73035         3.73582         1.65626 
        1.73649         3.70882         1.64217 
        1.74262         3.68498         1.62826 
        1.74876         3.67681         1.61451 
        1.75489         3.65318         1.60093 
        1.76101         3.62277         1.58752 
        1.76715         3.61071         1.57425 
        1.77329         3.59431         1.56111 
        1.77943         3.55971         1.54811 
        1.78557         3.55221         1.53528 
        1.79171         3.53156          1.5226 
        1.79785         3.50921         1.51005 
        1.80399         3.49129         1.49765 
        1.81012         3.47807         1.48541 
        1.81625         3.45392         1.47331 
        1.82239          3.4347         1.46132 
        1.82853         3.41459         1.44947 
        1.83466         3.40697         1.43777 
        1.84078         3.38644         1.42621 
        1.84692         3.37258         1.41475 
        1.85306         3.34421         1.40341 
         1.8592         3.32623         1.39221 
        1.86533          3.3116         1.38114 
        1.87147         3.30019         1.37018 
        1.87761         3.27984         1.35933 
        1.88375         3.26009         1.34861 
        1.88988         3.24283         1.33802 
        1.89601         3.22946         1.32753 
        1.90215         3.21086         1.31715 
        1.90829         3.19051         1.30689 
        1.91442         3.18151         1.29673 
        1.92056         3.15897         1.28669 
         1.9267         3.14924         1.27675 
        1.93284         3.13448          1.2669 
        1.93897         3.11828         1.25718 
        1.94509         3.09554         1.24758 
        1.95123         3.08106         1.23806 
        1.95737         3.06421         1.22863 
        1.96349         3.05489         1.21933 
        1.96964          3.0462         1.21009 
        1.97578         3.02216         1.20094 
        1.98192         3.01185         1.19191 
        1.98805         2.99817         1.18297 
        1.99419         2.98327         1.17412 
        2.00033         2.97477         1.16535 
        2.00647         2.95443         1.15668 
         2.0126         2.94462         1.14811 
        2.01874          2.9211         1.13962 
        2.02488         2.91395          1.1312 
        2.03101         2.89226         1.12288 
        2.03714         2.88175         1.11466 
        2.04328         2.87039          1.1065 
        2.04941         2.84879         1.09844 
        2.05554         2.84399         1.09046 
        2.06167         2.83102         1.08255 
        2.06781         2.81959         1.07472 
        2.07396         2.80804         1.06695 
        2.08009         2.79276         1.05928 
        2.08622         2.77533         1.05168 
        2.09237          2.7695         1.04415 
        2.09851         2.75422         1.03669 
        2.10464         2.74544         1.02932 
        2.11077         2.72991         1.02202 
        2.11691          2.7179         1.01478 
        2.12305         2.70857         1.00761 
        2.12918          2.6991         1.00053 
        2.13531         2.68549        0.993515 
        2.14145         2.67205         0.98655 
         2.1476         2.65661        0.979644 
        2.15372          2.6462        0.972838 
        2.15985         2.63529         0.96609 
        2.16599         2.62515        0.959387 
        2.17213         2.60874        0.952755 
        2.17827         2.60146        0.946186 
         2.1844         2.59003        0.939686 
        2.19054          2.5817        0.933244 
        2.19666         2.56704        0.926872 
         2.2028          2.5555        0.920553 
        2.20893         2.54606         0.91429 
        2.21508         2.53354        0.908078 
        2.22122         2.52162        0.901922 
        2.22736         2.51054        0.895836 
        2.23349         2.50495        0.889807 
        2.23962         2.48986        0.883831 
        2.24577          2.4813        0.877904 
         2.2519         2.47038         0.87204 
        2.25802         2.46366        0.866239 
        2.26417         2.45263        0.860474 
        2.27031         2.44078        0.854756 
        2.27644         2.43265        0.849107 
        2.28257         2.41941         0.84351 
        2.28872         2.41222        0.837952 
        2.29486         2.40096        0.832445 
        2.30099         2.39053        0.826999 
        2.30712          2.3781        0.821599 
        2.31326         2.37292        0.816239 
         2.3194         2.36186        0.810929 
        2.32553          2.3523        0.805675 
        2.33166         2.34412         0.80047 
         2.3378         2.33436        0.795304 
        2.34394         2.32456        0.790182 
        2.35007         2.31379        0.785112 
        2.35619         2.30993        0.780092 
        2.36233         2.29765        0.775105 
        2.36848         2.28761         0.77015 
        2.37462         2.28091         0.76525 
        2.38075         2.26989        0.760397 
        2.38689         2.26312        0.755581 
        2.39303         2.25348        0.750809 
        2.39916         2.24455        0.746082 
        2.40529         2.23538        0.741397 
        2.41143         2.22625        0.736748 
        2.41757         2.21722        0.732137 
         2.4237         2.21153        0.727574 
        2.42983         2.19539         0.72305 
        2.43598         2.19726        0.718552 
        2.44211         2.18275        0.714101 
        2.44823         2.17803        0.709697 
        2.45437         2.16722        0.705318 
        2.46052         2.16066        0.700972 
        2.46665         2.15374         0.69667 
        2.47279         2.14361        0.692406 
        2.47892         2.13684        0.688175 
        2.48507         2.12986        0.683975 
         2.4912         2.11693        0.679819 
