# k  (h/Mpc)    Pcb(k)  (Mpc/h)^3    Pcb_linear(k)  (Mpc/h)^3
     0.00783031         18946.8         19237.5 
       0.013688         24692.1         24438.7 
       0.019231         25462.7         25466.7 
      0.0249154         23584.7         24247.4 
      0.0312784         21238.5         21643.2 
      0.0375637         18733.3         18880.4 
      0.0433917         16180.8         16683.4 
      0.0492413         14721.8         14993.5 
      0.0555754         13036.2         13683.6 
      0.0619321         12563.6           12719 
       0.067871         11373.2         11938.5 
      0.0738098         10600.6         11134.3 
      0.0800417         9559.55         10201.4 
      0.0862327         8765.72         9208.19 
      0.0921407         8061.52         8272.66 
      0.0982031         7215.69         7408.34 
       0.104506         6761.15          6673.7 
       0.110769         6226.45         6126.27 
       0.116806         5853.32         5747.14 
       0.122832         5565.02         5466.18 
       0.129052         5177.66         5220.04 
       0.135211         4935.71          4970.1 
       0.141259          4761.9         4691.26 
       0.147318          4515.6         4376.98 
       0.153489         4150.62         4039.98 
       0.159709         3933.72         3712.57 
       0.165845         3805.48         3427.78 
       0.171974         3588.72         3195.99 
       0.178125         3414.12         3017.31 
       0.184229         3255.16         2883.08 
        0.19034         3117.47         2774.74 
       0.196428         3054.38         2674.73 
       0.202534         2932.85         2568.32 
       0.208729         2822.62         2447.21 
       0.214876         2731.12         2315.21 
       0.220989         2640.02         2179.49 
       0.227147         2540.46         2048.03 
        0.23329         2444.95         1930.53 
       0.239377         2418.33         1832.13 
       0.245482         2281.56         1751.61 
       0.251667         2271.41         1685.05 
       0.257832         2185.27         1627.95 
       0.263955         2114.47         1574.28 
       0.270079         2050.25         1519.03 
        0.27624         2023.44         1459.65 
       0.282372         1945.25         1397.12 
        0.28843         1950.89         1334.34 
       0.294538         1865.44         1273.03 
       0.300721         1847.55         1215.94 
        0.30691         1789.36         1165.36 
       0.313033         1750.82         1122.09 
       0.319153          1738.5         1084.44 
       0.325316         1678.94         1050.35 
        0.33145         1647.61         1018.15 
       0.337538          1615.1         986.364 
       0.343633         1590.54           953.8 
       0.349808         1546.24         920.143 
       0.355968         1531.61         886.453 
       0.362074          1523.1         854.008 
       0.368217         1472.44         823.226 
       0.374374         1431.18         794.832 
       0.380519         1434.94         769.164 
       0.386598         1393.77          746.03 
       0.392688         1384.66         724.611 
        0.39888         1350.68         703.924 
       0.405048         1342.19         683.791 
       0.411186         1320.53         663.937 
       0.417313         1292.55         644.159 
       0.423458         1273.35         624.524 
       0.429607         1260.42         605.405 
       0.435692         1239.76         587.268 
       0.441815         1229.39         570.012 
       0.447964         1205.52         553.817 
       0.454126         1200.41         538.628 
       0.460267         1172.11         524.344 
       0.466387         1152.93         510.768 
        0.47254         1159.44         497.568 
       0.478662         1138.27         484.705 
       0.484765         1115.05         472.102 
       0.490885         1108.76          459.73 
       0.497035         1084.83          447.61 
       0.503198         1080.81         435.858 
       0.509342         1064.58          424.62 
       0.515458         1061.59         413.966 
       0.521598          1039.9         403.773 
       0.527764         1022.01         393.979 
       0.533884         1018.83          384.64 
           0.54         1014.94         375.628 
       0.546137         996.605         366.846 
       0.552299         990.115         358.239 
       0.558452         977.874         349.842 
       0.564573         967.159         341.706 
       0.570708         958.427           333.8 
       0.576825         936.789         326.183 
       0.582926         941.406         318.851 
       0.589034         928.719         311.767 
       0.595184         921.514         304.886 
       0.601379         911.813         298.197 
       0.607522         897.631         291.781 
       0.613639         896.857          285.58 
       0.619772         882.955         279.527 
       0.625918         874.403         273.613 
       0.632068         865.567         267.845 
       0.638161         861.018         262.286 
         0.6443         847.575         256.847 
       0.650464         846.438         251.554 
       0.656582          838.38         246.461 
       0.662703         834.255         241.518 
       0.668861         821.342         236.689 
       0.675024         811.889         231.991 
       0.681124         809.961         227.467 
       0.687237         803.608         223.053 
       0.693381         795.864         218.735 
       0.699536         780.405         214.523 
       0.705665         781.809          210.44 
       0.711789         775.507         206.466 
       0.717957           768.7         202.567 
        0.72409         763.344         198.791 
       0.730186         753.604         195.134 
       0.736317         751.376         191.551 
       0.742472         744.168         188.045 
       0.748622         737.613         184.633 
        0.75476         726.711         181.314 
       0.760888         723.597         178.083 
       0.767043         717.763         174.919 
       0.773185         712.721         171.839 
       0.779291         708.081         168.851 
       0.785407         699.838          165.93 
       0.791564         694.234          163.06 
       0.797719         692.759         160.259 
       0.803834         684.419         157.542 
       0.809972         678.706         154.878 
       0.816124         678.325         152.271 
       0.822261         667.637         149.731 
       0.828378         663.882         147.257 
       0.834502         657.921         144.837 
       0.840667         651.686         142.456 
       0.846816         647.571         140.136 
       0.852925         643.485         137.882 
       0.859047         642.049         135.674 
       0.865192         632.465         133.507 
       0.871341         629.151         131.386 
       0.877463         627.303         129.322 
       0.883569         620.824         127.307 
       0.889708         618.419         125.325 
       0.895864         614.639         123.381 
       0.902008         609.792         121.482 
       0.908149          600.56         119.624 
       0.914301         599.963         117.803 
       0.920448         596.208         116.021 
       0.926574         586.955         114.283 
       0.932687         584.785         112.584 
       0.938823         580.298         110.914 
       0.944975         577.679         109.274 
       0.951105         573.341         107.673 
       0.957225         568.237         106.107 
       0.963368         563.181         104.567 
       0.969511         561.657         103.058 
       0.975621         556.684         101.587 
       0.981748         551.994         100.141 
       0.987916         548.205          98.714 
        0.99406         541.147         97.3203 
        1.00019         540.072         95.9564 
        1.00632         535.897           94.62 
        1.01246         532.153         93.3072 
        1.01859         529.524         92.0215 
        1.02471         524.906         90.7617 
        1.03085         521.265         89.5213 
        1.03698         518.485         88.3067 
        1.04314         513.058         87.1097 
        1.04929         509.085         85.9377 
        1.05541         509.419         84.7921 
        1.06154         503.061         83.6646 
        1.06769         499.635          82.556 
        1.07382         496.044         81.4712 
        1.07993         492.852         80.4084 
        1.08607         492.079         79.3603 
        1.09222         485.455         78.3299 
        1.09836         480.865          77.319 
        1.10449         480.038         76.3272 
        1.11063         472.408         75.3519 
        1.11677         473.311         74.3939 
         1.1229         470.357         73.4544 
        1.12903         466.051         72.5303 
        1.13518         461.512         71.6215 
        1.14131         459.609         70.7287 
        1.14745         455.935         69.8518 
        1.15359         452.784         68.9896 
        1.15973         450.598         68.1416 
        1.16584         448.124         67.3118 
        1.17197         444.062         66.4946 
        1.17811         441.415         65.6886 
        1.18424         437.034         64.8982 
        1.19038         434.436         64.1187 
        1.19652         432.636         63.3523 
        1.20267         430.322         62.5985 
        1.20881         426.189         61.8571 
        1.21495         423.346         61.1289 
        1.22108          419.85         60.4126 
         1.2272         417.832         59.7095 
        1.23334         415.721         59.0159 
        1.23949         411.311         58.3318 
        1.24562         408.909         57.6604 
        1.25174         406.906         57.0006 
        1.25789         401.852         56.3492 
        1.26402         400.323         55.7091 
        1.27014         397.188         55.0806 
        1.27628         394.214         54.4599 
        1.28244         393.941         53.8476 
        1.28858         389.292         53.2456 
        1.29471          388.67         52.6541 
        1.30084         384.555         52.0722 
        1.30697         383.654         51.4982 
        1.31312         379.632          50.932 
        1.31925         376.837         50.3762 
        1.32537         375.522         49.8292 
        1.33151         371.907         49.2884 
        1.33765         369.698          48.756 
        1.34378         368.126         48.2325 
        1.34992         365.015         47.7163 
        1.35606         362.136         47.2066 
         1.3622         360.659         46.7053 
        1.36833         358.614         46.2124 
        1.37445         355.659          45.727 
        1.38059          354.04          45.247 
        1.38675         350.696         44.7728 
        1.39288         348.632         44.3073 
        1.39901          346.77         43.8486 
        1.40515         344.821         43.3955 
         1.4113         342.505         42.9489 
        1.41742         340.009         42.5103 
        1.42355         337.164          42.077 
         1.4297          335.62         41.6484 
        1.43585         333.605          41.226 
        1.44198          332.19         40.8111 
        1.44809         327.663         40.4027 
        1.45423         326.307         39.9984 
        1.46036           324.8         39.6003 
        1.46649         322.966         39.2076 
        1.47263         320.832         38.8198 
        1.47877         317.585         38.4375 
        1.48491         315.772         38.0598 
        1.49104         314.013         37.6879 
        1.49718         312.191         37.3207 
        1.50333         310.752         36.9578 
        1.50947         308.521         36.6005 
         1.5156         305.437         36.2484 
        1.52172         304.544          35.901 
        1.52787         302.898         35.5574 
          1.534         301.349         35.2188 
        1.54013         298.155         34.8849 
        1.54627         296.674         34.5547 
        1.55241         294.597         34.2288 
        1.55855         291.932         33.9075 
        1.56467         291.228         33.5913 
         1.5708         289.375         33.2781 
        1.57695         286.538         32.9686 
        1.58308         285.663         32.6636 
        1.58922         282.613         32.3623 
        1.59535         281.889          32.065 
         1.6015         279.792         31.7709 
        1.60764         277.713         31.4807 
        1.61376          276.18         31.1949 
        1.61989         274.249         30.9125 
        1.62604          272.21         30.6329 
        1.63218         271.024         30.3569 
        1.63831         269.834          30.085 
        1.64444         267.218         29.8163 
        1.65059          266.36         29.5503 
        1.65673          263.81         29.2878 
        1.66285         262.378         29.0292 
        1.66898         261.086         28.7736 
        1.67512         259.217         28.5207 
        1.68127         256.985         28.2705 
         1.6874          255.82         28.0239 
        1.69353         254.183         27.7805 
        1.69967         252.858         27.5393 
        1.70581          250.73         27.3011 
        1.71193         249.258         27.0666 
        1.71806         247.942         26.8344 
        1.72421         246.192         26.6044 
        1.73035         245.239         26.3774 
        1.73649         244.261         26.1531 
        1.74262         241.125         25.9316 
        1.74876         240.157         25.7125 
        1.75489         238.894         25.4963 
        1.76101         237.105         25.2827 
        1.76715         236.137         25.0713 
        1.77329         234.715         24.8621 
        1.77943         232.804         24.6551 
        1.78557         231.136         24.4508 
        1.79171         230.624         24.2487 
        1.79785         228.403          24.049 
        1.80399         227.709         23.8515 
        1.81012          225.52         23.6565 
        1.81625         223.785         23.4637 
        1.82239         223.254         23.2728 
        1.82853         221.366         23.0842 
        1.83466         220.531         22.8978 
        1.84078         218.688         22.7136 
        1.84692         217.983         22.5312 
        1.85306         215.872         22.3506 
         1.8592         215.414         22.1722 
        1.86533         213.737         21.9959 
        1.87147         212.735         21.8213 
        1.87761         211.524         21.6485 
        1.88375         209.934         21.4778 
        1.88988         208.162         21.3091 
        1.89601         207.954         21.1421 
        1.90215         206.568         20.9768 
        1.90829         205.106         20.8133 
        1.91442         204.205         20.6516 
        1.92056         202.943         20.4917 
         1.9267         201.104         20.3334 
        1.93284         199.956         20.1766 
        1.93897         198.986         20.0218 
        1.94509         197.473         19.8689 
        1.95123         196.213         19.7172 
        1.95737         195.623         19.5671 
        1.96349         193.992         19.4188 
        1.96964         192.704         19.2717 
        1.97578         191.796         19.1261 
        1.98192         190.884         18.9822 
        1.98805         189.178         18.8398 
        1.99419         188.434         18.6988 
        2.00033         187.233         18.5593 
        2.00647         186.349         18.4212 
         2.0126         184.726         18.2847 
        2.01874         184.167         18.1494 
        2.02488         182.812         18.0153 
        2.03101         181.633         17.8829 
        2.03714         180.875         17.7519 
        2.04328         179.532          17.622 
        2.04941         178.675         17.4936 
        2.05554         177.483         17.3666 
        2.06167         176.792         17.2406 
        2.06781         176.005         17.1158 
        2.07396         174.535         16.9922 
        2.08009         173.285         16.8699 
        2.08622         172.185          16.749 
        2.09237         171.333          16.629 
        2.09851          170.19         16.5102 
        2.10464         169.877         16.3928 
        2.11077         168.364         16.2766 
        2.11691         167.313         16.1613 
        2.12305         166.272         16.0471 
        2.12918         165.464         15.9343 
        2.13531         164.575         15.8226 
        2.14145         163.493         15.7117 
         2.1476         162.625         15.6017 
        2.15372         161.636         15.4933 
        2.15985         160.925         15.3858 
        2.16599         160.069         15.2791 
        2.17213         159.052         15.1735 
        2.17827         157.887         15.0688 
         2.1844         157.189         14.9653 
        2.19054         156.237         14.8627 
        2.19666         155.185         14.7612 
         2.2028         154.426         14.6606 
        2.20893         153.641         14.5609 
        2.21508         152.443         14.4619 
        2.22122         151.719         14.3639 
        2.22736         151.018          14.267 
        2.23349         150.228          14.171 
        2.23962         149.222         14.0758 
        2.24577         148.268         13.9814 
         2.2519         147.713          13.888 
        2.25802         146.797         13.7956 
        2.26417         145.762         13.7038 
        2.27031         144.915         13.6127 
        2.27644         144.289         13.5228 
        2.28257         143.519         13.4336 
        2.28872         142.699         13.3451 
        2.29486         141.702         13.2574 
        2.30099          141.08         13.1707 
        2.30712           140.2         13.0847 
        2.31326         139.457         12.9993 
         2.3194         138.662         12.9147 
        2.32553         137.956         12.8311 
        2.33166         137.064         12.7482 
         2.3378         136.309         12.6659 
        2.34394         135.628         12.5843 
        2.35007          134.67         12.5036 
        2.35619         133.744         12.4236 
        2.36233           133.3         12.3442 
        2.36848         132.665         12.2653 
        2.37462         131.892         12.1873 
        2.38075         131.156           12.11 
        2.38689         130.425         12.0333 
        2.39303         129.481         11.9573 
        2.39916          128.73          11.882 
        2.40529         128.673         11.8074 
        2.41143         127.588         11.7333 
        2.41757          127.01         11.6599 
         2.4237         126.151         11.5872 
        2.42983         125.707         11.5152 
        2.43598         124.802         11.4436 
        2.44211         124.054         11.3727 
        2.44823         123.558         11.3025 
        2.45437         122.874         11.2328 
        2.46052         122.084         11.1636 
        2.46665         121.646         11.0951 
        2.47279         120.789         11.0272 
        2.47892         120.221         10.9598 
        2.48507         119.442         10.8929 
         2.4912         118.819         10.8267 
