# k  (h/Mpc)    P(k)  (Mpc/h)^3    P_linear(k)  (Mpc/h)^3
     0.00783031         18890.1           19160 
       0.013688         24582.6         24314.1 
       0.019231         25332.1         25323.2 
      0.0249154         23453.9         24102.8 
      0.0312784         21113.9         21509.1 
      0.0375637         18619.3         18760.5 
      0.0433917         16080.3         16575.8 
      0.0492413         14628.7         14895.7 
      0.0555754         12952.7         13593.4 
      0.0619321         12482.3         12634.6 
       0.067871         11299.1         11858.9 
      0.0738098           10531         11059.7 
      0.0800417         9496.49         10132.8 
      0.0862327         8707.61         9146.06 
      0.0921407         8007.87          8216.7 
      0.0982031         7167.52         7358.12 
       0.104506         6715.87         6628.38 
       0.110769         6184.65         6084.59 
       0.116806         5813.93         5707.99 
       0.122832         5527.52          5428.9 
       0.129052         5142.72          5184.4 
       0.135211         4902.36         4936.13 
       0.141259         4729.69         4659.17 
       0.147318         4485.02         4347.03 
       0.153489         4122.48         4012.31 
       0.159709         3907.03         3687.13 
       0.165845         3779.63         3404.28 
       0.171974         3564.33         3174.07 
       0.178125          3390.9          2996.6 
       0.184229         3233.02         2863.28 
        0.19034         3096.24         2755.68 
       0.196428         3033.57         2656.35 
       0.202534         2912.87         2550.67 
       0.208729         2803.38         2430.38 
       0.214876          2712.5         2299.28 
       0.220989         2622.02          2164.5 
       0.227147         2523.13         2033.94 
        0.23329         2428.27         1917.24 
       0.239377         2401.82         1819.52 
       0.245482         2265.98         1739.55 
       0.251667         2255.91         1673.45 
       0.257832         2170.35         1616.74 
       0.263955         2100.03         1563.44 
       0.270079         2036.25         1508.56 
        0.27624         2009.62          1449.6 
       0.282372         1931.97         1387.49 
        0.28843         1937.56         1325.14 
       0.294538         1852.69         1264.26 
       0.300721         1834.93         1207.55 
        0.30691         1777.13         1157.32 
       0.313033         1738.86         1114.36 
       0.319153         1726.62         1076.96 
       0.325316         1667.47          1043.1 
        0.33145         1636.34         1011.12 
       0.337538         1604.06         979.568 
       0.343633         1579.67         947.222 
       0.349808         1535.67         913.797 
       0.355968         1521.14         880.338 
       0.362074         1512.68         848.116 
       0.368217         1462.38         817.546 
       0.374374         1421.39         789.347 
       0.380519         1425.13         763.858 
       0.386598         1384.24          740.88 
       0.392688          1375.2         719.611 
        0.39888         1341.45         699.066 
       0.405048         1333.02         679.072 
       0.411186          1311.5         659.357 
       0.417313         1283.71         639.712 
       0.423458         1264.65         620.214 
       0.429607          1251.8         601.226 
       0.435692         1231.29         583.215 
       0.441815         1220.98         566.074 
       0.447964         1197.27         549.995 
       0.454126          1192.2          534.91 
       0.460267          1164.1         520.724 
       0.466387         1145.05         507.242 
        0.47254         1151.52         494.134 
       0.478662         1130.49         481.358 
       0.484765         1107.42         468.843 
       0.490885         1101.18         456.557 
       0.497035         1077.41         444.519 
       0.503198         1073.42         432.849 
       0.509342          1057.3         421.688 
       0.515458         1054.33         411.108 
       0.521598         1032.79         400.985 
       0.527764         1015.02         391.259 
       0.533884         1011.87         381.984 
           0.54            1008         373.034 
       0.546137          989.79         364.313 
       0.552299         983.344         355.765 
       0.558452         971.187         347.425 
       0.564573         960.546         339.347 
       0.570708         951.874         331.494 
       0.576825         930.383          323.93 
       0.582926         934.968         316.649 
       0.589034         922.368         309.614 
       0.595184         915.212          302.78 
       0.601379         905.578         296.138 
       0.607522         891.493         289.766 
       0.613639         890.724         283.607 
       0.619772         876.918         277.597 
       0.625918         868.424         271.723 
       0.632068         859.648         265.995 
       0.638161         855.131         260.474 
         0.6443         841.779         255.072 
       0.650464          840.65         249.816 
       0.656582         832.647         244.759 
       0.662703         828.551          239.85 
       0.668861         815.725         235.054 
       0.675024         806.337         230.388 
       0.681124         804.423         225.895 
       0.687237         798.113         221.512 
       0.693381         790.422         217.224 
       0.699536         775.068         213.041 
       0.705665         776.463         208.986 
       0.711789         770.204         205.039 
       0.717957         763.444         201.167 
        0.72409         758.125         197.417 
       0.730186         748.451         193.786 
       0.736317         746.238         190.227 
       0.742472         739.079         186.746 
       0.748622         732.569         183.357 
        0.75476         721.742         180.061 
       0.760888         718.649         176.853 
       0.767043         712.855          173.71 
       0.773185         707.847         170.652 
       0.779291          703.24         167.685 
       0.785407         695.052         164.784 
       0.791564         689.486         161.933 
       0.797719         688.022         159.152 
       0.803834         679.739         156.454 
       0.809972         674.065         153.808 
       0.816124         673.686         151.219 
       0.822261         663.072         148.696 
       0.828378         659.342         146.239 
       0.834502         653.422         143.836 
       0.840667          647.23         141.472 
       0.846816         643.143         139.167 
       0.852925         639.085          136.93 
       0.859047         637.658         134.736 
       0.865192         628.141         132.585 
       0.871341         624.848         130.479 
       0.877463         623.014         128.428 
       0.883569         616.579         126.427 
       0.889708         614.191         124.459 
       0.895864         610.436         122.528 
       0.902008         605.622         120.643 
       0.908149         596.453         118.798 
       0.914301         595.861         116.989 
       0.920448         592.131          115.22 
       0.926574         582.941         113.493 
       0.932687         580.786         111.806 
       0.938823         576.329         110.148 
       0.944975         573.728         108.519 
       0.951105         569.421         106.929 
       0.957225         564.352         105.374 
       0.963368          559.33         103.845 
       0.969511         557.817         102.346 
       0.975621         552.877         100.885 
       0.981748         548.219          99.449 
       0.987916         544.456         98.0319 
        0.99406         537.446         96.6479 
        1.00019         536.379         95.2934 
        1.00632         532.233         93.9662 
        1.01246         528.514         92.6625 
        1.01859         525.903         91.3857 
        1.02471         521.317         90.1346 
        1.03085         517.701         88.9027 
        1.03698         514.939         87.6966 
        1.04314         509.549         86.5078 
        1.04929         505.604         85.3439 
        1.05541         505.936         84.2062 
        1.06154         499.621         83.0865 
        1.06769         496.218         81.9855 
        1.07382         492.652         80.9082 
        1.07993         489.482         79.8528 
        1.08607         488.714         78.8119 
        1.09222         482.135         77.7886 
        1.09836         477.577         76.7847 
        1.10449         476.756         75.7998 
        1.11063         469.177         74.8312 
        1.11677         470.074         73.8799 
         1.1229         467.141         72.9468 
        1.12903         462.864         72.0291 
        1.13518         458.356         71.1265 
        1.14131         456.467           70.24 
        1.14745         452.818         69.3691 
        1.15359         449.688         68.5128 
        1.15973         447.517         67.6707 
        1.16584         445.059         66.8466 
        1.17197         441.025         66.0351 
        1.17811         438.396         65.2346 
        1.18424         434.045         64.4498 
        1.19038         431.465         63.6756 
        1.19652         429.678         62.9145 
        1.20267         427.379         62.1659 
        1.20881         423.275         61.4296 
        1.21495         420.451         60.7065 
        1.22108         416.979         59.9951 
         1.2272         414.974         59.2969 
        1.23334         412.879         58.6081 
        1.23949         408.498         57.9287 
        1.24562         406.113          57.262 
        1.25174         404.124         56.6068 
        1.25789         399.104         55.9598 
        1.26402         397.586         55.3242 
        1.27014         394.472            54.7 
        1.27628         391.518         54.0836 
        1.28244         391.247         53.4755 
        1.28858          386.63         52.8776 
        1.29471         386.013         52.2902 
        1.30084         381.926         51.7123 
        1.30697          381.03         51.1423 
        1.31312         377.036           50.58 
        1.31925          374.26          50.028 
        1.32537         372.954         49.4848 
        1.33151         369.364         48.9478 
        1.33765          367.17          48.419 
        1.34378         365.609         47.8991 
        1.34992         362.519         47.3865 
        1.35606         359.659         46.8804 
         1.3622         358.193         46.3825 
        1.36833         356.162         45.8931 
        1.37445         353.227          45.411 
        1.38059         351.619         44.9343 
        1.38675         348.298         44.4634 
        1.39288         346.248         44.0011 
        1.39901         344.398         43.5456 
        1.40515         342.463         43.0956 
         1.4113         340.163         42.6521 
        1.41742         337.684         42.2165 
        1.42355         334.859         41.7862 
         1.4297         333.326         41.3606 
        1.43585         331.324         40.9411 
        1.44198         329.919         40.5291 
        1.44809         325.423         40.1235 
        1.45423         324.076          39.722 
        1.46036         322.579         39.3267 
        1.46649         320.757         38.9366 
        1.47263         318.638         38.5516 
        1.47877         315.413         38.1719 
        1.48491         313.613         37.7967 
        1.49104         311.865         37.4274 
        1.49718         310.056         37.0628 
        1.50333         308.627         36.7024 
        1.50947         306.411         36.3475 
         1.5156         303.348         35.9979 
        1.52172         302.462         35.6529 
        1.52787         300.827         35.3117 
          1.534         299.289         34.9754 
        1.54013         296.116         34.6438 
        1.54627         294.645         34.3159 
        1.55241         292.582         33.9922 
        1.55855         289.936         33.6732 
        1.56467         289.237         33.3591 
         1.5708         287.396         33.0482 
        1.57695         284.579         32.7407 
        1.58308          283.71         32.4379 
        1.58922         280.681         32.1387 
        1.59535         279.962         31.8434 
         1.6015         277.879         31.5514 
        1.60764         275.814         31.2631 
        1.61376         274.291         30.9793 
        1.61989         272.373         30.6988 
        1.62604         270.349         30.4212 
        1.63218         269.171         30.1471 
        1.63831         267.989         29.8771 
        1.64444         265.391         29.6102 
        1.65059         264.538          29.346 
        1.65673         262.006         29.0853 
        1.66285         260.584         28.8286 
        1.66898           259.3         28.5748 
        1.67512         257.444         28.3236 
        1.68127         255.228         28.0752 
         1.6874         254.071         27.8303 
        1.69353         252.445         27.5885 
        1.69967         251.129          27.349 
        1.70581         249.016         27.1124 
        1.71193         247.554         26.8795 
        1.71806         246.246         26.6489 
        1.72421         244.509         26.4205 
        1.73035         243.562         26.1951 
        1.73649         242.591         25.9723 
        1.74262         239.477         25.7523 
        1.74876         238.515         25.5348 
        1.75489         237.261         25.3201 
        1.76101         235.484          25.108 
        1.76715         234.523         24.8981 
        1.77329          233.11         24.6902 
        1.77943         231.212         24.4847 
        1.78557         229.556         24.2818 
        1.79171         229.047         24.0812 
        1.79785         226.841         23.8828 
        1.80399         226.152         23.6866 
        1.81012         223.978          23.493 
        1.81625         222.255         23.3015 
        1.82239         221.728          23.112 
        1.82853         219.852         22.9246 
        1.83466         219.023         22.7395 
        1.84078         217.193         22.5566 
        1.84692         216.493         22.3755 
        1.85306         214.396         22.1961 
         1.8592         213.941          22.019 
        1.86533         212.275         21.8439 
        1.87147         211.281         21.6705 
        1.87761         210.078         21.4989 
        1.88375         208.498         21.3293 
        1.88988         206.738         21.1618 
        1.89601         206.532          20.996 
        1.90215         205.156         20.8318 
        1.90829         203.704         20.6695 
        1.91442         202.809         20.5089 
        1.92056         201.555         20.3501 
         1.9267         199.729         20.1928 
        1.93284         198.589         20.0371 
        1.93897         197.625         19.8834 
        1.94509         196.122         19.7316 
        1.95123         194.872          19.581 
        1.95737         194.285         19.4318 
        1.96349         192.665         19.2846 
        1.96964         191.386         19.1385 
        1.97578         190.485         18.9939 
        1.98192         189.579          18.851 
        1.98805         187.884         18.7096 
        1.99419         187.146         18.5696 
        2.00033         185.953          18.431 
        2.00647         185.075         18.2938 
         2.0126         183.462         18.1583 
        2.01874         182.908          18.024 
        2.02488         181.562         17.8908 
        2.03101         180.391         17.7593 
        2.03714         179.638         17.6292 
        2.04328         178.305         17.5003 
        2.04941         177.453         17.3727 
        2.05554          176.27         17.2465 
        2.06167         175.583         17.1214 
        2.06781         174.802         16.9976 
        2.07396         173.341         16.8747 
        2.08009           172.1         16.7533 
        2.08622         171.007         16.6332 
        2.09237         170.161         16.5141 
        2.09851         169.026         16.3961 
        2.10464         168.715         16.2795 
        2.11077         167.213         16.1641 
        2.11691         166.169         16.0496 
        2.12305         165.135         15.9362 
        2.12918         164.333         15.8242 
        2.13531         163.449         15.7132 
        2.14145         162.375         15.6031 
         2.1476         161.513         15.4939 
        2.15372         160.531         15.3862 
        2.15985         159.825         15.2795 
        2.16599         158.975         15.1735 
        2.17213         157.965         15.0686 
        2.17827         156.807         14.9647 
         2.1844         156.114         14.8619 
        2.19054         155.169           14.76 
        2.19666         154.123         14.6592 
         2.2028          153.37         14.5593 
        2.20893         152.591         14.4602 
        2.21508         151.401          14.362 
        2.22122         150.682         14.2646 
        2.22736         149.985         14.1684 
        2.23349         149.201          14.073 
        2.23962         148.201         13.9785 
        2.24577         147.254         13.8848 
         2.2519         146.703          13.792 
        2.25802         145.793         13.7003 
        2.26417         144.765         13.6091 
        2.27031         143.924         13.5187 
        2.27644         143.302         13.4293 
        2.28257         142.537         13.3408 
        2.28872         141.723         13.2529 
        2.29486         140.733         13.1658 
        2.30099         140.115         13.0797 
        2.30712         139.241         12.9943 
        2.31326         138.504         12.9095 
         2.3194         137.714         12.8255 
        2.32553         137.012         12.7424 
        2.33166         136.127         12.6601 
         2.3378         135.377         12.5784 
        2.34394         134.701         12.4974 
        2.35007          133.75         12.4172 
        2.35619          132.83         12.3378 
        2.36233         132.388         12.2589 
        2.36848         131.758         12.1805 
        2.37462          130.99          12.103 
        2.38075         130.259         12.0263 
        2.38689         129.533         11.9501 
        2.39303         128.596         11.8746 
        2.39916          127.85         11.7999 
        2.40529         127.793         11.7258 
        2.41143         126.715         11.6523 
        2.41757         126.142         11.5793 
         2.4237         125.289         11.5072 
        2.42983         124.847         11.4356 
        2.43598         123.948         11.3645 
        2.44211         123.206         11.2941 
        2.44823         122.713         11.2244 
        2.45437         122.033         11.1552 
        2.46052         121.249         11.0864 
        2.46665         120.814         11.0184 
        2.47279         119.963          10.951 
        2.47892         119.399          10.884 
        2.48507         118.625         10.8176 
         2.4912         118.006         10.7519 
