# k  (h/Mpc)    P(k)  (Mpc/h)^3    P_linear(k)  (Mpc/h)^3
     0.00783031         5880.99         5957.19 
       0.013688         7582.26         7556.07 
       0.019231         7880.08         7877.66 
      0.0249154         7411.26         7514.91 
      0.0312784         6681.32         6727.26 
      0.0375637         5881.61         5882.97 
      0.0433917         5143.68         5204.04 
      0.0492413         4654.07         4675.43 
      0.0555754         4178.79         4260.97 
      0.0619321         3964.31         3955.05 
       0.067871         3646.94         3710.99 
      0.0738098         3400.59         3464.42 
      0.0800417         3096.76         3181.59 
      0.0862327         2828.09         2880.34 
      0.0921407         2571.84         2594.12 
      0.0982031         2296.52         2326.06 
       0.104506          2115.2         2094.17 
       0.110769         1938.23         1917.93 
       0.116806         1801.11         1793.88 
       0.122832          1718.9         1701.88 
       0.129052         1613.88         1623.43 
       0.135211         1539.54         1546.96 
       0.141259         1473.44         1463.67 
       0.147318         1390.08         1370.04 
       0.153489         1279.38         1268.48 
       0.159709         1196.94         1167.88 
       0.165845         1131.64         1078.26 
       0.171974         1052.01         1003.44 
       0.178125          996.65         944.403 
       0.184229         955.362         899.521 
        0.19034         897.273         863.816 
       0.196428         882.307         832.249 
       0.202534         856.844         800.141 
       0.208729         815.937         764.402 
       0.214876         772.508         725.397 
       0.220989         746.663         684.658 
       0.227147         702.205          644.26 
        0.23329         670.449         607.149 
       0.239377         651.362         575.206 
       0.245482         608.435         548.512 
       0.251667         600.874         526.307 
       0.257832         580.661         507.567 
       0.263955         561.808         490.617 
       0.270079         543.119         473.827 
        0.27624          535.55         456.161 
       0.282372         513.413         437.624 
        0.28843         497.555         418.757 
       0.294538         474.819         399.964 
       0.300721         469.596         382.007 
        0.30691          447.49         365.735 
       0.313033         437.328         351.559 
       0.319153         421.547          339.17 
       0.325316         410.584         328.082 
        0.33145         398.383         317.881 
       0.337538          393.33         308.073 
       0.343633         380.619         298.237 
       0.349808          368.92         288.107 
       0.355968         363.631          277.93 
       0.362074         354.626         267.969 
       0.368217         345.151         258.354 
       0.374374         333.313         249.328 
       0.380519         328.054         241.046 
       0.386598         320.102         233.566 
       0.392688         316.657         226.662 
        0.39888         308.157         220.096 
       0.405048         301.755         213.826 
       0.411186         295.301         207.713 
       0.417313          289.67         201.683 
       0.423458         284.189         195.687 
       0.429607         277.657         189.796 
       0.435692         269.986         184.154 
       0.441815         268.168         178.724 
       0.447964         263.374         173.566 
       0.454126          252.92         168.718 
       0.460267         250.162         164.168 
       0.466387         247.056         159.864 
        0.47254         242.044         155.719 
       0.478662         240.228         151.727 
       0.484765         233.561         147.834 
       0.490885         230.251         144.011 
       0.497035         227.093         140.262 
       0.503198         221.388         136.611 
       0.509342         218.748         133.093 
       0.515458         215.841         129.729 
       0.521598         212.864         126.505 
       0.527764         209.502         123.411 
       0.533884         206.412         120.465 
           0.54          203.42         117.631 
       0.546137          202.18         114.881 
       0.552299         198.569         112.201 
       0.558452         195.336         109.596 
       0.564573         192.004         107.067 
       0.570708         189.157           104.6 
       0.576825         186.764         102.216 
       0.582926         184.025         99.9166 
       0.589034          181.32         97.6926 
       0.595184         179.585         95.5294 
       0.601379         177.847         93.4245 
       0.607522         173.816          91.407 
       0.613639         173.375         89.4615 
       0.619772         169.514         87.5686 
       0.625918         168.008          85.724 
       0.632068         166.128         83.9258 
       0.638161         164.818         82.1903 
         0.6443         162.444         80.4889 
       0.650464         160.728         78.8294 
       0.656582         159.046          77.231 
       0.662703         156.554         75.6799 
       0.668861         154.718         74.1653 
       0.675024         153.026         72.6928 
       0.681124         151.923         71.2759 
       0.687237         149.257          69.894 
       0.693381         147.475         68.5418 
       0.699536         146.238         67.2228 
       0.705665         146.653         65.9441 
       0.711789         142.961         64.6996 
       0.717957         142.459         63.4789 
        0.72409           140.5         62.2965 
       0.730186         138.218         61.1515 
       0.736317         137.822         60.0294 
       0.742472         136.683         58.9315 
       0.748622         135.592         57.8624 
        0.75476         134.276         56.8225 
       0.760888         132.426         55.8101 
       0.767043         131.413         54.8187 
       0.773185         130.057         53.8537 
       0.779291         128.652         52.9176 
       0.785407         127.817         52.0026 
       0.791564         126.448         51.1036 
       0.797719         124.818         50.2264 
       0.803834         124.305         49.3754 
       0.809972           122.5         48.5412 
       0.816124         122.179         47.7245 
       0.822261         120.938          46.929 
       0.828378         119.826          46.154 
       0.834502          119.11          45.396 
       0.840667         117.773         44.6502 
       0.846816         116.685         43.9234 
       0.852925           115.6         43.2175 
       0.859047         114.304         42.5256 
       0.865192          113.95         41.8468 
       0.871341         112.853         41.1824 
       0.877463         111.591         40.5356 
       0.883569         110.812         39.9044 
       0.889708         110.191         39.2834 
       0.895864         109.212         38.6742 
       0.902008         108.402         38.0792 
       0.908149         107.768         37.4972 
       0.914301         106.585         36.9265 
       0.920448         105.964         36.3683 
       0.926574         105.225         35.8236 
       0.932687         104.684         35.2913 
       0.938823         103.166          34.768 
       0.944975         102.663         34.2542 
       0.951105         101.868         33.7526 
       0.957225          100.63          33.262 
       0.963368         100.307         32.7795 
       0.969511         99.8109         32.3066 
       0.975621         99.3161         31.8456 
       0.981748          98.371         31.3925 
       0.987916          97.577         30.9455 
        0.99406         97.0633         30.5088 
        1.00019         96.0049         30.0815 
        1.00632         95.6568         29.6627 
        1.01246         94.7494         29.2514 
        1.01859         93.6018         28.8486 
        1.02471         94.0224         28.4539 
        1.03085         92.9595         28.0652 
        1.03698         92.1926         27.6846 
        1.04314         91.3313         27.3096 
        1.04929         90.9407         26.9424 
        1.05541         90.2243         26.5834 
        1.06154         89.8761         26.2301 
        1.06769         89.2678         25.8828 
        1.07382         88.9143         25.5428 
        1.07993         88.3949         25.2098 
        1.08607         87.5877         24.8814 
        1.09222         87.1382         24.5585 
        1.09836         86.5213         24.2417 
        1.10449         85.9883         23.9309 
        1.11063         85.3848         23.6253 
        1.11677         84.8714         23.3251 
         1.1229         84.2944         23.0306 
        1.12903         83.3413         22.7411 
        1.13518         83.5679         22.4562 
        1.14131         82.9786         22.1764 
        1.14745         81.9918         21.9016 
        1.15359         81.7726         21.6314 
        1.15973         81.2432         21.3657 
        1.16584         80.6816         21.1056 
        1.17197         80.2079         20.8495 
        1.17811         79.8001         20.5969 
        1.18424         79.0603         20.3492 
        1.19038         78.7607         20.1048 
        1.19652         78.4217         19.8647 
        1.20267         77.8006         19.6284 
        1.20881         77.3777          19.396 
        1.21495         76.7893         19.1678 
        1.22108         76.3575         18.9433 
         1.2272         75.7993          18.723 
        1.23334         75.4923         18.5056 
        1.23949         75.1653         18.2912 
        1.24562         74.8283         18.0808 
        1.25174         74.3686          17.874 
        1.25789         73.9574         17.6699 
        1.26402         73.4441         17.4693 
        1.27014          72.802         17.2723 
        1.27628         72.6648         17.0778 
        1.28244          71.991         16.8859 
        1.28858         71.7017         16.6972 
        1.29471          71.473         16.5118 
        1.30084         70.9966         16.3294 
        1.30697         70.4621         16.1495 
        1.31312         70.0834         15.9721 
        1.31925         69.9503         15.7979 
        1.32537          69.507         15.6264 
        1.33151         68.9459         15.4569 
        1.33765         68.6993           15.29 
        1.34378         68.2835          15.126 
        1.34992         67.7838         14.9642 
        1.35606         67.4572         14.8044 
         1.3622         66.9741         14.6473 
        1.36833         66.8409         14.4928 
        1.37445         66.5063         14.3406 
        1.38059          66.009         14.1902 
        1.38675         65.6808         14.0415 
        1.39288         65.2903         13.8956 
        1.39901         65.0887         13.7518 
        1.40515         64.7439         13.6097 
         1.4113         64.4201         13.4698 
        1.41742         64.0242         13.3323 
        1.42355         63.6883         13.1964 
         1.4297         63.3162         13.0621 
        1.43585         63.0281         12.9297 
        1.44198         62.7859         12.7996 
        1.44809         62.3753         12.6716 
        1.45423         62.1811         12.5449 
        1.46036         61.8011         12.4201 
        1.46649         61.4438          12.297 
        1.47263          61.143         12.1754 
        1.47877         60.9669         12.0556 
        1.48491         60.6447         11.9372 
        1.49104         60.2141         11.8206 
        1.49718         59.8001         11.7055 
        1.50333         59.6315         11.5917 
        1.50947          59.264         11.4797 
         1.5156          58.999         11.3694 
        1.52172         58.7664         11.2605 
        1.52787         58.6023         11.1528 
          1.534         58.2356         11.0466 
        1.54013         57.8796         10.9419 
        1.54627         57.7148         10.8384 
        1.55241         57.3341         10.7363 
        1.55855         56.9484         10.6355 
        1.56467         56.5694         10.5364 
         1.5708         56.5336         10.4382 
        1.57695         56.2155         10.3412 
        1.58308         56.0034         10.2456 
        1.58922          55.845         10.1511 
        1.59535         55.5246         10.0579 
         1.6015            55.1         9.96571 
        1.60764         54.9963         9.87473 
        1.61376         54.6784         9.78513 
        1.61989         54.2239         9.69658 
        1.62604         54.1536         9.60892 
        1.63218         53.9342          9.5224 
        1.63831         53.6204         9.43715 
        1.64444         53.4245         9.35291 
        1.65059         52.9455          9.2695 
        1.65673         52.7871          9.1872 
        1.66285         52.6014         9.10613 
        1.66898         52.2558         9.02601 
        1.67512         52.0142          8.9467 
        1.68127         51.7073         8.86827 
         1.6874         51.6272         8.79096 
        1.69353         51.2649         8.71462 
        1.69967         51.0833           8.639 
        1.70581         50.9768         8.56432 
        1.71193         50.6049          8.4908 
        1.71806         50.2702         8.41799 
        1.72421         50.0994         8.34589 
        1.73035         49.8284         8.27471 
        1.73649         49.5511         8.20438 
        1.74262         49.4101         8.13493 
        1.74876         49.3304         8.06623 
        1.75489         48.9133         7.99847 
        1.76101         48.7586         7.93151 
        1.76715         48.4883         7.86522 
        1.77329          48.242         7.79961 
        1.77943         48.1205         7.73471 
        1.78557         47.9128         7.67065 
        1.79171         47.5793         7.60731 
        1.79785         47.3717         7.54466 
        1.80399         47.1899         7.48274 
        1.81012         47.0306         7.42159 
        1.81625         46.6429         7.36115 
        1.82239         46.5159          7.3013 
        1.82853         46.1704         7.24214 
        1.83466         46.0852          7.1837 
        1.84078         45.7142         7.12596 
        1.84692         45.5997         7.06876 
        1.85306         45.3907         7.01212 
         1.8592         45.1943         6.95619 
        1.86533           44.93          6.9009 
        1.87147         44.7966         6.84615 
        1.87761         44.6603         6.79197 
        1.88375         44.4112         6.73844 
        1.88988         44.3475         6.68554 
        1.89601         44.0041         6.63318 
        1.90215         43.8436         6.58134 
        1.90829         43.7288         6.53008 
        1.91442         43.4384         6.47937 
        1.92056         43.3017         6.42923 
         1.9267         42.9605         6.37958 
        1.93284         42.7502         6.33042 
        1.93897         42.6811         6.28187 
        1.94509         42.4305         6.23393 
        1.95123         42.2812         6.18638 
        1.95737         42.0574         6.13928 
        1.96349         41.8504          6.0928 
        1.96964         41.6262         6.04667 
        1.97578         41.5287         6.00099 
        1.98192         41.2925         5.95587 
        1.98805         41.1602         5.91122 
        1.99419         40.8525         5.86702 
        2.00033         40.6836         5.82325 
        2.00647         40.5572         5.77994 
         2.0126         40.3669         5.73714 
        2.01874         40.2246         5.69471 
        2.02488          40.103         5.65268 
        2.03101          39.826         5.61114 
        2.03714         39.6284         5.57006 
        2.04328         39.4409         5.52935 
        2.04941         39.2801         5.48907 
        2.05554          39.074         5.44922 
        2.06167         38.9575         5.40972 
        2.06781          38.771          5.3706 
        2.07396         38.5506         5.33181 
        2.08009         38.4438         5.29347 
        2.08622         38.2489         5.25555 
        2.09237         38.0865         5.21793 
        2.09851         37.8596         5.18067 
        2.10464         37.7867         5.14384 
        2.11077         37.5388         5.10741 
        2.11691         37.4472         5.07125 
        2.12305         37.2134         5.03544 
        2.12918         37.1582         5.00006 
        2.13531         36.9555         4.96501 
        2.14145         36.8291         4.93022 
         2.1476         36.5736         4.89573 
        2.15372         36.4203         4.86174 
        2.15985          36.324         4.82803 
        2.16599         36.2054         4.79455 
        2.17213          36.118         4.76143 
        2.17827         35.7444         4.72862 
         2.1844         35.6475         4.69615 
        2.19054         35.4848         4.66397 
        2.19666         35.3436         4.63215 
         2.2028         35.2395         4.60058 
        2.20893         35.0953          4.5693 
        2.21508         34.9147         4.53828 
        2.22122         34.7169         4.50753 
        2.22736         34.6002         4.47713 
        2.23349          34.471         4.44701 
        2.23962          34.285         4.41716 
        2.24577          34.099         4.38756 
         2.2519         33.9768         4.35826 
        2.25802         33.8833         4.32929 
        2.26417         33.7101         4.30049 
        2.27031         33.6032         4.27193 
        2.27644         33.4107         4.24371 
        2.28257         33.2976         4.21575 
        2.28872         33.1218         4.18799 
        2.29486         33.0086         4.16048 
        2.30099         32.9021         4.13328 
        2.30712         32.7549         4.10631 
        2.31326         32.6262         4.07953 
         2.3194         32.4793         4.05301 
        2.32553         32.3033         4.02676 
        2.33166         32.1486         4.00076 
         2.3378          32.048         3.97496 
        2.34394         31.8737         3.94937 
        2.35007         31.7335         3.92404 
        2.35619         31.6841         3.89897 
        2.36233         31.5345         3.87406 
        2.36848         31.3156         3.84931 
        2.37462         31.2338         3.82483 
        2.38075         31.0707         3.80059 
        2.38689         30.9719         3.77653 
        2.39303         30.8301         3.75269 
        2.39916         30.6683         3.72908 
        2.40529         30.5251         3.70567 
        2.41143         30.4364         3.68245 
        2.41757         30.2863         3.65942 
         2.4237         30.1752         3.63662 
        2.42983         30.0631         3.61402 
        2.43598         29.9225         3.59155 
        2.44211         29.8106         3.56932 
        2.44823         29.6385         3.54731 
        2.45437         29.5649         3.52544 
        2.46052         29.4133         3.50373 
        2.46665         29.3207         3.48224 
        2.47279         29.1815         3.46094 
        2.47892         29.0214          3.4398 
        2.48507         28.9177         3.41882 
         2.4912         28.8283         3.39805 
