# k  (h/Mpc)    P(k)  (Mpc/h)^3    P_linear(k)  (Mpc/h)^3
     0.00783031         10798.3         10871.3 
       0.013688         13754.6         14109.7 
       0.019231         14782.5         15017.3 
      0.0249154           14598         14635.9 
      0.0312784         13228.2         13423.5 
      0.0375637         11737.3           12010 
      0.0433917           10681           10819 
      0.0492413         9633.48         9854.51 
      0.0555754         8911.35         9063.92 
      0.0619321          8057.3         8450.91 
       0.067871          7677.5          7945.8 
      0.0738098         7228.11         7434.41 
      0.0800417         6673.25          6856.8 
      0.0862327         6056.73         6251.38 
      0.0921407         5526.93         5681.23 
      0.0982031         5075.43         5147.45 
       0.104506         4565.28         4681.47 
       0.110769         4236.13         4319.61 
       0.116806            4054         4055.41 
       0.122832         3806.38         3849.71 
       0.129052         3622.91         3667.03 
       0.135211         3512.06         3488.27 
       0.141259         3276.93         3299.02 
       0.147318          3043.4         3093.41 
       0.153489         2879.41         2876.38 
       0.159709         2758.58         2664.93 
       0.165845         2519.84         2477.54 
       0.171974         2453.39         2319.94 
       0.178125         2369.11         2192.77 
       0.184229         2191.79         2092.27 
        0.19034         2159.43         2008.43 
       0.196428         2100.03         1931.84 
       0.202534         1978.94         1854.04 
       0.208729         1941.37          1769.8 
       0.214876         1863.27         1680.94 
       0.220989         1765.12          1590.7 
       0.227147         1721.39         1502.82 
        0.23329         1655.95         1422.67 
       0.239377         1640.61         1353.37 
       0.245482         1564.22          1294.4 
       0.251667         1507.44         1243.76 
       0.257832         1488.53         1199.46 
       0.263955         1421.76         1158.36 
       0.270079         1386.39         1117.48 
        0.27624         1329.85         1075.21 
       0.282372         1313.09         1031.89 
        0.28843         1295.49          988.84 
       0.294538         1235.42         946.678 
       0.300721         1209.49         906.728 
        0.30691         1184.95         870.476 
       0.313033         1140.18         838.483 
       0.319153         1127.18         809.971 
       0.325316         1113.14           783.8 
        0.33145         1091.94         759.285 
       0.337538         1056.36          735.55 
       0.343633         1031.32         711.884 
       0.349808         1011.49         687.861 
       0.355968         993.142         664.092 
       0.362074         964.202         641.168 
       0.368217         961.046         619.178 
       0.374374         946.823         598.586 
       0.380519         914.048         579.554 
       0.386598         908.555         562.154 
       0.392688         889.103         545.885 
        0.39888         868.218         530.182 
       0.405048         854.365         515.099 
       0.411186         851.301          500.41 
       0.417313         848.193         485.972 
       0.423458         821.445         471.778 
       0.429607         799.649         457.944 
       0.435692         792.857         444.758 
       0.441815          779.05         432.115 
       0.447964         769.079         420.084 
       0.454126         759.281         408.677 
       0.460267         749.219         397.905 
       0.466387         738.883         387.646 
        0.47254         725.739         377.694 
       0.478662         715.813         368.083 
       0.484765         709.722         358.752 
       0.490885         701.668         349.618 
       0.497035         689.677         340.684 
       0.503198         689.073         332.022 
       0.509342         675.725         323.707 
       0.515458         663.314         315.755 
       0.521598         658.767         308.094 
       0.527764         645.631         300.716 
       0.533884         641.661         293.675 
           0.54         635.245         286.878 
       0.546137         625.789          280.26 
       0.552299         623.434         273.801 
       0.558452         616.082         267.534 
       0.564573         609.503         261.473 
       0.570708         604.981         255.573 
       0.576825         593.111         249.868 
       0.582926         590.845          244.36 
       0.589034         583.098         239.032 
       0.595184         577.944         233.849 
       0.601379          569.25         228.799 
       0.607522          561.11         223.945 
       0.613639          559.77          219.25 
       0.619772         556.854         214.674 
       0.625918         547.626         210.217 
       0.632068         543.786         205.879 
       0.638161         538.046           201.7 
         0.6443         533.141         197.604 
       0.650464         528.225         193.607 
       0.656582         524.026         189.752 
       0.662703         518.759         186.005 
       0.668861         513.103         182.343 
       0.675024         509.363         178.783 
       0.681124         502.893         175.357 
       0.687237         501.049         172.015 
       0.693381         494.323         168.744 
       0.699536         491.823          165.55 
       0.705665         487.046         162.451 
       0.711789         485.961         159.433 
       0.717957         478.568         156.471 
        0.72409          474.54         153.602 
       0.730186         475.881         150.824 
       0.736317          468.08         148.102 
       0.742472         463.047         145.438 
       0.748622         460.009         142.845 
        0.75476         456.986          140.32 
       0.760888          453.82         137.861 
       0.767043         450.968         135.452 
       0.773185          448.43         133.104 
       0.779291         442.162         130.826 
       0.785407         440.145         128.598 
       0.791564         436.508         126.408 
       0.797719         430.515          124.27 
       0.803834         433.086         122.196 
       0.809972         426.643         120.163 
       0.816124          422.73         118.172 
       0.822261         419.493         116.232 
       0.828378         418.063         114.342 
       0.834502         411.917         112.493 
       0.840667         411.996         110.673 
       0.846816         405.929         108.899 
       0.852925         406.124         107.176 
       0.859047         402.394         105.486 
       0.865192         400.865         103.827 
       0.871341         395.371         102.204 
       0.877463           392.7         100.622 
       0.883569         390.054         99.0783 
       0.889708         386.812         97.5592 
       0.895864         384.073         96.0683 
       0.902008         382.399          94.612 
       0.908149         379.373         93.1869 
       0.914301         377.576         91.7891 
       0.920448         374.531         90.4215 
       0.926574         372.493         89.0868 
       0.932687         370.157         87.7821 
       0.938823         366.302         86.4991 
       0.944975         365.047         85.2389 
       0.951105           362.2         84.0086 
       0.957225         357.603         82.8048 
       0.963368         358.304         81.6207 
       0.969511         351.931         80.4598 
       0.975621          352.36          79.328 
       0.981748          349.82         78.2152 
       0.987916          347.87         77.1168 
        0.99406         344.898         76.0438 
        1.00019         341.637         74.9935 
        1.00632         341.743         73.9642 
        1.01246         338.952         72.9527 
        1.01859         334.894         71.9619 
        1.02471         332.921         70.9909 
        1.03085         332.418         70.0345 
        1.03698         329.925         69.0979 
        1.04314         329.185         68.1745 
        1.04929          326.51         67.2702 
        1.05541         322.748         66.3861 
        1.06154         321.657         65.5158 
        1.06769         318.445         64.6599 
        1.07382         318.052         63.8222 
        1.07993         315.047         63.0013 
        1.08607         312.911         62.1916 
        1.09222         311.295         61.3953 
        1.09836         310.018          60.614 
        1.10449         307.755         59.8473 
        1.11063         304.975         59.0931 
        1.11677         302.798         58.3522 
         1.1229         301.782         57.6254 
        1.12903         300.128         56.9103 
        1.13518         297.692         56.2069 
        1.14131           297.1         55.5159 
        1.14745         293.104         54.8369 
        1.15359         291.273         54.1692 
        1.15973         290.419         53.5124 
        1.16584         289.128         52.8696 
        1.17197         286.826         52.2364 
        1.17811         284.441         51.6117 
        1.18424         282.919         50.9991 
        1.19038         281.502         50.3947 
        1.19652         278.512         49.8004 
        1.20267          278.28         49.2157 
        1.20881         276.108         48.6406 
        1.21495          275.17         48.0756 
        1.22108         273.225         47.5198 
         1.2272         270.147         46.9741 
        1.23334          269.35         46.4357 
        1.23949          268.39         45.9045 
        1.24562         266.513         45.3832 
        1.25174         264.691         44.8708 
        1.25789         262.537         44.3647 
        1.26402         262.391         43.8674 
        1.27014         260.965          43.379 
        1.27628         257.966         42.8965 
        1.28244         257.274         42.4205 
        1.28858         255.543         41.9524 
        1.29471         254.406         41.4924 
        1.30084         252.949         41.0398 
        1.30697          250.45         40.5933 
        1.31312         249.082         40.1527 
        1.31925         247.873         39.7202 
        1.32537         247.008         39.2945 
        1.33151         245.031         38.8735 
        1.33765         243.417         38.4589 
        1.34378         241.973         38.0513 
        1.34992         240.365         37.6493 
        1.35606         239.412         37.2522 
         1.3622         237.888         36.8617 
        1.36833         235.972         36.4776 
        1.37445         235.507         36.0993 
        1.38059         233.507         35.7252 
        1.38675         231.986         35.3555 
        1.39288         230.943         34.9926 
        1.39901         229.319         34.6349 
        1.40515         228.375         34.2814 
         1.4113         226.558         33.9331 
        1.41742         224.688         33.5909 
        1.42355           225.3         33.2528 
         1.4297         222.976         32.9184 
        1.43585         221.571         32.5887 
        1.44198         219.776         32.2648 
        1.44809         218.971         31.9459 
        1.45423         217.987         31.6302 
        1.46036         216.524         31.3194 
        1.46649         215.466         31.0126 
        1.47263         214.398         30.7097 
        1.47877         212.909         30.4109 
        1.48491         211.059         30.1157 
        1.49104         209.488         29.8251 
        1.49718         208.691          29.538 
        1.50333         207.293         29.2544 
        1.50947         206.549          28.975 
         1.5156         205.352         28.6997 
        1.52172         204.063          28.428 
        1.52787         202.908         28.1593 
          1.534         201.994         27.8943 
        1.54013         200.776         27.6331 
        1.54627         199.704         27.3748 
        1.55241         198.581         27.1197 
        1.55855         197.769         26.8683 
        1.56467         196.097         26.6207 
         1.5708         194.687         26.3756 
        1.57695         194.027         26.1332 
        1.58308         192.643         25.8944 
        1.58922         191.789         25.6584 
        1.59535         190.121         25.4255 
         1.6015         189.325         25.1951 
        1.60764         188.408         24.9677 
        1.61376         186.892         24.7438 
        1.61989         185.895         24.5224 
        1.62604         184.654         24.3032 
        1.63218         183.975         24.0869 
        1.63831         183.113         23.8737 
        1.64444         181.703          23.663 
        1.65059         180.934         23.4544 
        1.65673         179.583         23.2485 
        1.66285         178.898         23.0457 
        1.66898         177.716         22.8452 
        1.67512         176.755         22.6467 
        1.68127         175.731         22.4505 
         1.6874         174.731         22.2569 
        1.69353         174.035         22.0658 
        1.69967         172.601         21.8765 
        1.70581         172.155         21.6895 
        1.71193         170.644         21.5054 
        1.71806         169.665          21.323 
        1.72421         169.002         21.1424 
        1.73035          167.87         20.9641 
        1.73649         166.694         20.7879 
        1.74262         166.071         20.6139 
        1.74876          165.21         20.4417 
        1.75489         164.241         20.2719 
        1.76101         162.998          20.104 
        1.76715         162.132         19.9379 
        1.77329         161.379         19.7734 
        1.77943         160.072         19.6107 
        1.78557         159.706           19.45 
        1.79171         158.749         19.2912 
        1.79785          157.65         19.1341 
        1.80399         156.742         18.9788 
        1.81012          155.55         18.8254 
        1.81625          155.25         18.6738 
        1.82239         153.943         18.5236 
        1.82853         153.485         18.3752 
        1.83466         152.227         18.2285 
        1.84078         151.724         18.0836 
        1.84692         151.113           17.94 
        1.85306         149.817         17.7978 
         1.8592         149.286         17.6574 
        1.86533         147.925         17.5186 
        1.87147         147.561         17.3811 
        1.87761         146.367          17.245 
        1.88375         145.448         17.1106 
        1.88988         144.861         16.9777 
        1.89601         144.459         16.8462 
        1.90215         143.713          16.716 
        1.90829         142.381         16.5872 
        1.91442         141.501         16.4597 
        1.92056         140.731         16.3337 
         1.9267         139.961         16.2089 
        1.93284         139.331         16.0854 
        1.93897         138.415         15.9633 
        1.94509         137.709         15.8428 
        1.95123         136.993         15.7233 
        1.95737         136.395         15.6048 
        1.96349         135.485         15.4879 
        1.96964         134.735         15.3719 
        1.97578         134.055          15.257 
        1.98192         133.343         15.1435 
        1.98805         132.612         15.0312 
        1.99419         131.626           14.92 
        2.00033         131.143         14.8098 
        2.00647         130.471         14.7008 
         2.0126          129.69         14.5931 
        2.01874         129.126         14.4863 
        2.02488         128.116         14.3805 
        2.03101         127.678          14.276 
        2.03714         126.727         14.1725 
        2.04328         126.212           14.07 
        2.04941         125.714         13.9686 
        2.05554         125.122         13.8683 
        2.06167         124.026         13.7688 
        2.06781           123.3         13.6703 
        2.07396         122.968         13.5726 
        2.08009         122.043          13.476 
        2.08622         121.427         13.3805 
        2.09237         120.589         13.2857 
        2.09851         120.224         13.1918 
        2.10464         119.506          13.099 
        2.11077         118.837         13.0072 
        2.11691          118.27          12.916 
        2.12305         117.601         12.8258 
        2.12918         116.926         12.7366 
        2.13531         116.451         12.6483 
        2.14145         115.591         12.5605 
         2.1476         114.907         12.4736 
        2.15372         114.362         12.3879 
        2.15985         113.699         12.3029 
        2.16599         112.958         12.2184 
        2.17213         112.548         12.1349 
        2.17827         111.757         12.0521 
         2.1844         111.539         11.9702 
        2.19054         110.637          11.889 
        2.19666         109.992         11.8087 
         2.2028         109.588         11.7291 
        2.20893         109.082         11.6502 
        2.21508         108.173         11.5719 
        2.22122         107.857         11.4943 
        2.22736         107.328         11.4175 
        2.23349         106.639         11.3415 
        2.23962         106.105         11.2662 
        2.24577         105.567         11.1914 
         2.2519         104.775         11.1175 
        2.25802         104.362         11.0443 
        2.26417         103.784         10.9716 
        2.27031         103.091         10.8995 
        2.27644         102.759         10.8282 
        2.28257          102.21         10.7576 
        2.28872         101.724         10.6874 
        2.29486         101.418          10.618 
        2.30099         100.414         10.5492 
        2.30712         100.215         10.4811 
        2.31326         99.6312         10.4134 
         2.3194         98.9391         10.3464 
        2.32553         98.3662         10.2801 
        2.33166         97.9313         10.2144 
         2.3378         97.6995         10.1491 
        2.34394         96.9497         10.0845 
        2.35007         96.1526         10.0204 
        2.35619         95.8176         9.95705 
        2.36233         95.4601         9.89406 
        2.36848         94.8118         9.83149 
        2.37462         94.3434         9.76959 
        2.38075         93.8848         9.70828 
        2.38689         93.5241         9.64745 
        2.39303         93.0427         9.58715 
        2.39916         92.5529         9.52743 
        2.40529         92.0331         9.46822 
        2.41143         91.6254         9.40948 
        2.41757          91.057          9.3512 
         2.4237          90.519         9.29353 
        2.42983         90.0654         9.23635 
        2.43598          89.842         9.17949 
        2.44211         89.1423         9.12322 
        2.44823         88.6961         9.06753 
        2.45437          88.378         9.01217 
        2.46052         87.8153         8.95721 
        2.46665         87.3126         8.90282 
        2.47279         86.9743         8.84889 
        2.47892         86.4389         8.79537 
        2.48507          86.123         8.74225 
         2.4912         85.4862         8.68967 
