# k  (h/Mpc)    P(k)  (Mpc/h)^3    P_linear(k)  (Mpc/h)^3
     0.00783031         1926.59         1949.69 
       0.013688         2515.61         2517.85 
       0.019231         2639.59         2640.91 
      0.0249154         2502.68         2523.55 
      0.0312784         2253.34         2259.92 
      0.0375637         1982.68         1979.75 
      0.0433917         1750.67         1758.75 
      0.0492413          1589.7         1590.56 
      0.0555754         1448.45         1460.93 
      0.0619321         1369.38         1363.99 
       0.067871         1273.16         1282.33 
      0.0738098          1185.5         1195.21 
      0.0800417         1079.36         1092.98 
      0.0862327         977.889         985.018 
      0.0921407         882.665         885.144 
      0.0982031         790.269         794.925 
       0.104506         724.713         720.103 
       0.110769         669.322         665.518 
       0.116806          626.86         627.891 
       0.122832         601.284         599.137 
       0.129052         569.213         572.236 
       0.135211         540.374         543.444 
       0.141259         511.888         511.041 
       0.147318          478.97         475.253 
       0.153489         439.927         438.117 
       0.159709         407.588         403.337 
       0.165845         383.271         374.121 
       0.171974         356.926         350.996 
       0.178125         340.011         333.359 
       0.184229         327.383         319.798 
        0.19034         310.597         308.124 
       0.196428         302.553         296.546 
       0.202534         292.578         283.814 
       0.208729         276.801         269.474 
       0.214876         260.185         254.371 
       0.220989         249.369         239.476 
       0.227147         232.916         225.615 
        0.23329          221.75          213.62 
       0.239377         213.711         203.758 
       0.245482         202.446         195.644 
       0.251667         198.401         188.676 
       0.257832         191.853         182.322 
       0.263955         185.235         176.029 
       0.270079         178.775         169.419 
        0.27624         174.036         162.422 
       0.282372         166.735         155.292 
        0.28843         159.393         148.399 
       0.294538         152.848           141.9 
       0.300721         149.037         135.992 
        0.30691         142.375          130.81 
       0.313033         138.216         126.314 
       0.319153         132.173         122.273 
       0.325316         130.156         118.448 
        0.33145          125.68         114.711 
       0.337538         122.837          110.97 
       0.343633         118.653         107.179 
       0.349808          115.11         103.348 
       0.355968         111.842         99.6269 
       0.362074         108.257          96.136 
       0.368217         105.202          92.876 
       0.374374         102.049         89.8867 
       0.380519         99.5558         87.1489 
       0.386598         96.9808          84.628 
       0.392688         95.1058         82.2291 
        0.39888         92.5063          79.857 
       0.405048         90.4392         77.5306 
       0.411186         88.4215         75.2436 
       0.417313         85.5984         72.9971 
       0.423458         83.5793         70.8111 
       0.429607         81.3686         68.7168 
       0.435692         78.8231         66.7507 
       0.441815         77.7883         64.8881 
       0.447964          76.546         63.1269 
       0.454126         73.5058         61.4515 
       0.460267         72.3437         59.8525 
       0.466387         70.4931         58.3123 
        0.47254         69.4901         56.8022 
       0.478662         68.3207         55.3324 
       0.484765         66.4587         53.9045 
       0.490885         65.0289         52.5153 
       0.497035         64.2004          51.167 
       0.503198         62.5622         49.8696 
       0.509342         61.0047         48.6332 
       0.515458         59.9252          47.456 
       0.521598         59.0392          46.321 
       0.527764         57.9105         45.2221 
       0.533884         56.9286         44.1668 
           0.54          55.848         43.1437 
       0.546137         55.0441         42.1444 
       0.552299         54.2321         41.1672 
       0.558452         52.6144         40.2196 
       0.564573         51.8598         39.3064 
       0.570708         51.1688         38.4221 
       0.576825         49.9932         37.5707 
       0.582926         49.1195           36.75 
       0.589034         47.9043         35.9552 
       0.595184         47.3499         35.1807 
       0.601379         46.6337         34.4247 
       0.607522         45.7114         33.6969 
       0.613639         45.4079         32.9921 
       0.619772          44.251         32.3041 
       0.625918         44.0731         31.6334 
       0.632068          43.364         30.9811 
       0.638161          42.562         30.3535 
         0.6443         41.7822           29.74 
       0.650464         41.1169         29.1425 
       0.656582           40.87         28.5666 
       0.662703         40.0944         28.0066 
       0.668861         39.4581         27.4586 
       0.675024         38.8343         26.9248 
       0.681124         38.1832         26.4105 
       0.687237         37.5829         25.9086 
       0.693381         37.3012         25.4175 
       0.699536         36.4218         24.9385 
       0.705665         36.3968          24.474 
       0.711789         35.6027          24.022 
       0.717957         35.1916         23.5785 
        0.72409         34.6901         23.1489 
       0.730186         34.2248         22.7327 
       0.736317         33.9271         22.3247 
       0.742472         33.3456         21.9254 
       0.748622         33.0579         21.5364 
        0.75476          32.516         21.1578 
       0.760888         32.1012          20.789 
       0.767043          31.761         20.4276 
       0.773185         31.2229         20.0758 
       0.779291         31.0832         19.7343 
       0.785407         30.7144         19.4004 
       0.791564         30.1777         19.0722 
       0.797719         29.6183         18.7518 
       0.803834         29.5771          18.441 
       0.809972         29.3067         18.1361 
       0.816124         28.6366         17.8376 
       0.822261         28.4854         17.5467 
       0.828378         28.1854         17.2632 
       0.834502         27.8968         16.9858 
       0.840667         27.5809         16.7129 
       0.846816         27.1383         16.4467 
       0.852925         26.9099         16.1881 
       0.859047         26.6137         15.9346 
       0.865192         26.3947         15.6858 
       0.871341          26.216         15.4422 
       0.877463         25.7411         15.2049 
       0.883569         25.4624         14.9733 
       0.889708         25.1529         14.7454 
       0.895864         24.9956         14.5217 
       0.902008         24.8018         14.3032 
       0.908149         24.5477         14.0893 
       0.914301         24.4037         13.8796 
       0.920448         23.9238         13.6743 
       0.926574         23.7772          13.474 
       0.932687         23.5465         13.2782 
       0.938823         23.2487         13.0856 
       0.944975         23.0223         12.8964 
       0.951105         22.8611         12.7117 
       0.957225         22.6269          12.531 
       0.963368         22.4424         12.3532 
       0.969511         22.2682         12.1789 
       0.975621         22.0859         12.0089 
       0.981748         21.8085         11.8418 
       0.987916         21.6841         11.6768 
        0.99406         21.4144         11.5157 
        1.00019         21.1367         11.3579 
        1.00632         21.1103         11.2033 
        1.01246         20.8928         11.0513 
        1.01859         20.6068         10.9025 
        1.02471         20.5417         10.7566 
        1.03085         20.3529         10.6129 
        1.03698         20.0525         10.4722 
        1.04314         19.9527         10.3334 
        1.04929          19.717         10.1975 
        1.05541         19.5355         10.0646 
        1.06154         19.4106         9.93381 
        1.06769         19.3177         9.80514 
        1.07382         19.0775          9.6792 
        1.07993         18.9869         9.55578 
        1.08607         18.7803         9.43403 
        1.09222         18.6541          9.3143 
        1.09836         18.4406         9.19681 
        1.10449         18.3459          9.0815 
        1.11063         18.1693         8.96807 
        1.11677         18.0948         8.85663 
         1.1229         17.9892          8.7473 
        1.12903          17.774         8.63974 
        1.13518         17.5799         8.53391 
        1.14131         17.5046         8.42994 
        1.14745         17.3762         8.32777 
        1.15359         17.2646         8.22729 
        1.15973         17.1246         8.12845 
        1.16584         16.8947         8.03169 
        1.17197         16.8464         7.93639 
        1.17811         16.7265         7.84235 
        1.18424         16.5875         7.75013 
        1.19038         16.5238         7.65914 
        1.19652         16.3623         7.56966 
        1.20267         16.2111         7.48163 
        1.20881          16.185         7.39502 
        1.21495         16.0577         7.30994 
        1.22108         15.8852         7.22622 
         1.2272         15.7747         7.14402 
        1.23334         15.6414         7.06293 
        1.23949         15.5233         6.98291 
        1.24562         15.4845         6.90437 
        1.25174         15.3721         6.82716 
        1.25789         15.2749         6.75091 
        1.26402         15.1979         6.67598 
        1.27014         15.0725         6.60237 
        1.27628         14.8929         6.52966 
        1.28244         14.8257         6.45792 
        1.28858         14.7996         6.38736 
        1.29471         14.6449         6.31802 
        1.30084          14.518         6.24979 
        1.30697         14.4878         6.18246 
        1.31312         14.3087         6.11604 
        1.31925         14.2281         6.05081 
        1.32537         14.1756          5.9866 
        1.33151         14.0793          5.9231 
        1.33765         13.9783         5.86057 
        1.34378         13.8864         5.79908 
        1.34992         13.7729         5.73843 
        1.35606         13.7259         5.67852 
         1.3622         13.6469         5.61959 
        1.36833         13.5418         5.56164 
        1.37445         13.4781         5.50454 
        1.38059          13.421         5.44808 
        1.38675         13.2906         5.39228 
        1.39288         13.2317          5.3375 
        1.39901          13.106          5.2835 
        1.40515         13.0641         5.23014 
         1.4113         12.9955         5.17754 
        1.41742         12.9107         5.12587 
        1.42355         12.8196         5.07482 
         1.4297         12.7403         5.02431 
        1.43585         12.7034         4.97452 
        1.44198         12.6318          4.9256 
        1.44809         12.5416         4.87743 
        1.45423         12.4579         4.82974 
        1.46036         12.3995         4.78277 
        1.46649         12.3326         4.73642 
        1.47263         12.2292         4.69065 
        1.47877         12.1751         4.64551 
        1.48491         12.1073          4.6009 
        1.49104         12.0456         4.55697 
        1.49718         11.9842         4.51358 
        1.50333         11.9204          4.4707 
        1.50947         11.8473         4.42846 
         1.5156         11.7788         4.38684 
        1.52172         11.7183         4.34575 
        1.52787         11.6414         4.30512 
          1.534         11.5779         4.26505 
        1.54013         11.5263         4.22554 
        1.54627         11.4379         4.18647 
        1.55241         11.4001         4.14788 
        1.55855         11.3515         4.10984 
        1.56467         11.2658         4.07239 
         1.5708         11.2461          4.0353 
        1.57695         11.1415         3.99862 
        1.58308         11.0918         3.96248 
        1.58922         11.0533         3.92677 
        1.59535          11.004         3.89152 
         1.6015         10.9233         3.85665 
        1.60764         10.8569         3.82223 
        1.61376         10.8381         3.78832 
        1.61989         10.7614         3.75481 
        1.62604         10.7096         3.72163 
        1.63218         10.6723         3.68887 
        1.63831         10.6272         3.65658 
        1.64444          10.566         3.62467 
        1.65059         10.4768         3.59307 
        1.65673          10.458         3.56189 
        1.66285         10.3598         3.53116 
        1.66898         10.3368         3.50079 
        1.67512         10.2913         3.47072 
        1.68127          10.233         3.44098 
         1.6874         10.1991         3.41165 
        1.69353         10.1348         3.38269 
        1.69967         10.0776           3.354 
        1.70581         10.0297         3.32565 
        1.71193         9.98671         3.29775 
        1.71806         9.96828          3.2701 
        1.72421         9.88329         3.24272 
        1.73035         9.86503         3.21569 
        1.73649         9.82025         3.18897 
        1.74262         9.75406         3.16258 
        1.74876         9.72349         3.13647 
        1.75489         9.68899         3.11071 
        1.76101         9.61199         3.08525 
        1.76715         9.59105         3.06004 
        1.77329         9.53752         3.03509 
        1.77943         9.47982          3.0104 
        1.78557         9.46732         2.98603 
        1.79171         9.41235         2.96193 
        1.79785         9.35925         2.93808 
        1.80399          9.3088         2.91451 
        1.81012         9.28267         2.89123 
        1.81625          9.2262         2.86822 
        1.82239         9.19831         2.84542 
        1.82853         9.14619         2.82288 
        1.83466          9.1133         2.80062 
        1.84078         9.05798         2.77861 
        1.84692         9.05403         2.75681 
        1.85306         8.98821         2.73522 
         1.8592         8.94237          2.7139 
        1.86533         8.91499         2.69281 
        1.87147         8.87631         2.67193 
        1.87761         8.83834         2.65126 
        1.88375         8.79848         2.63083 
        1.88988         8.76609         2.61065 
        1.89601         8.72906         2.59066 
        1.90215         8.69138         2.57087 
        1.90829         8.64934          2.5513 
        1.91442         8.61668         2.53193 
        1.92056         8.58071         2.51278 
         1.9267         8.53679         2.49381 
        1.93284         8.50136         2.47503 
        1.93897         8.46212         2.45648 
        1.94509         8.42886         2.43815 
        1.95123         8.38888         2.41997 
        1.95737         8.34787         2.40197 
        1.96349         8.32273         2.38419 
        1.96964         8.28881         2.36655 
        1.97578         8.24742         2.34907 
        1.98192         8.21932         2.33181 
        1.98805         8.19115         2.31472 
        1.99419          8.1575          2.2978 
        2.00033         8.13912         2.28105 
        2.00647          8.0938         2.26446 
         2.0126         8.06603         2.24807 
        2.01874         8.02177         2.23182 
        2.02488         7.99775         2.21572 
        2.03101         7.95261          2.1998 
        2.03714         7.92198         2.18406 
        2.04328         7.89135         2.16846 
        2.04941          7.8575         2.15302 
        2.05554          7.8254         2.13774 
        2.06167         7.79618         2.12259 
        2.06781          7.7733         2.10759 
        2.07396         7.75227         2.09271 
        2.08009          7.7095           2.078 
        2.08622         7.67106         2.06345 
        2.09237         7.66686         2.04902 
        2.09851         7.63485         2.03472 
        2.10464         7.59488         2.02058 
        2.11077          7.5509         2.00659 
        2.11691         7.52947          1.9927 
        2.12305         7.51073         1.97895 
        2.12918         7.48918         1.96536 
        2.13531         7.44742          1.9519 
        2.14145         7.42537         1.93853 
         2.1476         7.38458         1.92527 
        2.15372         7.36418         1.91221 
        2.15985         7.35623         1.89925 
        2.16599         7.30574         1.88638 
        2.17213         7.29257         1.87364 
        2.17827         7.26866         1.86102 
         2.1844         7.23097         1.84853 
        2.19054         7.20008         1.83615 
        2.19666         7.17461          1.8239 
         2.2028         7.14814         1.81176 
        2.20893         7.13373         1.79972 
        2.21508         7.09257         1.78777 
        2.22122         7.06596         1.77593 
        2.22736         7.04421         1.76423 
        2.23349         7.03523         1.75263 
        2.23962         6.99966         1.74113 
        2.24577         6.96494         1.72973 
         2.2519         6.95676         1.71844 
        2.25802         6.91669         1.70727 
        2.26417         6.89265         1.69618 
        2.27031         6.86854         1.68517 
        2.27644         6.84279         1.67429 
        2.28257         6.82324         1.66351 
        2.28872         6.80016          1.6528 
        2.29486          6.7735         1.64219 
        2.30099         6.75231          1.6317 
        2.30712         6.73028         1.62129 
        2.31326         6.68782         1.61096 
         2.3194         6.67886         1.60072 
        2.32553         6.65694         1.59059 
        2.33166         6.63751         1.58055 
         2.3378         6.61269         1.57059 
        2.34394         6.58697         1.56071 
        2.35007         6.55292         1.55092 
        2.35619         6.54374         1.54124 
        2.36233         6.52088         1.53161 
        2.36848         6.49283         1.52205 
        2.37462         6.47579         1.51259 
        2.38075         6.45874         1.50322 
        2.38689         6.42805         1.49392 
        2.39303         6.40603          1.4847 
        2.39916         6.38836         1.47557 
        2.40529         6.36229         1.46652 
        2.41143         6.34627         1.45754 
        2.41757         6.33428         1.44863 
         2.4237         6.31082         1.43981 
        2.42983         6.27191         1.43107 
        2.43598          6.2672         1.42237 
        2.44211         6.24125         1.41376 
        2.44823         6.22188         1.40525 
        2.45437         6.19397         1.39678 
        2.46052         6.17316         1.38837 
        2.46665         6.15813         1.38005 
        2.47279         6.13488          1.3718 
        2.47892         6.11259         1.36361 
        2.48507         6.10112         1.35548 
         2.4912         6.06926         1.34743 
