# k  (h/Mpc)    P(k)  (Mpc/h)^3    P_linear(k)  (Mpc/h)^3
     0.00783031         3273.38         3315.95 
       0.013688         4283.54          4281.3 
       0.019231         4488.39         4490.05 
      0.0249154         4244.56         4290.22 
      0.0312784         3824.63         3841.85 
      0.0375637         3368.32         3365.46 
      0.0433917         2967.43         2989.72 
      0.0492413          2697.8         2703.76 
      0.0555754         2451.11         2483.38 
      0.0619321         2326.08         2318.57 
       0.067871         2155.06         2179.75 
      0.0738098         2006.39         2031.64 
      0.0800417          1823.8         1857.87 
      0.0862327         1654.81         1674.34 
      0.0921407         1496.81         1504.57 
      0.0982031         1339.27         1351.21 
       0.104506         1233.19         1224.03 
       0.110769          1138.9         1131.24 
       0.116806         1065.86         1067.28 
       0.122832          1022.8         1018.41 
       0.129052         965.357         972.678 
       0.135211          917.04         923.737 
       0.141259         870.729         868.658 
       0.147318         815.843         807.825 
       0.153489         748.819         744.702 
       0.159709          696.54         685.583 
       0.165845         657.528         635.923 
       0.171974         612.935         596.614 
       0.178125         584.099         566.635 
       0.184229          562.69         543.584 
        0.19034         531.528          523.74 
       0.196428         519.969          504.06 
       0.202534         503.502         482.419 
       0.208729         476.793         458.044 
       0.214876         448.601         432.372 
       0.220989         431.623         407.055 
       0.227147          403.95         383.494 
        0.23329         385.589         363.105 
       0.239377         373.468         346.341 
       0.245482         351.798         332.549 
       0.251667         346.381         320.706 
       0.257832         335.279         309.906 
       0.263955         323.778         299.208 
       0.270079         312.675         287.974 
        0.27624         305.954         276.079 
       0.282372         293.171          263.96 
        0.28843         281.491         252.243 
       0.294538         269.686         241.196 
       0.300721         264.811         231.154 
        0.30691         252.803         222.346 
       0.313033         246.191         214.704 
       0.319153         235.946         207.836 
       0.325316         231.447         201.335 
        0.33145         223.821         194.983 
       0.337538         219.957         188.623 
       0.343633          212.67         182.178 
       0.349808         206.269         175.667 
       0.355968         201.589         169.342 
       0.362074         195.606         163.409 
       0.368217         190.372         157.867 
       0.374374         184.828         152.786 
       0.380519         180.722         148.133 
       0.386598         176.145         143.848 
       0.392688         173.302          139.77 
        0.39888         168.809         135.738 
       0.405048         165.188         131.784 
       0.411186         161.599         127.896 
       0.417313         157.345         124.078 
       0.423458         153.986         120.362 
       0.429607         150.134         116.802 
       0.435692         145.399          113.46 
       0.441815         144.234         110.294 
       0.447964         141.946         107.301 
       0.454126         135.955         104.453 
       0.460267         134.271         101.735 
       0.466387         131.752         99.1171 
        0.47254         129.613         96.5502 
       0.478662         127.816         94.0519 
       0.484765         124.484         91.6249 
       0.490885         122.211         89.2635 
       0.497035          120.68         86.9718 
       0.503198         117.499         84.7665 
       0.509342         115.045         82.6649 
       0.515458         113.386          80.664 
       0.521598         111.968         78.7348 
       0.527764         110.118         76.8669 
       0.533884          108.24         75.0732 
           0.54         106.386          73.334 
       0.546137         105.297         71.6354 
       0.552299         103.781         69.9744 
       0.558452         101.119         68.3637 
       0.564573         99.3667         66.8116 
       0.570708         98.3449         65.3085 
       0.576825         96.5855         63.8612 
       0.582926         94.8878         62.4662 
       0.589034         92.8872         61.1153 
       0.595184         91.9316         59.7988 
       0.601379         90.9019         58.5138 
       0.607522         88.7076         57.2767 
       0.613639         88.5709         56.0787 
       0.619772         86.4082         54.9093 
       0.625918         85.8874         53.7692 
       0.632068         84.7235         52.6604 
       0.638161         83.5231         51.5937 
         0.6443         82.3005          50.551 
       0.650464         81.1525         49.5354 
       0.656582         80.4252         48.5564 
       0.662703         78.8404         47.6045 
       0.668861         78.0251         46.6731 
       0.675024         77.0024         45.7657 
       0.681124         75.8591         44.8915 
       0.687237         74.6416         44.0385 
       0.693381         74.0406         43.2038 
       0.699536         72.7737         42.3895 
       0.705665         73.1053            41.6 
       0.711789         71.2028         40.8317 
       0.717957         70.6689         40.0778 
        0.72409          69.685         39.3475 
       0.730186         68.6194         38.6402 
       0.736317          68.384         37.9467 
       0.742472         67.3054         37.2679 
       0.748622         66.8247         36.6067 
        0.75476         65.9874         35.9632 
       0.760888         65.0854         35.3363 
       0.767043          64.449         34.7221 
       0.773185         63.6201          34.124 
       0.779291         63.3144         33.5436 
       0.785407         62.7002          32.976 
       0.791564         61.7098         32.4181 
       0.797719         60.7985         31.8736 
       0.803834         60.6777         31.3452 
       0.809972         59.7619         30.8271 
       0.816124         58.8956         30.3197 
       0.822261         58.6271         29.8252 
       0.828378         58.1202         29.3433 
       0.834502         57.4446         28.8719 
       0.840667         56.9979         28.4079 
       0.846816         56.2404         27.9555 
       0.852925         55.7642          27.516 
       0.859047         55.0461         27.0851 
       0.865192         54.7954         26.6621 
       0.871341         54.4947          26.248 
       0.877463         53.4202         25.8447 
       0.883569         53.0932         25.4511 
       0.889708         52.7797         25.0637 
       0.895864         52.2917         24.6834 
       0.902008         51.8672          24.312 
       0.908149         51.4277         23.9485 
       0.914301          51.151          23.592 
       0.920448         50.3422         23.2431 
       0.926574         50.1047         22.9026 
       0.932687         49.6232         22.5697 
       0.938823          48.954         22.2424 
       0.944975         48.8049         21.9208 
       0.951105         48.3691         21.6068 
       0.957225          47.791         21.2996 
       0.963368         47.6233         20.9974 
       0.969511         47.2736         20.7012 
       0.975621         46.9016         20.4123 
       0.981748         46.3177         20.1282 
       0.987916         46.1244         19.8478 
        0.99406         45.7783         19.5739 
        1.00019          45.189         19.3057 
        1.00632         45.0311         19.0429 
        1.01246         44.6599         18.7846 
        1.01859         44.1451         18.5316 
        1.02471         44.1637         18.2836 
        1.03085         43.7074         18.0394 
        1.03698         43.1487         17.8002 
        1.04314         42.8052         17.5643 
        1.04929         42.6111         17.3333 
        1.05541         42.1486         17.1075 
        1.06154         42.0327         16.8851 
        1.06769         41.6915         16.6664 
        1.07382         41.3789         16.4523 
        1.07993         41.2491         16.2425 
        1.08607         40.7306         16.0356 
        1.09222         40.5974         15.8321 
        1.09836         40.1624         15.6324 
        1.10449         39.9977         15.4364 
        1.11063          39.474         15.2436 
        1.11677         39.3552         15.0542 
         1.1229         39.2314         14.8683 
        1.12903         38.7093         14.6855 
        1.13518         38.5102         14.5056 
        1.14131          38.448         14.3289 
        1.14745          38.075         14.1552 
        1.15359         37.9218         13.9844 
        1.15973         37.4968         13.8164 
        1.16584          37.183          13.652 
        1.17197         37.2359           13.49 
        1.17811         36.7587         13.3301 
        1.18424         36.4573         13.1734 
        1.19038         36.4255         13.0187 
        1.19652         36.1775         12.8666 
        1.20267         35.9286          12.717 
        1.20881          35.695         12.5698 
        1.21495         35.4336         12.4251 
        1.22108         35.2047         12.2828 
         1.2272         34.8437         12.1431 
        1.23334          34.735         12.0053 
        1.23949         34.5061         11.8693 
        1.24562         34.4001         11.7358 
        1.25174         34.2004         11.6045 
        1.25789         33.9841         11.4749 
        1.26402         33.8123         11.3476 
        1.27014         33.4844         11.2225 
        1.27628          33.271         11.0989 
        1.28244         33.1544         10.9769 
        1.28858         33.0124          10.857 
        1.29471         32.7616         10.7391 
        1.30084         32.5667         10.6231 
        1.30697         32.3454         10.5087 
        1.31312         32.0743         10.3958 
        1.31925         31.9689         10.2849 
        1.32537         31.8544         10.1758 
        1.33151         31.5893         10.0679 
        1.33765          31.517         9.96157 
        1.34378         31.3802         9.85704 
        1.34992         30.9354         9.75396 
        1.35606         30.8914         9.65213 
         1.3622         30.7197         9.55196 
        1.36833         30.5403         9.45346 
        1.37445         30.4968         9.35641 
        1.38059         30.3183         9.26043 
        1.38675         30.0154         9.16559 
        1.39288         29.9472         9.07246 
        1.39901         29.6982         8.98069 
        1.40515          29.588         8.88998 
         1.4113         29.4403         8.80058 
        1.41742         29.1662         8.71275 
        1.42355         29.1358         8.62597 
         1.4297         28.9443         8.54012 
        1.43585          28.891         8.45549 
        1.44198         28.5844         8.37233 
        1.44809         28.5167         8.29046 
        1.45423         28.3915         8.20939 
        1.46036         28.2927         8.12956 
        1.46649         28.0982         8.05078 
        1.47263         27.9173         7.97298 
        1.47877          27.803         7.89625 
        1.48491         27.6462         7.82042 
        1.49104         27.6064         7.74575 
        1.49718         27.3468         7.67201 
        1.50333          27.264         7.59912 
        1.50947         27.1638         7.52732 
         1.5156         26.9475         7.45657 
        1.52172         26.7507         7.38674 
        1.52787         26.7466         7.31767 
          1.534         26.5616         7.24957 
        1.54013         26.3609         7.18241 
        1.54627         26.3111         7.11599 
        1.55241          26.129         7.05041 
        1.55855         26.0283         6.98575 
        1.56467         25.9419         6.92208 
         1.5708         25.8202         6.85904 
        1.57695         25.5712         6.79669 
        1.58308         25.6087         6.73527 
        1.58922          25.433         6.67457 
        1.59535         25.2731         6.61464 
         1.6015         25.1605         6.55538 
        1.60764         25.1069         6.49687 
        1.61376         24.9778         6.43924 
        1.61989         24.7421         6.38227 
        1.62604          24.741         6.32587 
        1.63218         24.5629         6.27019 
        1.63831         24.5042         6.21531 
        1.64444         24.3284         6.16108 
        1.65059         24.2305         6.10737 
        1.65673          24.148         6.05436 
        1.66285         24.0059         6.00213 
        1.66898          23.926          5.9505 
        1.67512         23.8262         5.89939 
        1.68127          23.652         5.84884 
         1.6874          23.566         5.79899 
        1.69353         23.5394         5.74977 
        1.69967         23.3309           5.701 
        1.70581         23.2229         5.65282 
        1.71193          23.102         5.60538 
        1.71806         23.0582         5.55839 
        1.72421         22.9397         5.51185 
        1.73035         22.8737          5.4659 
        1.73649         22.7121         5.42048 
        1.74262         22.6816         5.37562 
        1.74876         22.5398         5.33124 
        1.75489         22.4449         5.28746 
        1.76101         22.3465         5.24418 
        1.76715         22.3102         5.20134 
        1.77329         22.1878         5.15892 
        1.77943         22.0558         5.11696 
        1.78557         21.9645         5.07553 
        1.79171         21.9102         5.03456 
        1.79785         21.7707         4.99404 
        1.80399         21.6909         4.95397 
        1.81012         21.6099          4.9144 
        1.81625         21.5007         4.87528 
        1.82239          21.448         4.83653 
        1.82853         21.2751         4.79823 
        1.83466         21.2142         4.76038 
        1.84078         21.0642         4.72298 
        1.84692         21.0537         4.68592 
        1.85306         20.9312         4.64922 
         1.8592         20.8737         4.61297 
        1.86533          20.779         4.57713 
        1.87147         20.6835         4.54164 
        1.87761         20.6354          4.5065 
        1.88375         20.4795         4.47178 
        1.88988          20.455         4.43747 
        1.89601         20.3557          4.4035 
        1.90215         20.2468         4.36986 
        1.90829         20.2011          4.3366 
        1.91442         20.0945         4.30367 
        1.92056         20.0282         4.27113 
         1.9267         19.9534         4.23888 
        1.93284         19.8402         4.20696 
        1.93897         19.7574         4.17542 
        1.94509         19.6905         4.14428 
        1.95123         19.6016         4.11338 
        1.95737         19.5088         4.08277 
        1.96349         19.4437         4.05255 
        1.96964          19.356         4.02256 
        1.97578         19.2963         3.99286 
        1.98192         19.1772         3.96352 
        1.98805         19.1346         3.93447 
        1.99419         19.0407         3.90571 
        2.00033         18.9689         3.87723 
        2.00647         18.9286         3.84904 
         2.0126         18.7619         3.82119 
        2.01874         18.7228         3.79356 
        2.02488         18.6388         3.76619 
        2.03101         18.6336         3.73914 
        2.03714         18.5279         3.71238 
        2.04328         18.4245         3.68585 
        2.04941         18.3544         3.65961 
        2.05554         18.3432         3.63364 
        2.06167         18.2501          3.6079 
        2.06781         18.1693         3.58239 
        2.07396         18.0917         3.55711 
        2.08009         18.0219          3.5321 
        2.08622         17.9442         3.50737 
        2.09237         17.8823         3.48283 
        2.09851         17.8025         3.45853 
        2.10464          17.734         3.43449 
        2.11077         17.6661         3.41072 
        2.11691         17.5976         3.38712 
        2.12305         17.5116         3.36374 
        2.12918         17.4605         3.34064 
        2.13531         17.3989         3.31775 
        2.14145         17.3168         3.29503 
         2.1476         17.2599          3.2725 
        2.15372           17.21         3.25029 
        2.15985         17.1081         3.22827 
        2.16599         17.0703         3.20638 
        2.17213         17.0271         3.18473 
        2.17827         16.9587         3.16328 
         2.1844         16.8897         3.14205 
        2.19054         16.7979         3.12101 
        2.19666         16.7534          3.1002 
         2.2028         16.6896         3.07955 
        2.20893         16.6177         3.05908 
        2.21508         16.5707         3.03878 
        2.22122         16.4701         3.01866 
        2.22736         16.4188         2.99876 
        2.23349          16.349         2.97905 
        2.23962         16.3161          2.9595 
        2.24577         16.2287         2.94012 
         2.2519         16.1912         2.92094 
        2.25802         16.1304         2.90195 
        2.26417         16.0678         2.88309 
        2.27031         16.0161         2.86438 
        2.27644         15.9537         2.84589 
        2.28257         15.8994         2.82756 
        2.28872         15.8202         2.80936 
        2.29486         15.7982         2.79133 
        2.30099          15.735         2.77349 
        2.30712         15.6778          2.7558 
        2.31326          15.618         2.73824 
         2.3194         15.5156         2.72084 
        2.32553         15.5042         2.70362 
        2.33166         15.3991         2.68656 
         2.3378         15.3721         2.66962 
        2.34394         15.3023         2.65282 
        2.35007         15.2281          2.6362 
        2.35619         15.1975         2.61973 
        2.36233         15.1321         2.60337 
        2.36848          15.116         2.58712 
        2.37462         15.0577         2.57104 
        2.38075          14.972         2.55511 
        2.38689         14.9341         2.53931 
        2.39303         14.8879         2.52364 
        2.39916         14.8236         2.50812 
        2.40529         14.7855         2.49273 
        2.41143         14.7136         2.47747 
        2.41757         14.6837         2.46232 
         2.4237         14.5947         2.44733 
        2.42983         14.5708         2.43247 
        2.43598         14.5115         2.41769 
        2.44211         14.4363         2.40306 
        2.44823          14.399         2.38858 
        2.45437         14.3679         2.37419 
        2.46052         14.3227          2.3599 
        2.46665         14.2451         2.34575 
        2.47279         14.2081         2.33173 
        2.47892           14.15         2.31781 
        2.48507         14.1064         2.30399 
         2.4912         14.0671         2.29031 
