#  k  (h/Mpc)          P(k)  (Mpc/h)^3     P_linear(k) (Mpc/h)^3
     0.00783031         5759.85         5823.66 
       0.013688         7809.15         7776.61 
       0.019231         8416.23         8416.86 
      0.0249154         8167.94          8291.6 
      0.0312784         7584.84         7651.45 
      0.0375637         6837.15         6855.62 
      0.0433917          6073.6         6169.38 
      0.0492413         5565.53         5611.89 
      0.0555754         5037.39         5163.71 
      0.0619321         4819.09         4832.17 
       0.067871         4463.62         4572.04 
      0.0738098         4200.72         4311.73 
      0.0800417         3864.78          4009.3 
      0.0862327         3573.23         3677.35 
      0.0921407         3284.23         3350.23 
      0.0982031         2959.05          3031.9 
       0.104506         2741.31         2745.58 
       0.110769         2518.37          2520.1 
       0.116806         2340.34         2357.77 
       0.122832         2235.55         2238.06 
       0.129052         2102.64         2140.69 
       0.135211         2015.28         2051.57 
       0.141259         1942.05         1957.22 
       0.147318         1847.08          1849.8 
       0.153489         1711.99         1729.03 
       0.159709         1613.51          1603.8 
       0.165845         1534.82         1486.83 
       0.171974         1429.07         1384.76 
       0.178125         1352.77         1301.31 
       0.184229         1297.74            1237 
        0.19034         1218.99         1187.12 
       0.196428         1202.08         1145.91 
       0.202534          1170.2         1106.91 
       0.208729         1120.62         1064.84 
       0.214876          1066.7         1018.31 
       0.220989          1038.1         967.778 
       0.227147         978.872         915.168 
        0.23329         937.818         864.395 
       0.239377         914.886         818.761 
       0.245482         855.139         779.444 
       0.251667         846.032          746.52 
       0.257832         817.527         719.505 
       0.263955         792.565         696.443 
       0.270079         768.861         674.962 
        0.27624         761.164          653.09 
       0.282372         729.987         630.032 
        0.28843         712.647         605.873 
       0.294538         680.873          580.76 
       0.300721          676.28         555.702 
        0.30691         645.555         532.088 
       0.313033         632.274         511.006 
       0.319153         612.353         492.473 
       0.325316         595.374         476.217 
        0.33145         579.593         461.825 
       0.337538         573.694         448.597 
       0.343633         556.344         435.697 
       0.349808          540.11         422.514 
       0.355968         534.811         409.035 
       0.362074         523.464         395.468 
       0.368217         510.014         381.923 
       0.374374         492.231         368.809 
       0.380519         486.007          356.54 
       0.386598         475.433         345.363 
       0.392688         472.085         335.154 
        0.39888         459.184         325.656 
       0.405048          451.09         316.823 
       0.411186         442.178         308.423 
       0.417313         434.744         300.204 
       0.423458         427.619         291.992 
       0.429607         418.268         283.811 
       0.435692          408.43         275.793 
       0.441815         406.201          267.91 
       0.447964         398.959         260.313 
       0.454126         384.919         253.105 
       0.460267         381.089         246.344 
       0.466387         376.874         240.029 
        0.47254         369.512         234.037 
       0.478662         367.653         228.335 
       0.484765         358.317          222.83 
       0.490885         353.908         217.442 
       0.497035         348.772         212.116 
       0.503198         341.181         206.864 
       0.509342         338.468         201.743 
       0.515458         334.501           196.8 
       0.521598         329.956          192.02 
       0.527764         324.279         187.415 
       0.533884         320.749         183.048 
           0.54         316.747         178.882 
       0.546137         315.512         174.871 
       0.552299         309.771         170.978 
       0.558452          305.91         167.199 
       0.564573         300.935         163.532 
       0.570708         296.511         159.945 
       0.576825         292.992         156.452 
       0.582926         290.055         153.055 
       0.589034         286.052         149.747 
       0.595184         283.841         146.522 
       0.601379         281.472          143.39 
       0.607522         275.937         140.396 
       0.613639         275.231         137.514 
       0.619772          268.87         134.714 
       0.625918         267.277         131.987 
       0.632068         264.211         129.331 
       0.638161         263.044         126.769 
         0.6443         258.736         124.253 
       0.650464         256.614         121.791 
       0.656582         255.083         119.408 
       0.662703         251.648         117.087 
       0.668861         248.478         114.815 
       0.675024         246.029         112.605 
       0.681124         245.049         110.482 
       0.687237         241.156         108.417 
       0.693381         238.191         106.399 
       0.699536         236.643         104.431 
       0.705665         236.617         102.521 
       0.711789          231.99         100.658 
       0.717957         231.008         98.8254 
        0.72409         228.375          97.047 
       0.730186         225.089         95.3224 
       0.736317           224.1         93.6306 
       0.742472         222.851         91.9752 
       0.748622         221.455         90.3636 
        0.75476         219.511         88.7963 
       0.760888         216.647         87.2702 
       0.767043         215.318          85.775 
       0.773185         213.208         84.3186 
       0.779291         210.313         82.9045 
       0.785407         209.571         81.5204 
       0.791564         207.685         80.1589 
       0.797719         205.363          78.829 
       0.803834         204.622         77.5377 
       0.809972         202.157         76.2709 
       0.816124         202.261           75.03 
       0.822261         199.529         73.8207 
       0.828378         197.995         72.6423 
       0.834502         197.568         71.4893 
       0.840667         194.772         70.3545 
       0.846816         193.867         69.2481 
       0.852925         191.948         68.1729 
       0.859047         190.389         67.1186 
       0.865192         189.674         66.0835 
       0.871341         187.595         65.0697 
       0.877463         186.452         64.0819 
       0.883569         184.749         63.1173 
       0.889708         183.878         62.1677 
       0.895864         182.097         61.2354 
       0.902008          181.16         60.3244 
       0.908149         180.243         59.4326 
       0.914301         178.278         58.5576 
       0.920448         177.388         57.7013 
       0.926574         176.443         56.8653 
       0.932687         175.226         56.0479 
       0.938823         173.376         55.2438 
       0.944975         172.398         54.4539 
       0.951105         171.333         53.6825 
       0.957225         169.282         52.9275 
       0.963368         168.511         52.1846 
       0.969511         167.748         51.4562 
       0.975621         167.026         50.7458 
       0.981748         166.107         50.0471 
       0.987916         164.227         49.3573 
        0.99406         163.789         48.6832 
        1.00019         162.463         48.0232 
        1.00632         161.462         47.3762 
        1.01246         160.353         46.7403 
        1.01859         158.683         46.1172 
        1.02471         159.023         45.5063 
        1.03085         157.446         44.9046 
        1.03698         155.919         44.3151 
        1.04314         155.069         43.7338 
        1.04929         154.214         43.1644 
        1.05541         153.364         42.6075 
        1.06154         152.344         42.0592 
        1.06769         151.971         41.5198 
        1.07382         151.234         40.9917 
        1.07993         150.207         40.4742 
        1.08607         148.953         39.9635 
        1.09222         148.178         39.4612 
        1.09836         147.091         38.9682 
        1.10449         146.286         38.4843 
        1.11063         145.501         38.0082 
        1.11677         144.833         37.5404 
         1.1229         143.538         37.0814 
        1.12903         142.552         36.6297 
        1.13518         142.697         36.1852 
        1.14131         141.347         35.7485 
        1.14745         140.384         35.3192 
        1.15359         139.631          34.897 
        1.15973         139.277         34.4816 
        1.16584         138.192         34.0749 
        1.17197         137.357         33.6743 
        1.17811         136.711         33.2789 
        1.18424         135.592         32.8911 
        1.19038         135.069         32.5084 
        1.19652         134.413          32.132 
        1.20267         133.409         31.7616 
        1.20881         132.748         31.3972 
        1.21495         131.888         31.0391 
        1.22108         131.165         30.6868 
         1.2272         130.527         30.3407 
        1.23334         129.793         29.9993 
        1.23949         128.567         29.6624 
        1.24562         128.559         29.3316 
        1.25174         127.534         29.0064 
        1.25789         126.909         28.6852 
        1.26402         126.413         28.3694 
        1.27014         125.319         28.0593 
        1.27628         125.027         27.7529 
        1.28244         124.064         27.4505 
        1.28858         123.465          27.153 
        1.29471         122.743         26.8607 
        1.30084         122.085          26.573 
        1.30697         121.305         26.2891 
        1.31312         121.016          26.009 
        1.31925         120.411         25.7338 
        1.32537         119.896          25.463 
        1.33151         118.743         25.1951 
        1.33765         118.225         24.9312 
        1.34378         117.486         24.6717 
        1.34992         117.246         24.4158 
        1.35606         116.567         24.1629 
         1.3622         115.613         23.9141 
        1.36833         115.412         23.6695 
        1.37445          114.49         23.4284 
        1.38059         113.924           23.19 
        1.38675         113.377         22.9543 
        1.39288         112.693         22.7229 
        1.39901          112.49         22.4948 
        1.40515         111.989         22.2694 
         1.4113         110.792         22.0471 
        1.41742         110.606         21.8288 
        1.42355         109.847          21.613 
         1.4297          109.35         21.3995 
        1.43585         108.718         21.1891 
        1.44198          108.43         20.9822 
        1.44809         107.525         20.7786 
        1.45423         107.113         20.5769 
        1.46036          106.59         20.3783 
        1.46649         106.062         20.1823 
        1.47263         105.676         19.9887 
        1.47877         105.206         19.7977 
        1.48491         104.494          19.609 
        1.49104         103.925         19.4231 
        1.49718         103.486         19.2395 
        1.50333         102.854         19.0581 
        1.50947         102.124         18.8793 
         1.5156         102.062         18.7031 
        1.52172         101.296         18.5292 
        1.52787         101.075         18.3572 
          1.534          100.65         18.1875 
        1.54013         99.8237         18.0202 
        1.54627         99.3577         17.8548 
        1.55241         98.7688         17.6914 
        1.55855         98.3885         17.5302 
        1.56467         97.7566         17.3716 
         1.5708         97.3573         17.2145 
        1.57695         97.0553         17.0591 
        1.58308          96.387          16.906 
        1.58922          96.119         16.7546 
        1.59535         95.7095         16.6052 
         1.6015         95.0564         16.4575 
        1.60764         94.7943         16.3116 
        1.61376          94.153         16.1679 
        1.61989          93.711         16.0258 
        1.62604         93.1365         15.8851 
        1.63218         92.9969         15.7462 
        1.63831          92.437         15.6093 
        1.64444         92.0977          15.474 
        1.65059         91.2059           15.34 
        1.65673          91.035         15.2077 
        1.66285         90.6393         15.0774 
        1.66898         90.1588         14.9486 
        1.67512         89.5365          14.821 
        1.68127         89.1379         14.6948 
         1.6874         88.8129         14.5704 
        1.69353         88.4247         14.4475 
        1.69967         87.9114         14.3258 
        1.70581         87.6276         14.2055 
        1.71193         87.2329          14.087 
        1.71806         86.5549         13.9697 
        1.72421         86.4515         13.8535 
        1.73035         85.8077         13.7387 
        1.73649         85.4098         13.6252 
        1.74262         85.0811         13.5132 
        1.74876         84.7238         13.4023 
        1.75489         84.1417         13.2929 
        1.76101          83.907         13.1848 
        1.76715         83.3837         13.0778 
        1.77329         83.0622         12.9718 
        1.77943         82.7786         12.8669 
        1.78557         82.3727         12.7634 
        1.79171         81.8878          12.661 
        1.79785         81.6579         12.5597 
        1.80399         81.0533         12.4595 
        1.81012         80.8644         12.3606 
        1.81625          80.254         12.2628 
        1.82239          79.905         12.1659 
        1.82853         79.4832         12.0701 
        1.83466         79.1756         11.9755 
        1.84078         78.5797         11.8819 
        1.84692         78.4234         11.7893 
        1.85306         78.1091         11.6975 
         1.8592         77.5769         11.6068 
        1.86533         77.1693         11.5172 
        1.87147         76.8894         11.4284 
        1.87761         76.5323         11.3405 
        1.88375         76.4442         11.2536 
        1.88988         76.0499         11.1678 
        1.89601         75.4617         11.0828 
        1.90215         75.1891         10.9986 
        1.90829         74.9101         10.9153 
        1.91442         74.4198         10.8329 
        1.92056         74.1644         10.7515 
         1.9267         73.6707         10.6708 
        1.93284         73.2797         10.5908 
        1.93897         73.0517         10.5119 
        1.94509         72.5777         10.4339 
        1.95123         72.3951         10.3566 
        1.95737         72.1406         10.2799 
        1.96349         71.7633         10.2043 
        1.96964         71.4064         10.1292 
        1.97578         71.0162         10.0548 
        1.98192         70.8266         9.98132 
        1.98805         70.5401         9.90857 
        1.99419         70.1012         9.83655 
        2.00033         69.7344         9.76521 
        2.00647          69.506         9.69461 
         2.0126         69.0273         9.62482 
        2.01874         68.7328         9.55562 
        2.02488          68.534         9.48704 
        2.03101         68.1115         9.41926 
        2.03714         67.7537         9.35221 
        2.04328          67.463         9.28575 
        2.04941         67.1469         9.21999 
        2.05554         66.7746         9.15491 
        2.06167         66.6777         9.09038 
        2.06781         66.1931         9.02647 
        2.07396         65.8902         8.96308 
        2.08009         65.7221         8.90041 
        2.08622         65.2172         8.83842 
        2.09237         65.0419         8.77691 
        2.09851          64.645         8.71597 
        2.10464         64.3628         8.65571 
        2.11077          64.204          8.5961 
        2.11691         63.7614         8.53692 
        2.12305         63.4052          8.4783 
        2.12918         63.1462         8.42037 
        2.13531         62.9113         8.36298 
        2.14145         62.6182           8.306 
         2.1476         62.4639         8.24949 
        2.15372         62.0341         8.19378 
        2.15985         61.8277         8.13854 
        2.16599         61.5341         8.08365 
        2.17213         61.4043         8.02934 
        2.17827         60.9407         7.97553 
         2.1844         60.5236         7.92227 
        2.19054          60.366         7.86948 
        2.19666         60.1549         7.81725 
         2.2028         59.9221         7.76545 
        2.20893         59.6244         7.71409 
        2.21508         59.3994         7.66315 
        2.22122         59.0714         7.61265 
        2.22736         58.6909         7.56271 
        2.23349         58.5145         7.51324 
        2.23962         58.2339         7.46419 
        2.24577         57.9409         7.41553 
         2.2519         57.7186         7.36738 
        2.25802         57.5603         7.31973 
        2.26417         57.1117         7.27238 
        2.27031         56.8863          7.2254 
        2.27644         56.5698         7.17897 
        2.28257         56.4299         7.13296 
        2.28872         56.0086         7.08727 
        2.29486         55.8381         7.04199 
        2.30099         55.5899          6.9972 
        2.30712         55.3831         6.95278 
        2.31326         55.0877         6.90868 
         2.3194         54.8693         6.86498 
        2.32553         54.6221         6.82174 
        2.33166         54.3192         6.77888 
         2.3378         54.0584         6.73635 
        2.34394         53.7021         6.69416 
        2.35007         53.5775          6.6524 
        2.35619         53.4703         6.61104 
        2.36233         53.1626         6.56994 
        2.36848          52.842         6.52911 
        2.37462         52.6989         6.48871 
        2.38075         52.3391          6.4487 
        2.38689         52.1502         6.40899 
        2.39303          51.984         6.36963 
        2.39916         51.7781         6.33063 
        2.40529         51.4308         6.29197 
        2.41143         51.2013         6.25361 
        2.41757         50.9849         6.21555 
         2.4237         50.7943         6.17788 
        2.42983          50.507         6.14052 
        2.43598         50.3393         6.10338 
        2.44211         50.1641         6.06661 
        2.44823         49.8469         6.03022 
        2.45437         49.6227         5.99404 
        2.46052         49.3753         5.95812 
        2.46665         49.1863         5.92256 
        2.47279         49.0113         5.88731 
        2.47892          48.686         5.85232 
        2.48507         48.5064         5.81758 
         2.4912         48.2837         5.78319 
