# k  (h/Mpc)    P(k)  (Mpc/h)^3    P_linear(k)  (Mpc/h)^3
     0.00783031         906.344         914.298 
       0.013688         1116.38         1128.64 
       0.019231         1131.13         1136.38 
      0.0249154          1038.6         1038.42 
      0.0312784         882.159         882.424 
      0.0375637         735.001         735.967 
      0.0433917         631.901         630.163 
      0.0492413           556.4         556.312 
      0.0555754         506.983         505.071 
      0.0619321         467.741         470.598 
       0.067871         441.849         442.267 
      0.0738098         410.221         410.338 
      0.0800417         371.311         370.573 
      0.0862327         327.364           327.3 
      0.0921407         287.506         287.281 
      0.0982031          253.41         252.025 
       0.104506         224.237         224.262 
       0.110769          205.94         205.706 
       0.116806         195.726         194.444 
       0.122832         187.004         186.838 
       0.129052         180.333         179.715 
       0.135211         172.118          171.06 
       0.141259         160.518         160.104 
       0.147318         147.066          147.19 
       0.153489         134.018         133.493 
       0.159709         121.941         120.815 
       0.165845         110.813         110.605 
       0.171974         104.625          103.11 
       0.178125          99.349         98.0102 
       0.184229         95.3321          94.571 
        0.19034         93.0426         91.7696 
       0.196428         89.8218         88.7432 
       0.202534         85.1579         84.9354 
       0.208729          81.175         80.1985 
       0.214876          76.387         74.9538 
       0.220989         70.4874           69.73 
       0.227147         66.6115         64.9759 
        0.23329         62.8389         61.0726 
       0.239377         60.0166         58.1146 
       0.245482         57.6033         55.9131 
       0.251667         55.4779         54.1732 
       0.257832         54.3683          52.596 
       0.263955         52.1824         50.9052 
       0.270079          50.197         48.9453 
        0.27624          47.767         46.7095 
       0.282372         45.5328         44.3415 
        0.28843         43.7743         42.0432 
       0.294538         41.5702         39.9262 
       0.300721         39.4982         38.0964 
        0.30691         38.3494         36.5953 
       0.313033         36.9678         35.3828 
       0.319153         36.2516         34.3396 
       0.325316         34.7596          33.348 
        0.33145         33.6618         32.3271 
       0.337538         32.6429         31.2395 
       0.343633         31.6135         30.0758 
       0.349808         30.3343         28.8677 
       0.355968         29.1433         27.6888 
       0.362074         28.3043         26.6048 
       0.368217         27.2757           25.63 
       0.374374         26.5983         24.7764 
       0.380519         25.5811           24.03 
       0.386598         24.8176         23.3583 
       0.392688          24.102         22.7178 
        0.39888         23.5757         22.0674 
       0.405048         22.9498         21.4026 
       0.411186          22.241         20.7285 
       0.417313          21.556         20.0521 
       0.423458         20.8036         19.3909 
       0.429607          20.355         18.7664 
       0.435692         19.8726          18.194 
       0.441815         19.1552          17.666 
       0.447964         18.5651         17.1811 
       0.454126         18.2264         16.7271 
       0.460267          17.933         16.2926 
       0.466387         17.4098         15.8688 
        0.47254          17.063          15.446 
       0.478662         16.5551         15.0252 
       0.484765         16.1473         14.6106 
       0.490885         15.6605         14.2065 
       0.497035           15.26         13.8174 
       0.503198          14.955         13.4473 
       0.509342         14.5109         13.0995 
       0.515458         14.2702         12.7743 
       0.521598         13.9454         12.4643 
       0.527764         13.7084         12.1643 
       0.533884         13.2932         11.8739 
           0.54         13.0514         11.5898 
       0.546137         12.6674         11.3104 
       0.552299         12.4243         11.0354 
       0.558452         12.1394         10.7674 
       0.564573         11.9331         10.5093 
       0.570708         11.6598         10.2609 
       0.576825         11.4309         10.0246 
       0.582926         11.1797         9.79898 
       0.589034         10.9691         9.58151 
       0.595184         10.8081         9.36957 
       0.601379         10.5185         9.16208 
       0.607522         10.3119         8.96182 
       0.613639         10.0854         8.76757 
       0.619772         9.92756         8.57775 
       0.625918         9.71805         8.39231 
       0.632068         9.57497         8.21181 
       0.638161         9.37649         8.03825 
         0.6443         9.18967         7.86895 
       0.650464         8.97959         7.70484 
       0.656582         8.89044         7.54752 
       0.662703         8.74152         7.39512 
       0.668861         8.50852         7.24626 
       0.675024         8.36504         7.10122 
       0.681124         8.33587         6.96112 
       0.687237         8.13589         6.82399 
       0.693381         7.92683         6.68959 
       0.699536           7.866         6.55843 
       0.705665         7.71657          6.4314 
       0.711789         7.55031         6.30809 
       0.717957         7.40254          6.1875 
        0.72409         7.31564         6.07101 
       0.730186         7.25055         5.95839 
       0.736317         7.07947         5.84811 
       0.742472         6.99136         5.74022 
       0.748622         6.88192         5.63507 
        0.75476         6.70889         5.53265 
       0.760888         6.65168         5.43284 
       0.767043         6.49699         5.33503 
       0.773185         6.41731         5.23981 
       0.779291         6.37501         5.14746 
       0.785407         6.24301         5.05723 
       0.791564         6.15576         4.96867 
       0.797719         6.04366         4.88235 
       0.803834         5.97729          4.7987 
       0.809972         5.86819         4.71675 
       0.816124         5.79106         4.63658 
       0.822261         5.71157         4.55851 
       0.828378         5.62433          4.4825 
       0.834502          5.5483         4.40815 
       0.840667         5.48769           4.335 
       0.846816         5.37735         4.26371 
       0.852925         5.31374         4.19448 
       0.859047         5.23854         4.12663 
       0.865192         5.16527         4.06007 
       0.871341         5.09367         3.99493 
       0.877463         5.01735         3.93153 
       0.883569         4.96309         3.86967 
       0.889708         4.89333         3.80884 
       0.895864         4.82881         3.74917 
       0.902008         4.75247         3.69092 
       0.908149         4.69131         3.63395 
       0.914301         4.64073          3.5781 
       0.920448         4.58386         3.52349 
       0.926574         4.54825         3.47021 
       0.932687         4.47081         3.41816 
       0.938823         4.39355         3.36699 
       0.944975         4.36325         3.31677 
       0.951105         4.27964         3.26775 
       0.957225         4.25093         3.21981 
       0.963368         4.20069         3.17267 
       0.969511         4.15035         3.12649 
       0.975621         4.09111         3.08147 
       0.981748         4.01954         3.03723 
       0.987916         3.98343         2.99359 
        0.99406          3.9539         2.95097 
        1.00019         3.90568         2.90927 
        1.00632         3.86651         2.86842 
        1.01246         3.80936          2.8283 
        1.01859         3.76636         2.78901 
        1.02471         3.70659         2.75052 
        1.03085         3.67949         2.71262 
        1.03698         3.63924         2.67553 
        1.04314         3.60028         2.63897 
        1.04929         3.55392         2.60319 
        1.05541         3.50814         2.56822 
        1.06154         3.48108         2.53381 
        1.06769          3.4568         2.49998 
        1.07382         3.39812         2.46688 
        1.07993         3.35586         2.43446 
        1.08607         3.33414         2.40249 
        1.09222         3.28692         2.37106 
        1.09836         3.27543         2.34024 
        1.10449         3.20732            2.31 
        1.11063         3.18544         2.28027 
        1.11677         3.15752         2.25108 
         1.1229         3.11725         2.22244 
        1.12903         3.09695         2.19429 
        1.13518         3.05057          2.1666 
        1.14131         3.02139         2.13941 
        1.14745         2.98698          2.1127 
        1.15359         2.95884         2.08644 
        1.15973         2.92567         2.06062 
        1.16584         2.89984         2.03536 
        1.17197         2.86589         2.01048 
        1.17811         2.83704         1.98595 
        1.18424         2.80873         1.96189 
        1.19038         2.78262         1.93817 
        1.19652         2.76047         1.91485 
        1.20267          2.7372         1.89192 
        1.20881         2.70493         1.86937 
        1.21495         2.68026         1.84722 
        1.22108         2.65668         1.82544 
         1.2272         2.61928         1.80406 
        1.23334         2.60958         1.78297 
        1.23949         2.57801         1.76217 
        1.24562          2.5569         1.74177 
        1.25174         2.53778         1.72171 
        1.25789         2.50215         1.70192 
        1.26402         2.47958         1.68247 
        1.27014         2.45593         1.66337 
        1.27628         2.43519         1.64451 
        1.28244         2.41588         1.62591 
        1.28858         2.39492         1.60762 
        1.29471         2.36411         1.58966 
        1.30084         2.34634         1.57199 
        1.30697         2.33203         1.55456 
        1.31312         2.30897         1.53737 
        1.31925         2.28769          1.5205 
        1.32537         2.27101         1.50389 
        1.33151         2.24591         1.48748 
        1.33765         2.22885         1.47132 
        1.34378         2.21198         1.45544 
        1.34992         2.19347         1.43978 
        1.35606         2.17409         1.42431 
         1.3622         2.15681          1.4091 
        1.36833         2.13293         1.39416 
        1.37445         2.11332         1.37943 
        1.38059         2.09692         1.36488 
        1.38675         2.08016          1.3505 
        1.39288         2.06859         1.33638 
        1.39901         2.04421         1.32248 
        1.40515          2.0291         1.30874 
         1.4113         2.01697          1.2952 
        1.41742          1.9934         1.28191 
        1.42355         1.97681         1.26878 
         1.4297         1.96622         1.25579 
        1.43585         1.94912         1.24299 
        1.44198         1.93262         1.23042 
        1.44809         1.91979         1.21804 
        1.45423         1.90405         1.20579 
        1.46036         1.88979         1.19373 
        1.46649         1.86662         1.18184 
        1.47263         1.86105         1.17009 
        1.47877         1.84987         1.15851 
        1.48491         1.82614         1.14707 
        1.49104         1.81571         1.13581 
        1.49718         1.80138         1.12469 
        1.50333         1.78629          1.1137 
        1.50947         1.77459         1.10288 
         1.5156         1.76044         1.09223 
        1.52172         1.74837         1.08171 
        1.52787         1.73482         1.07131 
          1.534         1.72444         1.06106 
        1.54013         1.70848         1.05096 
        1.54627         1.69592         1.04097 
        1.55241         1.68021         1.03111 
        1.55855         1.67066         1.02139 
        1.56467         1.65886         1.01182 
         1.5708         1.64685         1.00235 
        1.57695         1.63177        0.992981 
        1.58308         1.61794        0.983757 
        1.58922         1.61216        0.974645 
        1.59535         1.59524        0.965652 
         1.6015         1.58356         0.95676 
        1.60764         1.57578        0.947984 
        1.61376         1.56085        0.939343 
        1.61989         1.55144        0.930803 
        1.62604          1.5366         0.92235 
        1.63218         1.53249        0.914007 
        1.63831         1.52082        0.905787 
        1.64444         1.50854        0.897666 
        1.65059         1.50124        0.889624 
        1.65673         1.48555         0.88169 
        1.66285         1.47657        0.873875 
        1.66898         1.46881        0.866153 
        1.67512         1.45367        0.858508 
        1.68127         1.44454        0.850949 
         1.6874         1.44057        0.843498 
        1.69353         1.42567        0.836141 
        1.69967         1.41735        0.828854 
        1.70581          1.4122        0.821658 
        1.71193         1.39433        0.814574 
        1.71806          1.3891        0.807559 
        1.72421         1.38209        0.800612 
        1.73035         1.36744        0.793755 
        1.73649          1.3647        0.786981 
        1.74262         1.35261        0.780291 
        1.74876         1.34374        0.773674 
        1.75489         1.33548        0.767148 
        1.76101         1.32364        0.760699 
        1.76715         1.31804        0.754315 
        1.77329         1.30936        0.747997 
        1.77943         1.30152        0.741749 
        1.78557         1.29481        0.735581 
        1.79171          1.2866        0.729483 
        1.79785         1.27778        0.723452 
        1.80399         1.26805        0.717491 
        1.81012         1.26016        0.711605 
        1.81625         1.25008        0.705788 
        1.82239         1.24488        0.700027 
        1.82853         1.23677        0.694334 
        1.83466         1.22708        0.688709 
        1.84078         1.22011        0.683153 
        1.84692         1.21339        0.677649 
        1.85306         1.20866        0.672199 
         1.8592         1.19739        0.666818 
        1.86533          1.1921        0.661499 
        1.87147         1.18249        0.656231 
        1.87761         1.17758        0.651019 
        1.88375         1.16941         0.64587 
        1.88988         1.16173        0.640782 
        1.89601         1.15462        0.635745 
        1.90215         1.14861         0.63076 
        1.90829         1.14274         0.62583 
        1.91442         1.13429        0.620952 
        1.92056         1.12994         0.61613 
         1.9267         1.12318        0.611355 
        1.93284         1.11392        0.606628 
        1.93897         1.10743        0.601959 
        1.94509         1.10322         0.59735 
        1.95123         1.09414        0.592778 
        1.95737         1.09017         0.58825 
        1.96349          1.0827        0.583781 
        1.96964         1.07897        0.579345 
        1.97578         1.06908        0.574954 
        1.98192         1.06232        0.570617 
        1.98805          1.0577        0.566324 
        1.99419          1.0518        0.562076 
        2.00033         1.04593        0.557869 
        2.00647         1.04164        0.553706 
         2.0126         1.03694        0.549593 
        2.01874          1.0291        0.545515 
        2.02488         1.02156        0.541475 
        2.03101         1.01685        0.537483 
        2.03714         1.01284        0.533536 
        2.04328         1.00605        0.529624 
        2.04941         1.00005        0.525754 
        2.05554        0.994352        0.521926 
        2.06167        0.989081         0.51813 
        2.06781        0.982702        0.514372 
        2.07396        0.979322        0.510646 
        2.08009        0.973859        0.506963 
        2.08622        0.967569         0.50332 
        2.09237        0.963576        0.499706 
        2.09851        0.957032        0.496128 
        2.10464        0.953318         0.49259 
        2.11077         0.94644        0.489091 
        2.11691        0.941364        0.485618 
        2.12305        0.938632        0.482179 
        2.12918        0.931167        0.478781 
        2.13531        0.926948        0.475416 
        2.14145        0.921945        0.472076 
         2.1476           0.917        0.468763 
        2.15372        0.912545        0.465499 
        2.15985        0.907451        0.462263 
        2.16599        0.904045        0.459049 
        2.17213        0.898476        0.455868 
        2.17827        0.892967        0.452719 
         2.1844        0.888771        0.449602 
        2.19054        0.884419        0.446513 
        2.19666        0.880619        0.443458 
         2.2028        0.875345        0.440428 
        2.20893        0.871371        0.437426 
        2.21508        0.866541        0.434448 
        2.22122        0.863085        0.431496 
        2.22736        0.856076        0.428579 
        2.23349        0.852339        0.425689 
        2.23962         0.84986        0.422824 
        2.24577         0.84507        0.419983 
         2.2519        0.840228        0.417171 
        2.25802        0.837942        0.414391 
        2.26417        0.831735        0.411627 
        2.27031        0.828378        0.408887 
        2.27644        0.825102        0.406179 
        2.28257        0.818746        0.403496 
        2.28872         0.81763        0.400833 
        2.29486        0.811821        0.398193 
        2.30099         0.80795        0.395583 
        2.30712        0.805292        0.392996 
        2.31326        0.800925        0.390427 
         2.3194        0.796229        0.387882 
        2.32553        0.791991        0.385365 
        2.33166        0.790197         0.38287 
         2.3378        0.785616        0.380395 
        2.34394        0.781803        0.377941 
        2.35007        0.775843        0.375511 
        2.35619        0.773388        0.373106 
        2.36233        0.769905        0.370717 
        2.36848        0.767846        0.368343 
        2.37462        0.763305        0.365996 
        2.38075        0.759294         0.36367 
        2.38689        0.756653        0.361364 
        2.39303        0.752742        0.359077 
        2.39916        0.749086        0.356813 
        2.40529        0.747045        0.354568 
        2.41143        0.740588        0.352341 
        2.41757        0.738853        0.350132 
         2.4237        0.735287        0.347947 
        2.42983        0.731064         0.34578 
        2.43598        0.728448        0.343626 
        2.44211        0.724795        0.341493 
        2.44823        0.722032        0.339384 
        2.45437         0.71938        0.337286 
        2.46052        0.716835        0.335205 
        2.46665        0.712646        0.333145 
        2.47279        0.709493        0.331103 
        2.47892        0.705747        0.329076 
        2.48507        0.704296        0.327065 
         2.4912        0.699409        0.325074 
