#  k  (h/Mpc)          P(k)  (Mpc/h)^3     P_linear(k) (Mpc/h)^3
     0.00783031         16788.7         16872.2 
       0.013688         20212.8         20773.2 
       0.019231         20557.2         20897.3 
      0.0249154         19143.9         19109.8 
      0.0312784         16088.4         16268.1 
      0.0375637         13337.1         13587.3 
      0.0433917         11565.1         11634.5 
      0.0492413         10119.6         10257.3 
      0.0555754          9242.2         9292.55 
      0.0619321         8318.44         8645.65 
       0.067871         7934.44         8127.16 
      0.0738098         7442.25         7555.62 
      0.0800417         6764.66         6847.15 
      0.0862327         5985.21         6069.91 
      0.0921407         5334.92         5340.72 
      0.0982031         4787.95         4686.53 
       0.104506         4215.29         4159.74 
       0.110769         3892.58         3798.43 
       0.116806         3725.45         3574.48 
       0.122832         3527.56         3424.95 
       0.129052         3359.01         3293.96 
       0.135211         3274.14         3143.77 
       0.141259         3031.01         2955.62 
       0.147318          2798.7         2730.54 
       0.153489          2607.3          2485.8 
       0.159709         2473.72         2252.34 
       0.165845         2245.89         2057.87 
       0.171974         2175.06         1909.81 
       0.178125         2097.64         1805.57 
       0.184229          1939.9         1734.69 
        0.19034         1918.71         1680.19 
       0.196428         1866.95         1626.61 
       0.202534         1755.16         1562.45 
       0.208729         1720.18         1482.68 
       0.214876         1636.96         1392.21 
       0.220989         1548.72         1299.01 
       0.227147          1500.5         1210.89 
        0.23329         1436.66         1135.51 
       0.239377         1426.42         1076.02 
       0.245482         1356.66         1030.56 
       0.251667         1308.78         995.076 
       0.257832         1287.82         964.859 
       0.263955         1229.53         934.908 
       0.270079         1195.44         901.661 
        0.27624         1146.29         863.802 
       0.282372         1130.71         822.959 
        0.28843         1110.46         781.967 
       0.294538         1058.18         742.795 
       0.300721         1036.92         707.543 
        0.30691         1011.24         677.661 
       0.313033         971.303         653.165 
       0.319153         961.092         632.408 
       0.325316         948.093         613.575 
        0.33145         926.462          595.22 
       0.337538         895.451         576.299 
       0.343633         874.901         556.271 
       0.349808         857.421         535.175 
       0.355968          841.08         514.122 
       0.362074         813.232         494.101 
       0.368217         810.937          475.58 
       0.374374         798.632         458.945 
       0.380519         769.407         444.258 
       0.386598         764.582         431.223 
       0.392688         745.182         419.097 
        0.39888         729.467         407.216 
       0.405048         714.459         395.399 
       0.411186         713.562         383.481 
       0.417313         707.773         371.519 
       0.423458         687.027         359.631 
       0.429607         668.382         348.127 
       0.435692         661.932         337.397 
       0.441815           649.1          327.34 
       0.447964         640.654         318.001 
       0.454126         632.748         309.334 
       0.460267         624.114         301.184 
       0.466387         612.502         293.356 
        0.47254         603.971         285.665 
       0.478662          594.25          278.12 
       0.484765         587.488         270.667 
       0.490885         581.943         263.326 
       0.497035         569.973         256.176 
       0.503198         569.638          249.31 
       0.509342         558.666         242.787 
       0.515458         547.613          236.63 
       0.521598         545.588         230.777 
       0.527764         533.468         225.172 
       0.533884         528.193         219.808 
           0.54         524.088          214.59 
       0.546137         515.586         209.478 
       0.552299         513.309         204.466 
       0.558452         505.877         199.581 
       0.564573         502.988         194.847 
       0.570708         496.697         190.251 
       0.576825         487.214         185.838 
       0.582926         485.994         181.615 
       0.589034         478.113         177.557 
       0.595184          474.18         173.617 
       0.601379         466.988         169.776 
       0.607522         458.979         166.077 
       0.613639         458.471         162.494 
       0.619772         456.008         158.999 
       0.625918         447.643          155.59 
       0.632068         445.695          152.27 
       0.638161         441.134          149.07 
         0.6443         435.314         145.938 
       0.650464         431.833          142.89 
       0.656582         428.252         139.961 
       0.662703          424.73         137.125 
       0.668861         418.343          134.36 
       0.675024         416.807         131.673 
       0.681124         408.733         129.086 
       0.687237         408.485         126.558 
       0.693381         402.406         124.081 
       0.699536         402.319         121.661 
       0.705665         396.568         119.315 
       0.711789         395.074         117.032 
       0.717957         390.277         114.796 
        0.72409         386.162         112.634 
       0.730186         387.052         110.545 
       0.736317         380.633           108.5 
       0.742472         377.488           106.5 
       0.748622         375.821         104.554 
        0.75476          372.02          102.66 
       0.760888         369.643         100.815 
       0.767043          366.43         99.0063 
       0.773185          363.64         97.2456 
       0.779291         360.123         95.5374 
       0.785407         357.803         93.8679 
       0.791564         355.723         92.2283 
       0.797719         350.097         90.6295 
       0.803834         351.617         89.0796 
       0.809972         346.022         87.5613 
       0.816124         343.385         86.0758 
       0.822261         341.016         84.6294 
       0.828378         339.531          83.221 
       0.834502         334.252         81.8438 
       0.840667         334.309         80.4891 
       0.846816         329.593         79.1688 
       0.852925         330.214         77.8866 
       0.859047          326.72         76.6301 
       0.865192          325.12         75.3973 
       0.871341         321.307         74.1909 
       0.877463         320.042         73.0164 
       0.883569          317.53         71.8706 
       0.889708         314.627         70.7436 
       0.895864         311.042         69.6381 
       0.902008         310.092         68.5587 
       0.908149         307.193         67.5031 
       0.914301         306.079         66.4682 
       0.920448          303.25         65.4561 
       0.926574         301.384         64.4688 
       0.932687         300.867         63.5042 
       0.938823         297.408         62.5559 
       0.944975         296.871          61.625 
       0.951105         294.132         60.7166 
       0.957225         290.887         59.8281 
       0.963368           291.4         58.9545 
       0.969511         286.625         58.0985 
       0.975621         284.678         57.2642 
       0.981748         284.282         56.4442 
       0.987916         282.426         55.6353 
        0.99406         279.891         54.8453 
        1.00019          277.54         54.0724 
        1.00632         277.084         53.3151 
        1.01246         274.769         52.5714 
        1.01859         272.144         51.8431 
        1.02471         270.539         51.1295 
        1.03085         269.532         50.4271 
        1.03698         268.329         49.7394 
        1.04314          266.84         49.0616 
        1.04929         265.258         48.3982 
        1.05541         263.292         47.7498 
        1.06154         261.216         47.1117 
        1.06769         259.316         46.4844 
        1.07382         257.472         45.8707 
        1.07993          256.43         45.2694 
        1.08607         255.154         44.6766 
        1.09222         252.792         44.0938 
        1.09836         251.934         43.5221 
        1.10449         250.382         42.9613 
        1.11063         248.726         42.4098 
        1.11677          246.46         41.8682 
         1.1229         246.227         41.3371 
        1.12903         243.654         40.8148 
        1.13518         242.334         40.3011 
        1.14131         241.405         39.7966 
        1.14745         239.161          39.301 
        1.15359         237.499         38.8139 
        1.15973         236.553         38.3349 
        1.16584         235.005         37.8661 
        1.17197         234.086         37.4045 
        1.17811         231.813         36.9493 
        1.18424         230.671          36.503 
        1.19038         229.871         36.0628 
        1.19652         227.319         35.6301 
        1.20267         226.703         35.2046 
        1.20881         225.187         34.7861 
        1.21495         224.523         34.3751 
        1.22108         222.801         33.9708 
         1.2272         220.893         33.5741 
        1.23334         219.905         33.1828 
        1.23949         218.777         32.7968 
        1.24562         217.401         32.4181 
        1.25174         216.625         32.0459 
        1.25789         214.486         31.6785 
        1.26402         214.114         31.3175 
        1.27014         213.026          30.963 
        1.27628         211.608          30.613 
        1.28244         209.771         30.2677 
        1.28858         209.019         29.9283 
        1.29471         207.533         29.5948 
        1.30084         207.113         29.2668 
        1.30697         205.121         28.9432 
        1.31312         204.216         28.6241 
        1.31925         202.893         28.3109 
        1.32537         202.282         28.0026 
        1.33151         200.655         27.6978 
        1.33765         199.481         27.3978 
        1.34378          198.89         27.1029 
        1.34992         197.024         26.8121 
        1.35606         196.434         26.5249 
         1.3622         194.748         26.2425 
        1.36833          194.28         25.9649 
        1.37445         193.624         25.6914 
        1.38059         191.445         25.4211 
        1.38675         190.355          25.154 
        1.39288         189.614         24.8918 
        1.39901         187.997         24.6335 
        1.40515         187.468         24.3783 
         1.4113         186.451         24.1269 
        1.41742         185.132         23.8799 
        1.42355         184.355          23.636 
         1.4297         183.318         23.3948 
        1.43585         182.728          23.157 
        1.44198         181.025         22.9234 
        1.44809         180.534         22.6936 
        1.45423         179.449          22.466 
        1.46036         178.355          22.242 
        1.46649         177.124         22.0209 
        1.47263         176.583         21.8027 
        1.47877         175.465         21.5876 
        1.48491         174.206          21.375 
        1.49104         172.695         21.1658 
        1.49718         172.491         20.9592 
        1.50333         170.776         20.7551 
        1.50947         170.324         20.5541 
         1.5156         169.306         20.3561 
        1.52172         168.404         20.1606 
        1.52787         167.671         19.9674 
          1.534         166.975          19.777 
        1.54013         165.667         19.5892 
        1.54627         165.087         19.4035 
        1.55241         164.189         19.2202 
        1.55855         163.275         19.0396 
        1.56467         162.377         18.8618 
         1.5708         161.172         18.6857 
        1.57695         160.631         18.5116 
        1.58308         159.379         18.3402 
        1.58922         158.558         18.1708 
        1.59535         157.693         18.0036 
         1.6015         156.915         17.8383 
        1.60764         155.842         17.6752 
        1.61376         154.987         17.5145 
        1.61989         154.322         17.3558 
        1.62604         153.436         17.1986 
        1.63218         152.661         17.0435 
        1.63831         151.869         16.8907 
        1.64444         150.691         16.7397 
        1.65059          150.08         16.5901 
        1.65673         149.245         16.4426 
        1.66285         148.607         16.2973 
        1.66898         147.745         16.1537 
        1.67512         146.598         16.0116 
        1.68127         146.182          15.871 
         1.6874         145.298         15.7325 
        1.69353          144.64         15.5956 
        1.69967         143.687         15.4601 
        1.70581         143.221         15.3263 
        1.71193         142.331         15.1946 
        1.71806         141.183         15.0641 
        1.72421         140.542         14.9349 
        1.73035         139.908         14.8074 
        1.73649          138.98         14.6814 
        1.74262         138.305          14.557 
        1.74876         137.652         14.4339 
        1.75489         137.376         14.3125 
        1.76101         136.051         14.1926 
        1.76715         135.392         14.0739 
        1.77329           134.5         13.9563 
        1.77943         133.748         13.8401 
        1.78557         133.062         13.7254 
        1.79171          132.35         13.6119 
        1.79785         131.526         13.4998 
        1.80399         130.994         13.3889 
        1.81012         130.378         13.2794 
        1.81625         129.467         13.1711 
        1.82239         129.161          13.064 
        1.82853         128.021          12.958 
        1.83466         127.074         12.8534 
        1.84078         126.883           12.75 
        1.84692         126.361         12.6476 
        1.85306         125.471         12.5462 
         1.8592         124.969          12.446 
        1.86533         124.097          12.347 
        1.87147         123.386          12.249 
        1.87761         122.791          12.152 
        1.88375         122.045         12.0562 
        1.88988         121.493         11.9615 
        1.89601          120.92         11.8678 
        1.90215         120.469          11.775 
        1.90829         119.426         11.6832 
        1.91442         118.683         11.5924 
        1.92056         118.322         11.5027 
         1.9267          117.56         11.4138 
        1.93284         116.784         11.3258 
        1.93897         116.443         11.2389 
        1.94509          115.77         11.1532 
        1.95123         115.159          11.068 
        1.95737         114.559         10.9838 
        1.96349         113.922         10.9006 
        1.96964         113.159          10.818 
        1.97578         112.733         10.7363 
        1.98192         112.302         10.6555 
        1.98805         111.782         10.5756 
        1.99419         110.939         10.4965 
        2.00033         110.413         10.4182 
        2.00647         109.941         10.3407 
         2.0126         109.241         10.2641 
        2.01874         108.582         10.1882 
        2.02488          108.14          10.113 
        2.03101         107.661         10.0387 
        2.03714         106.956         9.96518 
        2.04328         106.622         9.89234 
        2.04941         105.938         9.82029 
        2.05554         105.591           9.749 
        2.06167         104.701         9.67833 
        2.06781         104.407         9.60835 
        2.07396          103.71         9.53897 
        2.08009         103.032         9.47038 
        2.08622         102.634         9.40255 
        2.09237         101.946         9.33526 
        2.09851         101.581         9.26861 
        2.10464         101.228         9.20272 
        2.11077         100.455         9.13755 
        2.11691         99.9399         9.07287 
        2.12305         99.4304         9.00882 
        2.12918         98.9468         8.94554 
        2.13531         98.4633         8.88286 
        2.14145         98.0266         8.82064 
         2.1476         97.4619         8.75894 
        2.15372         96.8724         8.69814 
        2.15985          96.449         8.63786 
        2.16599         95.8136         8.57798 
        2.17213         95.3931         8.51874 
        2.17827         94.9077         8.46006 
         2.1844          94.462           8.402 
        2.19054         93.8935         8.34446 
        2.19666         93.1636         8.28754 
         2.2028          93.115          8.2311 
        2.20893         92.6536         8.17516 
        2.21508         91.9589         8.11967 
        2.22122         91.5553         8.06469 
        2.22736         91.2683         8.01033 
        2.23349         90.6518         7.95648 
        2.23962         90.2343          7.9031 
        2.24577         89.6956         7.85016 
         2.2519         89.2239         7.79779 
        2.25802         88.8743         7.74597 
        2.26417         88.2361         7.69448 
        2.27031         87.6754         7.64341 
        2.27644         87.4367         7.59296 
        2.28257         87.1034         7.54296 
        2.28872         86.5307         7.49332 
        2.29486         86.2552         7.44414 
        2.30099         85.6698          7.3955 
        2.30712         85.3431         7.34727 
        2.31326         84.8154         7.29939 
         2.3194         84.4671         7.25197 
        2.32553          84.056         7.20505 
        2.33166         83.5807         7.15856 
         2.3378         83.0613         7.11243 
        2.34394         82.8027         7.06668 
        2.35007         82.2377          7.0214 
        2.35619         81.7989         6.97658 
        2.36233         81.3212         6.93204 
        2.36848          81.089          6.8878 
        2.37462         80.7575         6.84403 
        2.38075         80.2383         6.80069 
        2.38689         79.8945         6.75769 
        2.39303         79.5706         6.71507 
        2.39916         79.0939         6.67286 
        2.40529          78.758         6.63102 
        2.41143         78.2553         6.58951 
        2.41757         77.7796         6.54833 
         2.4237         77.4985         6.50758 
        2.42983         77.0518         6.46718 
        2.43598         76.8047         6.42702 
        2.44211         76.4424         6.38726 
        2.44823         75.9843         6.34794 
        2.45437         75.6817         6.30883 
        2.46052         75.2244         6.27002 
        2.46665         74.6175         6.23161 
        2.47279         74.4903         6.19353 
        2.47892         74.1392         6.15575 
        2.48507         73.7575         6.11825 
         2.4912         73.3622         6.08113 
