# k  (h/Mpc)    Pcb(k)  (Mpc/h)^3    Pcb_linear(k)  (Mpc/h)^3
     0.00783031         6561.64         6645.79 
       0.013688         7383.76         7357.52 
       0.019231         6653.68         6633.57 
      0.0249154         5320.31         5366.73 
      0.0312784         3991.81         3985.94 
      0.0375637         3017.44         2988.53 
      0.0433917          2429.2         2426.17 
      0.0492413         2139.79         2129.11 
      0.0555754         1962.96         1980.35 
      0.0619321         1898.61         1882.34 
       0.067871         1740.24         1753.26 
      0.0738098         1550.59         1560.06 
      0.0800417         1303.04         1312.55 
      0.0862327         1077.83         1072.54 
      0.0921407         906.203         889.274 
      0.0982031         775.396         764.406 
       0.104506         719.619         696.846 
       0.110769         688.729         672.341 
       0.116806         672.758         664.228 
       0.122832         658.361         649.013 
       0.129052         613.112         611.839 
       0.135211         557.659         553.212 
       0.141259         499.158         485.199 
       0.147318         439.793         420.615 
       0.153489         386.907         369.096 
       0.159709         355.886         335.768 
       0.165845         340.808         319.101 
       0.171974          328.72         312.639 
       0.178125         323.378         308.969 
       0.184229         314.635         301.659 
        0.19034         294.343         287.254 
       0.196428         279.113         266.311 
       0.202534         260.135          242.09 
       0.208729         236.702         218.628 
       0.214876         217.818         199.794 
       0.220989         206.432         186.798 
       0.227147         196.623         178.935 
        0.23329         190.568         174.476 
       0.239377         187.396         171.077 
       0.245482         177.389         166.631 
       0.251667         173.793          159.93 
       0.257832         165.786          151.13 
       0.263955          156.63         141.271 
       0.270079         147.469         131.642 
        0.27624         141.929         123.317 
       0.282372         136.032         116.915 
        0.28843         130.182          112.39 
       0.294538         125.067         109.081 
       0.300721         123.289         106.276 
        0.30691         118.177         103.286 
       0.313033         114.647         99.7486 
       0.319153         109.095         95.5583 
       0.325316         106.361          90.962 
        0.33145         101.321         86.4026 
       0.337538         98.4996         82.2899 
       0.343633         94.3935         78.7828 
       0.349808         91.3426         75.9077 
       0.355968         89.3083         73.5545 
       0.362074          86.711         71.5038 
       0.368217         84.0312         69.4938 
       0.374374         81.3787         67.3464 
       0.380519         79.5204         65.0432 
       0.386598         77.0948         62.6436 
       0.392688         75.2565         60.2359 
        0.39888         72.9158         57.9241 
       0.405048         70.7407         55.8331 
       0.411186          68.962         53.9997 
       0.417313         67.0199         52.3928 
       0.423458         65.3065         50.9233 
       0.429607         63.7096         49.5202 
       0.435692         61.4505         48.1453 
       0.441815         60.6346         46.7331 
       0.447964         59.4191         45.2886 
       0.454126         56.6696         43.8553 
       0.460267         55.8889         42.4766 
       0.466387         54.5989         41.1772 
        0.47254         53.3831         39.9663 
       0.478662          52.669         38.8616 
       0.484765         50.9354         37.8352 
       0.490885         49.8829         36.8522 
       0.497035         49.2238         35.8914 
       0.503198         47.7239         34.9464 
       0.509342         46.5849         34.0151 
       0.515458         45.6733         33.0985 
       0.521598         44.8557         32.2003 
       0.527764         44.0042         31.3343 
       0.533884         43.3254         30.5209 
           0.54         42.1923         29.7516 
       0.546137         41.6771          29.016 
       0.552299         40.9725         28.3074 
       0.558452         39.7926         27.6246 
       0.564573         39.0634         26.9658 
       0.570708         38.4343         26.3225 
       0.576825         37.7565         25.6955 
       0.582926         36.8349         25.0841 
       0.589034         36.0225         24.4891 
       0.595184          35.537         23.9105 
       0.601379         34.8476         23.3512 
       0.607522         34.0777         22.8199 
       0.613639           33.84         22.3112 
       0.619772         33.0459         21.8182 
       0.625918         32.6512         21.3384 
       0.632068         32.2053         20.8703 
       0.638161         31.6407         20.4181 
         0.6443         31.0816         19.9746 
       0.650464         30.5618         19.5422 
       0.656582         30.2182         19.1263 
       0.662703         29.5923         18.7235 
       0.668861         29.1194         18.3313 
       0.675024         28.6872         17.9508 
       0.681124          28.186         17.5853 
       0.687237         27.6533         17.2293 
       0.693381         27.4037         16.8812 
       0.699536         26.8145         16.5417 
       0.705665         26.8136         16.2126 
       0.711789         26.1158         15.8926 
       0.717957         25.7479         15.5791 
        0.72409         25.3947         15.2759 
       0.730186          24.993         14.9828 
       0.736317         24.8119         14.6961 
       0.742472         24.3799         14.4162 
       0.748622         24.0877          14.144 
        0.75476         23.7415         13.8795 
       0.760888          23.349         13.6223 
       0.767043         23.0276         13.3706 
       0.773185          22.705         13.1257 
       0.779291         22.5565         12.8883 
       0.785407         22.3485         12.6563 
       0.791564         21.9768         12.4286 
       0.797719         21.4577         12.2066 
       0.803834         21.4047         11.9914 
       0.809972         21.0835         11.7807 
       0.816124         20.7639         11.5746 
       0.822261         20.5241          11.374 
       0.828378         20.3932         11.1789 
       0.834502         20.1304         10.9883 
       0.840667         19.8707         10.8009 
       0.846816         19.5071         10.6184 
       0.852925         19.3489         10.4414 
       0.859047         19.1075          10.268 
       0.865192         18.9004         10.0981 
       0.871341          18.786          9.9319 
       0.877463          18.437         9.77024 
       0.883569         18.2359          9.6126 
       0.889708         18.0185         9.45766 
       0.895864         17.8047         9.30576 
       0.902008         17.6509         9.15753 
       0.908149         17.4595         9.01264 
       0.914301         17.3986         8.87067 
       0.920448         17.1406         8.73191 
       0.926574         16.9274         8.59661 
       0.932687         16.7394         8.46449 
       0.938823         16.5221         8.33469 
       0.944975          16.389         8.20732 
       0.951105         16.2118         8.08309 
       0.957225         16.0027         7.96165 
       0.963368         15.9918         7.84231 
       0.969511         15.7596         7.72543 
       0.975621         15.6627         7.61156 
       0.981748         15.4013         7.49972 
       0.987916         15.2857         7.38942 
        0.99406         15.1418         7.28177 
        1.00019         14.9602         7.17648 
        1.00632         14.8556         7.07337 
        1.01246         14.7892         6.97215 
        1.01859         14.5141         6.87308 
        1.02471         14.4651         6.77606 
        1.03085          14.329          6.6806 
        1.03698         14.0828         6.58718 
        1.04314         14.0172         6.49516 
        1.04929         13.8526         6.40512 
        1.05541         13.7085         6.31716 
        1.06154         13.6372         6.23065 
        1.06769         13.5425         6.14563 
        1.07382         13.3965         6.06248 
        1.07993         13.2874         5.98107 
        1.08607         13.1315         5.90082 
        1.09222         13.0551         5.82197 
        1.09836         12.9082         5.74467 
        1.10449         12.8185         5.66886 
        1.11063         12.6414         5.59435 
        1.11677         12.5972         5.52121 
         1.1229         12.5075         5.44951 
        1.12903         12.3741         5.37903 
        1.13518         12.2559         5.30974 
        1.14131         12.2054         5.24171 
        1.14745         12.0576         5.17492 
        1.15359         12.0191         5.10929 
        1.15973         11.8602         5.04478 
        1.16584         11.7336         4.98167 
        1.17197         11.7101         4.91955 
        1.17811         11.5717         4.85831 
        1.18424         11.4843         4.79829 
        1.19038         11.4322         4.73912 
        1.19652          11.347         4.68097 
        1.20267         11.2517          4.6238 
        1.20881         11.1454          4.5676 
        1.21495         11.0837         4.51243 
        1.22108         10.9694         4.45818 
         1.2272         10.8837         4.40495 
        1.23334         10.8378         4.35246 
        1.23949         10.7267         4.30071 
        1.24562         10.6579         4.24995 
        1.25174         10.5902         4.20008 
        1.25789         10.4847         4.15087 
        1.26402         10.4434         4.10253 
        1.27014         10.3222         4.05508 
        1.27628         10.2537         4.00825 
        1.28244         10.1953         3.96206 
        1.28858         10.1474         3.91667 
        1.29471         10.0574         3.87209 
        1.30084         9.97209         3.82825 
        1.30697         9.92101         3.78503 
        1.31312         9.80412         3.74241 
        1.31925         9.73703         3.70059 
        1.32537         9.70082         3.65945 
        1.33151         9.63589         3.61879 
        1.33765         9.57412         3.57877 
        1.34378         9.49036         3.53944 
        1.34992         9.39944         3.50067 
        1.35606         9.38917         3.46241 
         1.3622         9.33215         3.42479 
        1.36833         9.22331         3.38781 
        1.37445         9.20336         3.35141 
        1.38059         9.10957         3.31543 
        1.38675         9.00704         3.27989 
        1.39288         8.99228         3.24502 
        1.39901         8.92678         3.21067 
        1.40515         8.89592         3.17674 
         1.4113         8.82215         3.14332 
        1.41742         8.74831         3.11051 
        1.42355         8.70455          3.0781 
         1.4297         8.68689         3.04606 
        1.43585         8.60964         3.01449 
        1.44198         8.56315         2.98348 
        1.44809         8.48631         2.95297 
        1.45423         8.44205         2.92278 
        1.46036          8.3943         2.89306 
        1.46649         8.35725         2.86375 
        1.47263         8.27217         2.83482 
        1.47877          8.2359         2.80631 
        1.48491         8.22064         2.77814 
        1.49104         8.15742         2.75042 
        1.49718         8.09199         2.72306 
        1.50333         8.05036         2.69603 
        1.50947         7.99266         2.66942 
         1.5156         7.95273         2.64321 
        1.52172          7.9132         2.61735 
        1.52787         7.86444         2.59179 
          1.534         7.80519          2.5666 
        1.54013         7.75377         2.54177 
        1.54627           7.705         2.51723 
        1.55241         7.65984           2.493 
        1.55855         7.61621         2.46914 
        1.56467          7.5804         2.44564 
         1.5708          7.5673         2.42239 
        1.57695         7.49037         2.39941 
        1.58308         7.46472         2.37678 
        1.58922         7.43597         2.35443 
        1.59535         7.37054         2.33237 
         1.6015           7.324         2.31057 
        1.60764         7.29898         2.28905 
        1.61376         7.24144         2.26787 
        1.61989         7.20443         2.24694 
        1.62604         7.19256         2.22623 
        1.63218         7.14219         2.20579 
        1.63831         7.10472         2.18566 
        1.64444         7.04557         2.16577 
        1.65059         7.00946         2.14608 
        1.65673          6.9892         2.12665 
        1.66285         6.93003         2.10753 
        1.66898         6.92936         2.08863 
        1.67512         6.88442         2.06992 
        1.68127         6.85033         2.05143 
         1.6874         6.79667         2.03321 
        1.69353         6.74229         2.01522 
        1.69967         6.73048          1.9974 
        1.70581         6.70807         1.97981 
        1.71193         6.66331          1.9625 
        1.71806         6.62357         1.94536 
        1.72421         6.59241         1.92839 
        1.73035          6.5509         1.91164 
        1.73649         6.53172         1.89509 
        1.74262         6.51068         1.87875 
        1.74876         6.47026          1.8626 
        1.75489         6.43635         1.84667 
        1.76101         6.39041         1.83093 
        1.76715          6.3693         1.81535 
        1.77329         6.32593         1.79993 
        1.77943         6.29897         1.78469 
        1.78557         6.28414         1.76964 
        1.79171         6.25108         1.75477 
        1.79785         6.19806         1.74007 
        1.80399         6.18755         1.72553 
        1.81012         6.17165         1.71119 
        1.81625         6.12384         1.69701 
        1.82239         6.08997         1.68297 
        1.82853          6.0528          1.6691 
        1.83466         6.02397          1.6554 
        1.84078         6.00571         1.64186 
        1.84692         5.98203         1.62846 
        1.85306         5.93772         1.61519 
         1.8592          5.9254         1.60209 
        1.86533         5.90229         1.58914 
        1.87147          5.8682         1.57632 
        1.87761         5.84995         1.56363 
        1.88375         5.80063         1.55111 
        1.88988          5.7845         1.53873 
        1.89601         5.76382         1.52648 
        1.90215         5.73377         1.51435 
        1.90829         5.70078         1.50236 
        1.91442         5.67968          1.4905 
        1.92056         5.65592         1.47878 
         1.9267         5.62589         1.46717 
        1.93284          5.6021         1.45568 
        1.93897         5.57944         1.44433 
        1.94509         5.55016         1.43314 
        1.95123         5.53297         1.42203 
        1.95737         5.51033         1.41103 
        1.96349         5.48646         1.40017 
        1.96964         5.44944          1.3894 
        1.97578         5.42491         1.37874 
        1.98192         5.40703         1.36821 
        1.98805         5.39696         1.35779 
        1.99419         5.35438         1.34748 
        2.00033         5.33597         1.33727 
        2.00647         5.30645         1.32717 
         2.0126         5.30084         1.31719 
        2.01874         5.26679         1.30729 
        2.02488         5.23564          1.2975 
        2.03101         5.22817         1.28782 
        2.03714         5.20357         1.27824 
        2.04328         5.17934         1.26876 
        2.04941         5.14938         1.25937 
        2.05554         5.13283         1.25009 
        2.06167         5.10573         1.24089 
        2.06781         5.09927         1.23179 
        2.07396          5.0825         1.22276 
        2.08009         5.06286         1.21383 
        2.08622         5.01107         1.20501 
        2.09237         5.01975         1.19626 
        2.09851         4.99007         1.18759 
        2.10464         4.96319         1.17902 
        2.11077         4.93672         1.17055 
        2.11691         4.92386         1.16214 
        2.12305         4.91021         1.15381 
        2.12918         4.88225         1.14559 
        2.13531         4.86561         1.13745 
        2.14145         4.84838         1.12936 
         2.1476         4.84159         1.12135 
        2.15372         4.81017         1.11345 
        2.15985         4.78245         1.10562 
        2.16599         4.78004         1.09785 
        2.17213         4.75255         1.09015 
        2.17827          4.7344         1.08254 
         2.1844         4.71496           1.075 
        2.19054         4.69746         1.06753 
        2.19666         4.68072         1.06014 
         2.2028         4.66321         1.05282 
        2.20893         4.64114         1.04556 
        2.21508          4.6224         1.03836 
        2.22122         4.60544         1.03123 
        2.22736         4.59121         1.02418 
        2.23349         4.56934          1.0172 
        2.23962         4.55332         1.01028 
        2.24577         4.53645         1.00342 
         2.2519         4.52036        0.996626 
        2.25802         4.49995         0.98991 
        2.26417         4.48534        0.983238 
        2.27031         4.45803        0.976621 
        2.27644         4.45022        0.970084 
        2.28257         4.43249        0.963607 
        2.28872         4.42082        0.957177 
        2.29486         4.39881        0.950807 
        2.30099         4.39313        0.944509 
        2.30712         4.36579        0.938264 
        2.31326         4.34948        0.932066 
         2.3194         4.33624        0.925927 
        2.32553         4.31733        0.919854 
        2.33166         4.30021        0.913837 
         2.3378          4.2899        0.907867 
        2.34394          4.2748        0.901948 
        2.35007         4.25217         0.89609 
        2.35619          4.2335        0.890291 
        2.36233         4.22798         0.88453 
        2.36848         4.21629        0.878807 
        2.37462         4.19683        0.873148 
        2.38075         4.17427        0.867544 
        2.38689         4.16308        0.861984 
        2.39303         4.14745        0.856474 
        2.39916         4.14335        0.851018 
        2.40529          4.1214         0.84561 
        2.41143          4.1005        0.840245 
        2.41757         4.09433        0.834924 
         2.4237         4.07882        0.829659 
        2.42983          4.0569         0.82444 
        2.43598         4.05704        0.819252 
        2.44211         4.03798        0.814117 
        2.44823         4.02067        0.809038 
        2.45437         4.01236        0.803988 
        2.46052           3.991        0.798977 
        2.46665          3.9759        0.794018 
        2.47279         3.96446        0.789103 
        2.47892         3.95628        0.784226 
        2.48507         3.93249        0.779385 
         2.4912         3.92709        0.774595 
