# k  (h/Mpc)    P(k)  (Mpc/h)^3    P_linear(k)  (Mpc/h)^3
     0.00783031         730.566         739.007 
       0.013688         849.683         852.251 
       0.019231         810.274         810.445 
      0.0249154         697.654         700.309 
      0.0312784         561.704         561.038 
      0.0375637         447.215         445.323 
      0.0433917         369.749         369.119 
      0.0492413         321.309         320.302 
      0.0555754         288.856         289.331 
      0.0619321          270.75         269.577 
       0.067871         251.929         252.454 
      0.0738098         231.049         231.614 
      0.0800417          204.18          204.94 
      0.0862327         176.424         176.375 
      0.0921407          151.46         151.025 
      0.0982031         130.142         129.948 
       0.104506         115.567         114.589 
       0.110769         106.096         105.334 
       0.116806         100.565          100.35 
       0.122832         97.5195         97.0951 
       0.129052         93.4176         93.4767 
       0.135211          88.227         88.3116 
       0.141259         81.7474          81.475 
       0.147318         74.1132         73.5624 
       0.153489          66.015         65.5588 
       0.159709          59.171         58.6176 
       0.165845         54.3219         53.4574 
       0.171974         50.5026         50.0163 
       0.178125         48.4645         47.9039 
       0.184229         47.0893         46.5321 
        0.19034          45.436          45.248 
       0.196428         43.9692         43.5817 
       0.202534         41.9738          41.325 
       0.208729         39.0379         38.5387 
       0.214876         36.0006         35.5877 
       0.220989         33.4654         32.8215 
       0.227147         30.9536         30.4752 
        0.23329         29.1741         28.6889 
       0.239377         27.9719         27.4243 
       0.245482         26.8732         26.5121 
       0.251667         26.2843         25.7505 
       0.257832         25.4186         24.9632 
       0.263955         24.5162         24.0344 
       0.270079         23.4121         22.9339 
        0.27624         22.3184         21.7075 
       0.282372         21.1132          20.473 
        0.28843          19.897         19.3404 
       0.294538         18.9139         18.3579 
       0.300721         18.2087         17.5503 
        0.30691         17.4479         16.9063 
       0.313033         16.9133         16.3789 
       0.319153          16.276         15.8955 
       0.325316         15.9669         15.3989 
        0.33145         15.3866         14.8633 
       0.337538         14.8199          14.289 
       0.343633         14.1722         13.6911 
       0.349808         13.6336         13.0941 
       0.355968          13.089         12.5395 
       0.362074         12.5742          12.048 
       0.368217         12.1499         11.6197 
       0.374374         11.7247         11.2456 
       0.380519         11.4267         10.9107 
       0.386598         11.1254         10.5976 
       0.392688         10.8438         10.2845 
        0.39888         10.4837         9.95979 
       0.405048         10.1647         9.62857 
       0.411186         9.84244         9.29759 
       0.417313         9.48807          8.9766 
       0.423458         9.20125         8.67234 
       0.429607         8.89644         8.39073 
       0.435692         8.62865         8.13728 
       0.441815         8.39884         7.90312 
       0.447964         8.21566         7.68326 
       0.454126         7.94528          7.4728 
       0.460267         7.75528         7.26777 
       0.466387         7.51414         7.06426 
        0.47254         7.33672         6.86115 
       0.478662         7.16063         6.66277 
       0.484765         6.92829         6.47077 
       0.490885         6.74847         6.28628 
       0.497035          6.6275         6.11103 
       0.503198         6.42871          5.9464 
       0.509342         6.27121         5.79139 
       0.515458         6.10992         5.64423 
       0.521598         5.97213         5.50198 
       0.527764          5.8094          5.3634 
       0.533884         5.70647         5.22899 
           0.54         5.55857         5.09706 
       0.546137         5.43425         4.96766 
       0.552299         5.31167         4.84172 
       0.558452         5.15755         4.72084 
       0.564573         5.06115         4.60562 
       0.570708         4.94557         4.49484 
       0.576825         4.81945         4.38879 
       0.582926         4.72744         4.28705 
       0.589034          4.5932         4.18874 
       0.595184         4.50935         4.09283 
       0.601379         4.40494         3.99886 
       0.607522         4.33269          3.9079 
       0.613639         4.25756         3.81959 
       0.619772         4.13589         3.73356 
       0.625918         4.07492         3.65006 
       0.632068         4.00431         3.56941 
       0.638161         3.90265         3.49231 
         0.6443         3.82144         3.41719 
       0.650464         3.73375         3.34414 
       0.656582         3.68459         3.27375 
       0.662703         3.61002         3.20526 
       0.668861         3.54702         3.13824 
       0.675024         3.46866         3.07301 
       0.681124         3.39729         3.01025 
       0.687237         3.34376         2.94912 
       0.693381         3.28303         2.88943 
       0.699536         3.19589         2.83131 
       0.705665         3.14649         2.77506 
       0.711789          3.0935         2.72041 
       0.717957         3.03151         2.66688 
        0.72409         2.97729         2.61509 
       0.730186          2.9247           2.565 
       0.736317         2.89231         2.51595 
       0.742472          2.8404         2.46802 
       0.748622         2.78175         2.42138 
        0.75476         2.72603         2.37606 
       0.760888         2.68056         2.33197 
       0.767043         2.64752         2.28884 
       0.773185         2.59007         2.24689 
       0.779291         2.55654         2.20623 
       0.785407         2.51066         2.16653 
       0.791564         2.47382         2.12756 
       0.797719         2.43452         2.08957 
       0.803834         2.40211         2.05274 
       0.809972         2.36262         2.01667 
       0.816124         2.31667         1.98139 
       0.822261         2.27223         1.94705 
       0.828378          2.2427         1.91363 
       0.834502         2.21885         1.88096 
       0.840667         2.16864         1.84885 
       0.846816         2.13463         1.81758 
       0.852925         2.11477         1.78724 
       0.859047         2.08105         1.75753 
       0.865192         2.04855          1.7284 
       0.871341         2.02209         1.69991 
       0.877463         1.99356          1.6722 
       0.883569         1.95591         1.64518 
       0.889708         1.92716         1.61862 
       0.895864         1.89829         1.59258 
       0.902008         1.86921         1.56717 
       0.908149         1.84747         1.54233 
       0.914301          1.8111         1.51799 
       0.920448         1.78821          1.4942 
       0.926574          1.7612           1.471 
       0.932687         1.73726         1.44835 
       0.938823         1.71908         1.42609 
       0.944975         1.69416         1.40425 
       0.951105         1.67292         1.38295 
       0.957225         1.65795         1.36213 
       0.963368         1.63196         1.34166 
       0.969511         1.60583         1.32162 
       0.975621         1.58121         1.30209 
       0.981748         1.56622         1.28291 
       0.987916         1.54269           1.264 
        0.99406         1.51735         1.24554 
        1.00019         1.50338         1.22748 
        1.00632         1.48087          1.2098 
        1.01246          1.4629         1.19245 
        1.01859         1.44512         1.17546 
        1.02471          1.4249         1.15883 
        1.03085          1.4091         1.14246 
        1.03698         1.38854         1.12644 
        1.04314         1.37385         1.11066 
        1.04929         1.35519         1.09522 
        1.05541         1.34016         1.08013 
        1.06154         1.32203          1.0653 
        1.06769         1.30833         1.05071 
        1.07382         1.28983         1.03646 
        1.07993         1.27079         1.02249 
        1.08607         1.26314         1.00873 
        1.09222         1.24392        0.995209 
        1.09836         1.23379         0.98195 
        1.10449         1.21885        0.968949 
        1.11063          1.1992        0.956169 
        1.11677         1.18541        0.943624 
         1.1229         1.17294        0.931326 
        1.12903         1.15827        0.919236 
        1.13518         1.14736        0.907352 
        1.14131         1.13107        0.895684 
        1.14745         1.11184        0.884228 
        1.15359         1.10512         0.87297 
        1.15973         1.08776        0.861904 
        1.16584         1.08305         0.85108 
        1.17197         1.06904        0.840427 
        1.17811         1.05889        0.829923 
        1.18424         1.04825        0.819629 
        1.19038         1.03389        0.809481 
        1.19652         1.02148        0.799508 
        1.20267         1.01394        0.789704 
        1.20881        0.999516        0.780066 
        1.21495        0.991594        0.770604 
        1.22108        0.980785        0.761301 
         1.2272        0.972852        0.752173 
        1.23334        0.959279        0.743174 
        1.23949        0.948582        0.734301 
        1.24562         0.94075        0.725598 
        1.25174        0.930502        0.717048 
        1.25789        0.921163        0.708611 
        1.26402        0.908781        0.700324 
        1.27014        0.900086         0.69219 
        1.27628        0.895132        0.684161 
        1.28244        0.881374        0.676243 
        1.28858        0.873847        0.668462 
        1.29471        0.865067        0.660819 
        1.30084        0.854826        0.653304 
        1.30697        0.847527        0.645893 
        1.31312        0.835477        0.638587 
        1.31925        0.830403        0.631417 
        1.32537        0.822068        0.624364 
        1.33151         0.81557        0.617393 
        1.33765        0.805853        0.610533 
        1.34378        0.796668        0.603791 
        1.34992        0.791484        0.597145 
        1.35606        0.781145        0.590586 
         1.3622        0.775728        0.584136 
        1.36833        0.767337        0.577799 
        1.37445        0.757802        0.571558 
        1.38059        0.752338        0.565391 
        1.38675        0.749351        0.559299 
        1.39288        0.739049        0.553322 
        1.39901        0.731716        0.547435 
        1.40515        0.725621         0.54162 
         1.4113        0.718245        0.535891 
        1.41742        0.711626        0.530268 
        1.42355         0.70846        0.524714 
         1.4297        0.698491        0.519223 
        1.43585        0.692722        0.513814 
        1.44198        0.689342        0.508501 
        1.44809        0.679999        0.503274 
        1.45423        0.674636        0.498101 
        1.46036        0.668475         0.49301 
        1.46649        0.662606        0.487988 
        1.47263        0.656287        0.483032 
        1.47877        0.649821        0.478147 
        1.48491        0.644408        0.473322 
        1.49104        0.638286        0.468573 
        1.49718        0.634287        0.463886 
        1.50333        0.627223        0.459255 
        1.50947        0.623088        0.454697 
         1.5156        0.616963        0.450208 
        1.52172        0.611453        0.445779 
        1.52787        0.605517          0.4414 
          1.534        0.601371        0.437086 
        1.54013        0.594797        0.432834 
        1.54627        0.590035         0.42863 
        1.55241        0.584636        0.424482 
        1.55855        0.580173        0.420395 
        1.56467        0.576924        0.416372 
         1.5708        0.569841        0.412391 
        1.57695        0.567129        0.408455 
        1.58308        0.562032         0.40458 
        1.58922        0.556751        0.400752 
        1.59535        0.552342        0.396976 
         1.6015        0.547714        0.393242 
        1.60764         0.54392        0.389558 
        1.61376        0.538562        0.385932 
        1.61989        0.534892        0.382348 
        1.62604         0.52976        0.378802 
        1.63218        0.527132        0.375303 
        1.63831        0.521942        0.371857 
        1.64444        0.517592        0.368452 
        1.65059        0.513854        0.365082 
        1.65673        0.508698        0.361757 
        1.66285        0.505311        0.358483 
        1.66898        0.503118        0.355249 
        1.67512         0.49679        0.352048 
        1.68127        0.492809        0.348883 
         1.6874        0.490875        0.345765 
        1.69353        0.485787        0.342686 
        1.69967        0.481806        0.339638 
        1.70581        0.478966        0.336627 
        1.71193        0.474871        0.333665 
        1.71806        0.471679        0.330732 
        1.72421        0.467777        0.327828 
        1.73035        0.463399        0.324962 
        1.73649        0.461376        0.322131 
        1.74262        0.457506        0.319336 
        1.74876        0.453383        0.316572 
        1.75489        0.449539        0.313847 
        1.76101        0.446572        0.311154 
        1.76715        0.443404         0.30849 
        1.77329        0.440542        0.305853 
        1.77943        0.436315        0.303246 
        1.78557        0.433313        0.300673 
        1.79171        0.430843        0.298129 
        1.79785        0.427201        0.295614 
        1.80399        0.424312        0.293129 
        1.81012         0.42147        0.290675 
        1.81625        0.418204        0.288251 
        1.82239        0.415739        0.285851 
        1.82853        0.411007        0.283479 
        1.83466        0.408991        0.281136 
        1.84078        0.405246        0.278822 
        1.84692         0.40357         0.27653 
        1.85306        0.400977        0.274261 
         1.8592        0.398032        0.272021 
        1.86533        0.395289        0.269808 
        1.87147        0.392347        0.267616 
        1.87761        0.389577        0.265448 
        1.88375        0.385971        0.263306 
        1.88988        0.384325         0.26119 
        1.89601        0.380972        0.259096 
        1.90215        0.378694        0.257023 
        1.90829        0.375524        0.254974 
        1.91442          0.3733        0.252947 
        1.92056        0.371001        0.250944 
         1.9267        0.367803        0.248961 
        1.93284        0.366089        0.246997 
        1.93897        0.363031        0.245059 
        1.94509         0.36109        0.243145 
        1.95123         0.35814        0.241247 
        1.95737        0.356169        0.239368 
        1.96349        0.353035        0.237514 
        1.96964        0.351423        0.235674 
        1.97578         0.34862        0.233852 
        1.98192        0.347045        0.232053 
        1.98805        0.344134        0.230273 
        1.99419        0.342179        0.228512 
        2.00033        0.340592        0.226768 
        2.00647        0.337645        0.225043 
         2.0126        0.335386        0.223338 
        2.01874        0.333546        0.221649 
        2.02488         0.33177        0.219975 
        2.03101        0.328535        0.218322 
        2.03714        0.326116        0.216687 
        2.04328        0.325285        0.215067 
        2.04941         0.32274        0.213465 
        2.05554        0.320487        0.211881 
        2.06167        0.318509         0.21031 
        2.06781         0.31592        0.208755 
        2.07396        0.313785        0.207213 
        2.08009         0.31218         0.20569 
        2.08622        0.310255        0.204183 
        2.09237        0.308983        0.202689 
        2.09851        0.306942         0.20121 
        2.10464        0.304994        0.199747 
        2.11077        0.303059        0.198301 
        2.11691        0.300837        0.196866 
        2.12305        0.299085        0.195445 
        2.12918        0.297418        0.194041 
        2.13531         0.29519        0.192651 
        2.14145        0.293988        0.191272 
         2.1476        0.291758        0.189904 
        2.15372        0.290678        0.188556 
        2.15985        0.288037         0.18722 
        2.16599        0.285977        0.185894 
        2.17213        0.284833        0.184581 
        2.17827        0.283479        0.183282 
         2.1844        0.281964        0.181996 
        2.19054        0.280027        0.180722 
        2.19666        0.277928        0.179461 
         2.2028        0.276699        0.178212 
        2.20893        0.275208        0.176974 
        2.21508        0.273392        0.175747 
        2.22122        0.270866         0.17453 
        2.22736         0.26983        0.173328 
        2.23349        0.268824        0.172137 
        2.23962        0.267198        0.170957 
        2.24577        0.264781        0.169786 
         2.2519        0.263915        0.168628 
        2.25802        0.261954        0.167483 
        2.26417        0.260538        0.166346 
        2.27031        0.258887        0.165217 
        2.27644        0.257739        0.164103 
        2.28257        0.256219        0.162999 
        2.28872        0.254701        0.161902 
        2.29486        0.253188        0.160816 
        2.30099        0.251686        0.159743 
        2.30712        0.250518        0.158678 
        2.31326        0.248928        0.157621 
         2.3194        0.248384        0.156575 
        2.32553        0.246681         0.15554 
        2.33166        0.245469        0.154514 
         2.3378        0.244018        0.153497 
        2.34394        0.241799        0.152488 
        2.35007        0.240878         0.15149 
        2.35619        0.239697        0.150501 
        2.36233        0.237732         0.14952 
        2.36848        0.237023        0.148545 
        2.37462        0.235232         0.14758 
        2.38075        0.234714        0.146625 
        2.38689        0.232914        0.145678 
        2.39303        0.232169         0.14474 
        2.39916        0.230177         0.14381 
        2.40529        0.229325        0.142889 
        2.41143        0.228145        0.141975 
        2.41757        0.227018        0.141068 
         2.4237        0.225765        0.140172 
        2.42983        0.224537        0.139283 
        2.43598          0.2236        0.138399 
        2.44211        0.222441        0.137525 
        2.44823        0.221244         0.13666 
        2.45437        0.219484          0.1358 
        2.46052        0.218985        0.134946 
        2.46665        0.217428        0.134102 
        2.47279        0.216392        0.133265 
        2.47892        0.215129        0.132434 
        2.48507        0.214156         0.13161 
         2.4912        0.213158        0.130794 
