# k  (h/Mpc)    Pcb(k)  (Mpc/h)^3    Pcb_linear(k)  (Mpc/h)^3
     0.00783031         11574.1         11619.5 
       0.013688         14537.1         14891.8 
       0.019231         15458.1         15685.3 
      0.0249154         15100.3         15112.1 
      0.0312784         13488.8           13664 
      0.0375637         11796.8         12046.4 
      0.0433917         10603.9         10714.6 
      0.0492413         9474.38         9659.43 
      0.0555754         8707.89         8821.19 
      0.0619321         7851.07         8199.79 
       0.067871         7481.14         7707.95 
      0.0738098         7050.95         7216.26 
      0.0800417         6509.43         6653.99 
      0.0862327         5893.85         6051.54 
      0.0921407         5358.28         5472.64 
      0.0982031          4893.3         4922.71 
       0.104506         4369.56         4439.22 
       0.110769         4033.24         4065.67 
       0.116806         3845.65         3799.46 
       0.122832         3609.63         3601.89 
       0.129052         3436.99         3436.56 
       0.135211         3340.58          3279.9 
       0.141259         3121.74         3111.99 
       0.147318         2903.63         2923.03 
       0.153489         2742.28         2715.62 
       0.159709         2620.79         2506.59 
       0.165845         2387.18         2316.79 
       0.171974         2316.55         2155.33 
       0.178125         2229.12         2025.91 
       0.184229         2059.36         1926.87 
        0.19034         2028.49         1848.92 
       0.196428         1973.22         1781.96 
       0.202534         1859.61         1715.87 
       0.208729         1826.87         1643.27 
       0.214876          1752.6          1563.7 
       0.220989          1658.8         1479.35 
       0.227147         1615.43         1394.06 
        0.23329         1551.65         1314.15 
       0.239377         1535.45          1244.2 
       0.245482         1461.46         1185.04 
       0.251667         1407.57         1135.75 
       0.257832            1389         1094.76 
       0.263955         1326.04         1058.59 
       0.270079         1291.91         1023.61 
        0.27624          1239.5         987.248 
       0.282372         1223.13         948.911 
        0.28843          1206.8         909.439 
       0.294538         1149.76         869.413 
       0.300721         1124.83         830.527 
        0.30691         1101.53         794.753 
       0.313033         1058.35         763.348 
       0.319153          1045.7         735.915 
       0.325316         1032.51         711.622 
        0.33145         1012.04         689.658 
       0.337538         978.369         668.926 
       0.343633          955.04         648.292 
       0.349808           936.2         627.086 
       0.355968         919.134         605.554 
       0.362074         891.075          584.26 
       0.368217         888.385         563.398 
       0.374374         874.903          543.61 
       0.380519         843.703         525.351 
       0.386598         838.261         508.825 
       0.392688         819.769         493.713 
        0.39888         800.326         479.462 
       0.405048         786.915         466.007 
       0.411186         784.561         453.019 
       0.417313          780.72          440.19 
       0.423458         756.405         427.404 
       0.429607         736.117         414.759 
       0.435692         729.343         402.513 
       0.441815         716.427         390.647 
       0.447964         706.671         379.343 
       0.454126          697.95         368.674 
       0.460267         688.172         358.694 
       0.466387         678.154         349.331 
        0.47254         666.597         340.361 
       0.478662         656.812         331.747 
       0.484765         650.795         323.388 
       0.490885         643.644         315.181 
       0.497035         631.991          307.08 
       0.503198         631.646         299.148 
       0.509342         619.156         291.483 
       0.515458         607.777         284.138 
       0.521598         603.292         277.067 
       0.527764         591.299         270.278 
       0.533884         587.595         263.845 
           0.54         581.587         257.686 
       0.546137         572.497         251.722 
       0.552299         570.571         245.908 
       0.558452         563.216         240.257 
       0.564573         557.605         234.778 
       0.570708         552.832         229.428 
       0.576825         542.118         224.233 
       0.582926         540.095         219.203 
       0.589034         532.581         214.328 
       0.595184         528.068         209.593 
       0.601379         520.184             205 
       0.607522         512.162         200.602 
       0.613639         511.048          196.36 
       0.619772         508.565         192.231 
       0.625918         499.763         188.207 
       0.632068         496.397          184.29 
       0.638161         491.451         180.514 
         0.6443          486.56         176.809 
       0.650464         481.837         173.189 
       0.656582         478.066         169.693 
       0.662703         473.605         166.294 
       0.668861         467.748         162.973 
       0.675024         464.768         159.749 
       0.681124         458.576         156.652 
       0.687237         456.834         153.637 
       0.693381         450.745         150.689 
       0.699536         448.656         147.812 
       0.705665         443.954          145.02 
       0.711789         442.823         142.298 
       0.717957         436.257         139.625 
        0.72409         432.357         137.034 
       0.730186         434.038         134.525 
       0.736317         426.579         132.067 
       0.742472         422.427         129.663 
       0.748622         419.407         127.325 
        0.75476         416.887         125.051 
       0.760888          413.67         122.837 
       0.767043         410.784         120.669 
       0.773185         408.422         118.558 
       0.779291         402.845         116.508 
       0.785407         401.089         114.503 
       0.791564         397.879         112.532 
       0.797719         392.138         110.609 
       0.803834         394.786         108.743 
       0.809972         388.707         106.913 
       0.816124         385.017         105.122 
       0.822261         382.093         103.378 
       0.828378         380.936         101.679 
       0.834502         375.218         100.018 
       0.840667         375.491          98.383 
       0.846816         369.586           96.79 
       0.852925         370.059         95.2426 
       0.859047         366.667          93.726 
       0.865192         365.366         92.2375 
       0.871341         360.374         90.7804 
       0.877463          358.02         89.3615 
       0.883569         355.791         87.9766 
       0.889708         352.729          86.614 
       0.895864         350.068         85.2769 
       0.902008         348.391          83.971 
       0.908149         345.574         82.6934 
       0.914301          343.91         81.4404 
       0.920448         341.535         80.2147 
       0.926574         339.501         79.0187 
       0.932687         337.566         77.8498 
       0.938823         334.078         76.7005 
       0.944975         333.121         75.5719 
       0.951105         330.257         74.4703 
       0.957225         326.504         73.3926 
       0.963368         327.033         72.3327 
       0.969511         321.105         71.2938 
       0.975621          321.06          70.281 
       0.981748         319.237         69.2854 
       0.987916         317.468         68.3029 
        0.99406         314.717         67.3432 
        1.00019         311.966          66.404 
        1.00632         311.919         65.4836 
        1.01246         309.342         64.5794 
        1.01859         305.731         63.6938 
        1.02471         303.938         62.8259 
        1.03085         303.355         61.9714 
        1.03698          301.33         61.1346 
        1.04314         300.612         60.3097 
        1.04929         298.419         59.5021 
        1.05541         295.156         58.7126 
        1.06154         293.751         57.9355 
        1.06769          291.12         57.1713 
        1.07382         290.639         56.4236 
        1.07993         287.879         55.6909 
        1.08607         286.102         54.9683 
        1.09222         284.484         54.2578 
        1.09836         283.629         53.5608 
        1.10449         281.401         52.8769 
        1.11063         279.107         52.2042 
        1.11677         277.124         51.5436 
         1.1229         276.226         50.8955 
        1.12903         274.549         50.2581 
        1.13518         272.465         49.6311 
        1.14131         271.852         49.0151 
        1.14745         268.528           48.41 
        1.15359         266.733         47.8151 
        1.15973         265.999           47.23 
        1.16584         264.733         46.6573 
        1.17197         262.861         46.0933 
        1.17811         260.696          45.537 
        1.18424         259.349         44.9914 
        1.19038          258.16         44.4533 
        1.19652          255.33         43.9242 
        1.20267         255.002         43.4038 
        1.20881         253.036         42.8919 
        1.21495         252.531         42.3891 
        1.22108          250.64         41.8945 
         1.2272         247.944          41.409 
        1.23334         247.277           40.93 
        1.23949         246.347         40.4575 
        1.24562         244.619         39.9939 
        1.25174         243.043         39.5382 
        1.25789         241.031         39.0882 
        1.26402         240.947         38.6461 
        1.27014         239.836         38.2119 
        1.27628         237.145          37.783 
        1.28244          236.28           37.36 
        1.28858         234.782          36.944 
        1.29471         233.722         36.5353 
        1.30084         232.386         36.1332 
        1.30697         230.267         35.7365 
        1.31312         229.082         35.3452 
        1.31925         227.887          34.961 
        1.32537         227.203         34.5829 
        1.33151         225.586         34.2091 
        1.33765         223.973          33.841 
        1.34378          222.87         33.4791 
        1.34992         221.435         33.1222 
        1.35606         220.425         32.7698 
         1.3622         219.162         32.4232 
        1.36833         217.347         32.0824 
        1.37445          217.24         31.7467 
        1.38059         215.143         31.4148 
        1.38675         213.757         31.0868 
        1.39288         212.797         30.7649 
        1.39901         211.421         30.4476 
        1.40515         210.694         30.1342 
         1.4113         208.993         29.8252 
        1.41742         207.348         29.5218 
        1.42355         207.863         29.2221 
         1.4297         205.828         28.9256 
        1.43585         204.744         28.6334 
        1.44198         202.912         28.3463 
        1.44809         202.215         28.0637 
        1.45423         201.318          27.784 
        1.46036             200         27.5085 
        1.46649          198.91         27.2367 
        1.47263         198.197         26.9684 
        1.47877         196.733         26.7038 
        1.48491         195.144         26.4423 
        1.49104         193.555         26.1849 
        1.49718         193.105         25.9307 
        1.50333         191.786         25.6795 
        1.50947         190.989         25.4322 
         1.5156         189.873         25.1884 
        1.52172         188.947         24.9479 
        1.52787         187.853           24.71 
          1.534         186.878         24.4755 
        1.54013         185.828         24.2444 
        1.54627         184.816         24.0157 
        1.55241         183.987           23.79 
        1.55855         183.198         23.5676 
        1.56467         181.695         23.3486 
         1.5708         180.353         23.1317 
        1.57695         179.824         22.9173 
        1.58308         178.551         22.7061 
        1.58922         177.839         22.4974 
        1.59535         176.377         22.2914 
         1.6015         175.603         22.0878 
        1.60764         174.649         21.8867 
        1.61376         173.446         21.6888 
        1.61989         172.659         21.4931 
        1.62604         171.424         21.2994 
        1.63218         170.815         21.1082 
        1.63831         169.898         20.9198 
        1.64444         168.661         20.7336 
        1.65059         167.948         20.5492 
        1.65673          166.91         20.3673 
        1.66285         166.325         20.1881 
        1.66898         165.101         20.0111 
        1.67512         164.315         19.8357 
        1.68127         163.415         19.6624 
         1.6874         162.405         19.4915 
        1.69353         161.904         19.3227 
        1.69967         160.584         19.1555 
        1.70581         160.165         18.9904 
        1.71193         158.838         18.8279 
        1.71806         157.733         18.6669 
        1.72421          157.27         18.5074 
        1.73035         156.306         18.3501 
        1.73649         155.171         18.1945 
        1.74262         154.763         18.0409 
        1.74876         153.868          17.889 
        1.75489         153.042         17.7391 
        1.76101         151.931         17.5911 
        1.76715         151.011         17.4444 
        1.77329         150.362         17.2993 
        1.77943          149.25         17.1558 
        1.78557         148.874         17.0141 
        1.79171         148.049          16.874 
        1.79785          146.86         16.7354 
        1.80399         146.237         16.5985 
        1.81012         145.151         16.4632 
        1.81625         144.811         16.3295 
        1.82239         143.776         16.1971 
        1.82853         143.212         16.0663 
        1.83466         142.132          15.937 
        1.84078          141.66         15.8092 
        1.84692         141.175         15.6827 
        1.85306         139.998         15.5574 
         1.8592         139.489         15.4336 
        1.86533         138.288         15.3113 
        1.87147         137.979         15.1901 
        1.87761         136.859         15.0703 
        1.88375         135.984         14.9518 
        1.88988         135.415         14.8347 
        1.89601         135.107         14.7189 
        1.90215         134.484         14.6042 
        1.90829         133.149         14.4907 
        1.91442         132.292         14.3785 
        1.92056         131.779         14.2675 
         1.9267         130.984         14.1576 
        1.93284          130.38         14.0488 
        1.93897         129.618         13.9414 
        1.94509         128.963         13.8353 
        1.95123         128.327           13.73 
        1.95737         127.773         13.6258 
        1.96349         126.992         13.5229 
        1.96964         126.244         13.4208 
        1.97578         125.634         13.3196 
        1.98192           125.1         13.2198 
        1.98805         124.345         13.1209 
        1.99419         123.403         13.0231 
        2.00033         122.982         12.9261 
        2.00647         122.404         12.8303 
         2.0126         121.694         12.7355 
        2.01874         121.323         12.6415 
        2.02488         120.184         12.5485 
        2.03101         119.848         12.4565 
        2.03714          119.04         12.3655 
        2.04328         118.634         12.2754 
        2.04941         118.096         12.1862 
        2.05554         117.456         12.0979 
        2.06167         116.469         12.0104 
        2.06781         115.869         11.9238 
        2.07396         115.482         11.8379 
        2.08009         114.551          11.753 
        2.08622           114.2          11.669 
        2.09237         113.453         11.5857 
        2.09851         112.943         11.5032 
        2.10464         112.454         11.4216 
        2.11077         111.788         11.3409 
        2.11691         111.361         11.2608 
        2.12305         110.656         11.1815 
        2.12918         110.046         11.1031 
        2.13531         109.524         11.0255 
        2.14145         108.787         10.9484 
         2.1476         108.282          10.872 
        2.15372         107.698         10.7967 
        2.15985         107.132         10.7221 
        2.16599         106.408         10.6479 
        2.17213         106.031         10.5745 
        2.17827         105.285         10.5018 
         2.1844         105.096         10.4299 
        2.19054         104.321         10.3586 
        2.19666         103.746         10.2881 
         2.2028         103.359         10.2182 
        2.20893         102.829         10.1488 
        2.21508         102.156         10.0801 
        2.22122         101.725          10.012 
        2.22736         101.326          9.9446 
        2.23349         100.613         9.87788 
        2.23962         100.084         9.81173 
        2.24577         99.6731         9.74613 
         2.2519         99.0172         9.68122 
        2.25802         98.5603         9.61701 
        2.26417         98.0329          9.5532 
        2.27031         97.3806         9.48991 
        2.27644          97.067         9.42737 
        2.28257         96.5056          9.3654 
        2.28872         96.1164         9.30387 
        2.29486         95.8878         9.24291 
        2.30099         94.9346         9.18262 
        2.30712         94.7125         9.12283 
        2.31326         94.2268         9.06348 
         2.3194         93.5612         9.00469 
        2.32553         93.0631         8.94652 
        2.33166         92.5782         8.88888 
         2.3378         92.4203         8.83168 
        2.34394         91.7825         8.77496 
        2.35007         91.0319         8.71882 
        2.35619         90.7834         8.66324 
        2.36233          90.384         8.60801 
        2.36848         89.7935         8.55314 
        2.37462         89.3885         8.49887 
        2.38075         88.9172         8.44513 
        2.38689         88.5762          8.3918 
        2.39303         88.1155         8.33894 
        2.39916         87.6761          8.2866 
        2.40529         87.2672          8.2347 
        2.41143         86.8419         8.18321 
        2.41757         86.3038         8.13214 
         2.4237         85.7827          8.0816 
        2.42983         85.4035          8.0315 
        2.43598         85.1571         7.98168 
        2.44211         84.5741         7.93237 
        2.44823         84.2101         7.88358 
        2.45437         83.8047         7.83507 
        2.46052         83.3277         7.78693 
        2.46665         82.7789         7.73928 
        2.47279         82.5034         7.69204 
        2.47892         82.0321         7.64516 
        2.48507          81.698         7.59863 
         2.4912         81.1531         7.55258 
