# k  (h/Mpc)    P(k)  (Mpc/h)^3    P_linear(k)  (Mpc/h)^3
     0.00783031         169.906         171.204 
       0.013688         218.412         220.008 
       0.019231         231.289         231.901 
      0.0249154         223.272         223.502 
      0.0312784         202.016         202.126 
      0.0375637         178.147         178.218 
      0.0433917         158.813         158.525 
      0.0492413         143.003          142.92 
      0.0555754         130.846         130.523 
      0.0619321         121.043         121.331 
       0.067871         114.057         114.056 
      0.0738098          106.79         106.782 
      0.0800417         98.5697         98.4628 
      0.0862327         89.5515         89.5489 
      0.0921407         80.9832         80.9832 
      0.0982031         72.9855          72.846 
       0.104506         65.6452         65.6918 
       0.110769         60.1487         60.1642 
       0.116806         56.3612          56.225 
       0.122832         53.2877         53.3016 
       0.129052         50.9191         50.8551 
       0.135211         48.6383         48.5369 
       0.141259         46.0561         46.0522 
       0.147318         43.1664          43.256 
       0.153489         40.1866         40.1868 
       0.159709         37.1503         37.0935 
       0.165845         34.2032          34.285 
       0.171974         32.0009         31.8957 
       0.178125         30.0712         29.9804 
       0.184229         28.5376         28.5148 
        0.19034         27.4759         27.3612 
       0.196428         26.4437         26.3704 
       0.202534         25.3497         25.3923 
       0.208729         24.3619         24.3181 
       0.214876          23.249         23.1405 
       0.220989         21.8777         21.8922 
       0.227147         20.7576         20.6301 
        0.23329         19.5912         19.4476 
       0.239377         18.5672         18.4124 
       0.245482         17.6841          17.537 
       0.251667         16.8989         16.8075 
       0.257832         16.3536         16.2009 
       0.263955         15.7665         15.6656 
       0.270079         15.2462          15.148 
        0.27624         14.6611           14.61 
       0.282372          14.105         14.0426 
        0.28843         13.5907         13.4584 
       0.294538         12.9865         12.8661 
       0.300721         12.3724         12.2907 
        0.30691          11.902         11.7613 
       0.313033         11.4217         11.2965 
       0.319153         11.0819         10.8905 
       0.325316         10.6282          10.531 
        0.33145         10.3024          10.206 
       0.337538         10.0127         9.89922 
       0.343633         9.72521         9.59385 
       0.349808         9.39454         9.28009 
       0.355968         9.06895         8.96138 
       0.362074         8.78188         8.64627 
       0.368217         8.46742         8.33755 
       0.374374          8.2153         8.04467 
       0.380519         7.90453         7.77452 
       0.386598         7.64657         7.52992 
       0.392688         7.41468          7.3063 
        0.39888         7.22107         7.09541 
       0.405048         7.02582         6.89629 
       0.411186         6.82663         6.70412 
       0.417313         6.64188         6.51423 
       0.423458         6.43035         6.32502 
       0.429607         6.27225         6.13789 
       0.435692         6.09955         5.95667 
       0.441815         5.90513         5.78104 
       0.447964          5.7201          5.6138 
       0.454126         5.58624          5.4559 
       0.460267         5.46001          5.3082 
       0.466387         5.30838         5.16965 
        0.47254         5.18346          5.0369 
       0.478662         5.04779         4.90942 
       0.484765         4.92667         4.78571 
       0.490885         4.79476         4.66429 
       0.497035         4.65996         4.54439 
       0.503198         4.55793         4.42701 
       0.509342         4.43061         4.31357 
       0.515458         4.33577         4.20488 
       0.521598         4.23202         4.10023 
       0.527764         4.14543         3.99975 
       0.533884         4.02451         3.90457 
           0.54         3.94133         3.81342 
       0.546137         3.84019         3.72517 
       0.552299         3.76149         3.63913 
       0.558452         3.67859         3.55549 
       0.564573         3.60098         3.47442 
       0.570708          3.5206         3.39524 
       0.576825         3.44324         3.31836 
       0.582926         3.36177         3.24392 
       0.589034         3.30185         3.17178 
       0.595184         3.23616         3.10171 
       0.601379         3.15723         3.03374 
       0.607522         3.08968         2.96865 
       0.613639         3.01672         2.90588 
       0.619772         2.96824         2.84477 
       0.625918         2.90682         2.78523 
       0.632068         2.84991         2.72726 
       0.638161         2.79198         2.67137 
         0.6443         2.73461         2.61655 
       0.650464         2.68004         2.56297 
       0.656582         2.63725         2.51124 
       0.662703         2.58461         2.46094 
       0.668861         2.52197          2.4118 
       0.675024         2.47856         2.36408 
       0.681124         2.45332         2.31825 
       0.687237           2.395         2.27363 
       0.693381         2.33948            2.23 
       0.699536         2.31111         2.18744 
       0.705665         2.26732         2.14611 
       0.711789         2.21771         2.10584 
       0.717957          2.1796         2.06627 
        0.72409          2.1411         2.02793 
       0.730186         2.11193          1.9908 
       0.736317          2.0671         1.95442 
       0.742472         2.03664         1.91886 
       0.748622         2.00311         1.88425 
        0.75476         1.96132          1.8506 
       0.760888         1.93586         1.81784 
       0.767043          1.8859         1.78575 
       0.773185         1.86237          1.7545 
       0.779291         1.84071         1.72417 
       0.785407         1.80567          1.6945 
       0.791564         1.77624         1.66534 
       0.797719         1.74536         1.63687 
       0.803834         1.71658         1.60925 
       0.809972         1.68985         1.58218 
       0.816124          1.6627         1.55568 
       0.822261          1.6383         1.52986 
       0.828378         1.60921         1.50472 
       0.834502         1.58492         1.48013 
       0.840667         1.56373         1.45594 
       0.846816         1.53829         1.43237 
       0.852925         1.51073         1.40947 
       0.859047         1.48902         1.38703 
       0.865192         1.46772           1.365 
       0.871341         1.44748         1.34344 
       0.877463         1.42102         1.32244 
       0.883569         1.40126         1.30194 
       0.889708         1.38384         1.28178 
       0.895864         1.36354         1.26199 
       0.902008         1.34007         1.24267 
       0.908149         1.32341         1.22376 
       0.914301          1.3075         1.20522 
       0.920448         1.28827         1.18708 
       0.926574         1.27304         1.16938 
       0.932687         1.25348         1.15208 
       0.938823         1.23127         1.13507 
       0.944975           1.218         1.11837 
       0.951105         1.19585         1.10207 
       0.957225         1.18023         1.08612 
       0.963368         1.16721         1.07043 
       0.969511         1.15331         1.05506 
       0.975621         1.13482         1.04007 
       0.981748         1.11512         1.02534 
       0.987916         1.10214          1.0108 
        0.99406         1.09061        0.996595 
        1.00019         1.07514        0.982696 
        1.00632         1.06479        0.969075 
        1.01246          1.0493        0.955694 
        1.01859         1.03594        0.942588 
        1.02471         1.01884        0.929746 
        1.03085         1.00553        0.917099 
        1.03698        0.995523        0.904715 
        1.04314        0.982893        0.892509 
        1.04929        0.972813        0.880557 
        1.05541        0.955972        0.868873 
        1.06154        0.946936        0.857373 
        1.06769        0.935858        0.846065 
        1.07382        0.923715        0.834998 
        1.07993        0.912797        0.824156 
        1.08607        0.901433        0.813462 
        1.09222        0.888897        0.802948 
        1.09836        0.879728        0.792633 
        1.10449        0.867308        0.782512 
        1.11063        0.856652        0.772558 
        1.11677        0.848917        0.762781 
         1.1229          0.8353         0.75319 
        1.12903        0.828307        0.743757 
        1.13518        0.817161        0.734478 
        1.14131        0.809042        0.725363 
        1.14745        0.801713        0.716409 
        1.15359        0.790365        0.707604 
        1.15973        0.782552        0.698945 
        1.16584        0.771931         0.69047 
        1.17197        0.762692        0.682124 
        1.17811        0.753657        0.673891 
        1.18424        0.745485        0.665818 
        1.19038        0.736071        0.657854 
        1.19652        0.731177        0.650024 
        1.20267        0.723208        0.642322 
        1.20881        0.711648        0.634747 
        1.21495        0.705561        0.627307 
        1.22108        0.698408        0.619987 
         1.2272         0.68894        0.612801 
        1.23334        0.682475        0.605714 
        1.23949         0.67681        0.598722 
        1.24562        0.668818         0.59186 
        1.25174        0.661441        0.585116 
        1.25789        0.652613        0.578457 
        1.26402        0.647175        0.571914 
        1.27014        0.638546        0.565488 
        1.27628        0.633758        0.559143 
        1.28244        0.627388        0.552882 
        1.28858        0.619267        0.546726 
        1.29471        0.613299        0.540677 
        1.30084         0.60706        0.534726 
        1.30697        0.602654        0.528856 
        1.31312        0.596008        0.523065 
        1.31925        0.589469        0.517379 
        1.32537        0.583836        0.511784 
        1.33151        0.577564        0.506252 
        1.33765        0.571605        0.500805 
        1.34378        0.564614        0.495449 
        1.34992        0.561795        0.490168 
        1.35606        0.554715        0.484953 
         1.3622        0.549657        0.479823 
        1.36833         0.54521         0.47478 
        1.37445        0.540103        0.469812 
        1.38059        0.534225          0.4649 
        1.38675        0.528371        0.460047 
        1.39288        0.522504        0.455282 
        1.39901        0.519324        0.450587 
        1.40515         0.51356        0.445949 
         1.4113        0.510273        0.441377 
        1.41742        0.504647        0.436887 
        1.42355        0.497909        0.432451 
         1.4297        0.495884        0.428064 
        1.43585        0.489645        0.423739 
        1.44198        0.485873        0.419491 
        1.44809        0.480481        0.415309 
        1.45423        0.477039        0.411169 
        1.46036        0.472238        0.407092 
        1.46649        0.467896         0.40307 
        1.47263        0.462465        0.399099 
        1.47877        0.461046        0.395183 
        1.48491        0.454098        0.391314 
        1.49104        0.452719        0.387505 
        1.49718        0.447155        0.383743 
        1.50333        0.443932        0.380026 
        1.50947        0.440283        0.376365 
         1.5156         0.43572        0.372758 
        1.52172        0.432462        0.369198 
        1.52787        0.427164        0.365678 
          1.534        0.424894        0.362208 
        1.54013        0.421084        0.358787 
        1.54627         0.41746        0.355404 
        1.55241        0.413378        0.352064 
        1.55855        0.410025        0.348771 
        1.56467        0.406865         0.34553 
         1.5708        0.402804        0.342321 
        1.57695        0.399393        0.339148 
        1.58308        0.394772        0.336023 
        1.58922        0.393137        0.332935 
        1.59535        0.388973        0.329886 
         1.6015        0.386153        0.326872 
        1.60764        0.382727        0.323897 
        1.61376        0.379584        0.320967 
        1.61989        0.376139        0.318071 
        1.62604        0.373071        0.315205 
        1.63218         0.37083        0.312375 
        1.63831        0.367008        0.309587 
        1.64444        0.364402        0.306832 
        1.65059        0.360675        0.304104 
        1.65673        0.358188        0.301412 
        1.66285        0.355937         0.29876 
        1.66898        0.352437        0.296139 
        1.67512        0.349489        0.293545 
        1.68127        0.346384        0.290979 
         1.6874        0.344259         0.28845 
        1.69353        0.341344        0.285953 
        1.69967         0.33829        0.283479 
        1.70581        0.336488        0.281035 
        1.71193         0.33403         0.27863 
        1.71806        0.330931        0.276247 
        1.72421        0.328214        0.273888 
        1.73035        0.325404        0.271559 
        1.73649        0.323804        0.269257 
        1.74262        0.320352        0.266984 
        1.74876        0.318681        0.264736 
        1.75489        0.316159        0.262518 
        1.76101        0.313383        0.260326 
        1.76715        0.311362        0.258157 
        1.77329        0.308546        0.256009 
        1.77943        0.306198        0.253885 
        1.78557        0.304872        0.251788 
        1.79171        0.302394        0.249715 
        1.79785        0.299577        0.247664 
        1.80399        0.296775        0.245637 
        1.81012        0.295488        0.243636 
        1.81625        0.293558        0.241657 
        1.82239        0.291667        0.239698 
        1.82853        0.288833        0.237761 
        1.83466        0.286607        0.235848 
        1.84078        0.284572        0.233957 
        1.84692        0.282563        0.232085 
        1.85306        0.280734         0.23023 
         1.8592        0.278669        0.228399 
        1.86533        0.276937        0.226589 
        1.87147        0.274582        0.224796 
        1.87761         0.27257        0.223022 
        1.88375        0.270542        0.221269 
        1.88988        0.268624        0.219536 
        1.89601        0.266148        0.217822 
        1.90215        0.264743        0.216124 
        1.90829        0.262541        0.214445 
        1.91442         0.26141        0.212784 
        1.92056        0.259905        0.211142 
         1.9267        0.257566        0.209516 
        1.93284        0.255394        0.207906 
        1.93897        0.254068        0.206316 
        1.94509        0.252314        0.204746 
        1.95123         0.25029        0.203188 
        1.95737         0.24888        0.201645 
        1.96349        0.247075        0.200123 
        1.96964        0.245225        0.198611 
        1.97578        0.243513        0.197115 
        1.98192        0.242392        0.195637 
        1.98805        0.240791        0.194174 
        1.99419         0.23944        0.192726 
        2.00033        0.237383        0.191292 
        2.00647        0.235778        0.189872 
         2.0126        0.234473         0.18847 
        2.01874        0.232999         0.18708 
        2.02488        0.231385        0.185702 
        2.03101        0.229512        0.184341 
        2.03714        0.228902        0.182995 
        2.04328        0.226406        0.181661 
        2.04941        0.225597        0.180341 
        2.05554        0.224125        0.179035 
        2.06167        0.222549         0.17774 
        2.06781        0.220447        0.176458 
        2.07396        0.219633        0.175187 
        2.08009         0.21822        0.173931 
        2.08622        0.217056        0.172688 
        2.09237        0.215403        0.171455 
        2.09851        0.213792        0.170234 
        2.10464        0.212638        0.169026 
        2.11077        0.211136        0.167832 
        2.11691        0.210118        0.166647 
        2.12305        0.208232        0.165473 
        2.12918        0.207123        0.164313 
        2.13531        0.206063        0.163165 
        2.14145        0.204647        0.162024 
         2.1476        0.203551        0.160893 
        2.15372          0.2023        0.159779 
        2.15985        0.200875        0.158674 
        2.16599        0.199458        0.157576 
        2.17213        0.198726         0.15649 
        2.17827        0.197288        0.155415 
         2.1844        0.196222         0.15435 
        2.19054        0.195183        0.153295 
        2.19666        0.193982        0.152251 
         2.2028         0.19228        0.151217 
        2.20893        0.191517        0.150191 
        2.21508         0.19032        0.149174 
        2.22122        0.189333        0.148165 
        2.22736        0.187945        0.147169 
        2.23349        0.186747        0.146181 
        2.23962        0.185792        0.145202 
        2.24577        0.184873        0.144231 
         2.2519        0.183645        0.143271 
        2.25802        0.182586        0.142321 
        2.26417        0.181764        0.141376 
        2.27031        0.180359         0.14044 
        2.27644        0.179948        0.139514 
        2.28257        0.178473        0.138597 
        2.28872        0.177448        0.137687 
        2.29486        0.176501        0.136784 
        2.30099         0.17529        0.135892 
        2.30712        0.174461        0.135007 
        2.31326        0.173211        0.134129 
         2.3194        0.172494        0.133259 
        2.32553        0.171645        0.132398 
        2.33166         0.17046        0.131545 
         2.3378        0.169511        0.130699 
        2.34394        0.168642        0.129859 
        2.35007        0.167694        0.129028 
        2.35619        0.167046        0.128206 
        2.36233        0.165674        0.127388 
        2.36848        0.164971        0.126577 
        2.37462        0.164294        0.125773 
        2.38075        0.163248        0.124978 
        2.38689        0.162376        0.124189 
        2.39303        0.161553        0.123407 
        2.39916        0.160459        0.122632 
        2.40529        0.159604        0.121864 
        2.41143        0.158463        0.121102 
        2.41757        0.157824        0.120346 
         2.4237        0.157071        0.119598 
        2.42983        0.156484        0.118857 
        2.43598        0.155285         0.11812 
        2.44211        0.154129         0.11739 
        2.44823        0.153864        0.116668 
        2.45437        0.152993         0.11595 
        2.46052        0.152152        0.115238 
        2.46665        0.151197        0.114532 
        2.47279        0.150398        0.113833 
        2.47892        0.150078         0.11314 
        2.48507        0.148838        0.112451 
         2.4912        0.148317         0.11177 
