# k  (h/Mpc)    Pcb(k)  (Mpc/h)^3    Pcb_linear(k)  (Mpc/h)^3
     0.00783031         1756.44         1773.75 
       0.013688         2293.24         2292.96 
       0.019231         2411.52          2411.1 
      0.0249154         2296.94          2314.2 
      0.0312784         2083.27         2088.33 
      0.0375637         1850.72          1847.7 
      0.0433917          1650.5         1657.72 
      0.0492413         1510.68         1511.77 
      0.0555754         1384.17         1395.64 
      0.0619321         1307.68          1303.1 
       0.067871         1212.43         1220.67 
      0.0738098         1123.15         1131.92 
      0.0800417         1018.51         1030.62 
      0.0862327           921.6         928.004 
      0.0921407          834.59           836.9 
      0.0982031         752.963         757.461 
       0.104506         696.753         693.188 
       0.110769         648.769          646.27 
       0.116806         610.217         612.308 
       0.122832         584.678         583.609 
       0.129052          550.72         554.116 
       0.135211         518.723         521.942 
       0.141259         487.941         487.236 
       0.147318         454.821         451.316 
       0.153489         418.182          416.47 
       0.159709         389.359         385.741 
       0.165845         368.941         361.047 
       0.171974         346.307         341.783 
       0.178125         331.468         326.543 
       0.184229         319.507         313.605 
        0.19034         302.369         301.059 
       0.196428         292.651         287.796 
       0.202534         281.199         273.397 
       0.208729         264.804         258.115 
       0.214876         248.432         243.178 
       0.220989          238.56         229.457 
       0.227147         223.694         217.401 
        0.23329         214.125         207.301 
       0.239377         207.183         198.928 
       0.245482         196.947         191.635 
       0.251667         192.777         184.766 
       0.257832         185.899         177.938 
       0.263955         178.804         170.927 
       0.270079         172.001           163.7 
        0.27624         166.926          156.42 
       0.282372          159.84          149.46 
        0.28843         152.962         143.105 
       0.294538         147.032         137.362 
       0.300721         143.671         132.221 
        0.30691         137.599         127.627 
       0.313033         133.625         123.442 
       0.319153         127.729         119.433 
       0.325316         125.648         115.443 
        0.33145         121.095         111.465 
       0.337538         118.087         107.533 
       0.343633         113.943         103.684 
       0.349808         110.509          99.958 
       0.355968         107.389         96.4826 
       0.362074         104.057         93.2985 
       0.368217          101.21         90.3489 
       0.374374         98.2154         87.5961 
       0.380519         95.8417         84.9947 
       0.386598         93.3289         82.5129 
       0.392688         91.4405         80.0792 
        0.39888         88.8397         77.6505 
       0.405048         86.7891          75.284 
       0.411186          84.815         73.0012 
       0.417313         82.0564         70.8193 
       0.423458         80.1211         68.7425 
       0.429607         78.0043         66.7781 
       0.435692         75.6222         64.9424 
       0.441815         74.5924         63.1855 
       0.447964         73.3983         61.4929 
       0.454126         70.5126         59.8541 
       0.460267         69.3298         58.2678 
       0.466387         67.4958         56.7276 
        0.47254         66.5143         55.2225 
       0.478662         65.3567         53.7749 
       0.484765         63.5842         52.3855 
       0.490885         62.1941         51.0476 
       0.497035         61.3877         49.7596 
       0.503198         59.8338          48.524 
       0.509342         58.3495         47.3399 
       0.515458          57.273         46.2017 
       0.521598          56.412         45.0949 
       0.527764         55.2993         44.0171 
       0.533884         54.3473         42.9787 
           0.54         53.3115         41.9713 
       0.546137          52.504         40.9912 
       0.552299         51.7178         40.0393 
       0.558452         50.1596         39.1222 
       0.564573         49.4557         38.2415 
       0.570708         48.7719         37.3883 
       0.576825         47.6178          36.565 
       0.582926         46.7978         35.7692 
       0.589034         45.6084         34.9962 
       0.595184         45.0673         34.2408 
       0.601379         44.3691         33.5019 
       0.607522         43.5091         32.7899 
       0.613639         43.1978         32.1012 
       0.619772         42.0893         31.4307 
       0.625918         41.9087         30.7788 
       0.632068         41.2278         30.1461 
       0.638161         40.4398          29.538 
         0.6443         39.6812         28.9429 
       0.650464         39.0381         28.3624 
       0.656582         38.8023          27.802 
       0.662703         38.0711         27.2565 
       0.668861         37.4475         26.7223 
       0.675024           36.84          26.202 
       0.681124         36.2221          25.701 
       0.687237         35.6478         25.2123 
       0.693381         35.3644         24.7344 
       0.699536         34.5157         24.2684 
       0.705665         34.4502         23.8167 
       0.711789         33.7214         23.3771 
       0.717957         33.3201         22.9457 
        0.72409         32.8341         22.5277 
       0.730186         32.4023         22.1227 
       0.736317         32.1006         21.7256 
       0.742472         31.5547         21.3368 
       0.748622         31.2626         20.9581 
        0.75476          30.726         20.5895 
       0.760888         30.3484         20.2304 
       0.767043         30.0172         19.8786 
       0.773185         29.4961          19.536 
       0.779291         29.3476         19.2036 
       0.785407         28.9892         18.8785 
       0.791564         28.4796          18.559 
       0.797719          27.959         18.2471 
       0.803834         27.9039         17.9445 
       0.809972         27.6593         17.6477 
       0.816124         27.0106         17.3571 
       0.822261         26.8616         17.0739 
       0.828378         26.5687         16.7979 
       0.834502          26.294         16.5278 
       0.840667         25.9849         16.2621 
       0.846816         25.5607          16.003 
       0.852925         25.3457         15.7512 
       0.859047          25.066         15.5044 
       0.865192         24.8539         15.2621 
       0.871341         24.6722          15.025 
       0.877463         24.2385          14.794 
       0.883569         23.9513         14.5685 
       0.889708         23.6448         14.3466 
       0.895864         23.5054         14.1288 
       0.902008         23.3208          13.916 
       0.908149         23.0739         13.7078 
       0.914301         22.9197         13.5036 
       0.920448         22.4716         13.3038 
       0.926574         22.3235         13.1088 
       0.932687         22.1092         12.9181 
       0.938823         21.8295         12.7306 
       0.944975         21.5993         12.5464 
       0.951105         21.4524         12.3666 
       0.957225         21.2401         12.1906 
       0.963368         21.0465         12.0175 
       0.969511         20.8841         11.8478 
       0.975621         20.7033         11.6823 
       0.981748         20.4514         11.5196 
       0.987916         20.3208          11.359 
        0.99406         20.0645         11.2021 
        1.00019         19.7921         11.0485 
        1.00632         19.7779         10.8979 
        1.01246         19.5642           10.75 
        1.01859         19.2931          10.605 
        1.02471         19.2196          10.463 
        1.03085         19.0462          10.323 
        1.03698         18.7622          10.186 
        1.04314          18.666         10.0509 
        1.04929         18.4381         9.91856 
        1.05541         18.2665         9.78917 
        1.06154         18.1413          9.6618 
        1.06769         18.0594         9.53652 
        1.07382         17.8257         9.41389 
        1.07993         17.7325         9.29372 
        1.08607         17.5455         9.17518 
        1.09222         17.4195         9.05861 
        1.09836         17.2203         8.94421 
        1.10449         17.1247         8.83195 
        1.11063         16.9662         8.72151 
        1.11677         16.8853         8.61301 
         1.1229         16.7806         8.50657 
        1.12903         16.5894         8.40185 
        1.13518         16.4024         8.29882 
        1.14131          16.317          8.1976 
        1.14745         16.1918         8.09814 
        1.15359         16.0868         8.00032 
        1.15973         15.9623          7.9041 
        1.16584         15.7423         7.80991 
        1.17197         15.6842         7.71713 
        1.17811         15.5862         7.62558 
        1.18424         15.4546          7.5358 
        1.19038         15.3887         7.44722 
        1.19652         15.2352         7.36011 
        1.20267          15.084          7.2744 
        1.20881         15.0663         7.19009 
        1.21495         14.9428         7.10726 
        1.22108          14.777         7.02576 
         1.2272         14.6811         6.94573 
        1.23334         14.5422         6.86679 
        1.23949         14.4386         6.78889 
        1.24562         14.3965         6.71242 
        1.25174         14.2874         6.63726 
        1.25789          14.194         6.56303 
        1.26402         14.1239         6.49008 
        1.27014         14.0056         6.41842 
        1.27628         13.8393         6.34763 
        1.28244         13.7615         6.27779 
        1.28858         13.7419          6.2091 
        1.29471         13.5989         6.14159 
        1.30084         13.4772         6.07516 
        1.30697         13.4578         6.00962 
        1.31312         13.2744         5.94496 
        1.31925         13.2045         5.88146 
        1.32537         13.1455         5.81896 
        1.33151         13.0657         5.75715 
        1.33765         12.9605         5.69629 
        1.34378         12.8695         5.63643 
        1.34992         12.7741          5.5774 
        1.35606         12.7213         5.51909 
         1.3622          12.649         5.46173 
        1.36833         12.5519         5.40532 
        1.37445         12.4876         5.34975 
        1.38059          12.438          5.2948 
        1.38675         12.3182         5.24049 
        1.39288         12.2565         5.18717 
        1.39901         12.1361         5.13462 
        1.40515         12.0996         5.08268 
         1.4113         12.0353         5.03149 
        1.41742         11.9546          4.9812 
        1.42355         11.8645         4.93152 
         1.4297          11.786         4.88236 
        1.43585         11.7519          4.8339 
        1.44198         11.6966         4.78629 
        1.44809          11.601         4.73941 
        1.45423         11.5206           4.693 
        1.46036         11.4664         4.64729 
        1.46649         11.3987         4.60218 
        1.47263         11.3046         4.55763 
        1.47877         11.2534          4.5137 
        1.48491         11.1879         4.47028 
        1.49104         11.1292         4.42753 
        1.49718         11.0742          4.3853 
        1.50333         11.0097         4.34357 
        1.50947         10.9399         4.30246 
         1.5156         10.8802         4.26196 
        1.52172         10.8227         4.22197 
        1.52787         10.7519         4.18243 
          1.534         10.6909         4.14344 
        1.54013         10.6455         4.10499 
        1.54627         10.5589         4.06697 
        1.55241         10.5221         4.02942 
        1.55855         10.4758          3.9924 
        1.56467         10.3957         3.95596 
         1.5708         10.3735         3.91987 
        1.57695         10.2757         3.88417 
        1.58308         10.2289         3.84901 
        1.58922         10.1947         3.81426 
        1.59535         10.1493         3.77996 
         1.6015         10.0737         3.74603 
        1.60764          10.011         3.71254 
        1.61376         9.98663         3.67956 
        1.61989         9.92297         3.64695 
        1.62604         9.86566         3.61466 
        1.63218         9.83586         3.58279 
        1.63831           9.793         3.55138 
        1.64444         9.73855         3.52034 
        1.65059         9.64574         3.48959 
        1.65673         9.62977         3.45925 
        1.66285         9.54038         3.42936 
        1.66898         9.51828         3.39982 
        1.67512         9.47719         3.37056 
        1.68127         9.42204         3.34163 
         1.6874         9.38831          3.3131 
        1.69353         9.32971         3.28492 
        1.69967          9.2758         3.25701 
        1.70581          9.2298         3.22943 
        1.71193         9.19102         3.20228 
        1.71806         9.16986         3.17539 
        1.72421         9.09365         3.14875 
        1.73035         9.07464         3.12245 
        1.73649         9.03245         3.09646 
        1.74262         8.96638         3.07079 
        1.74876         8.94178         3.04539 
        1.75489         8.91237         3.02033 
        1.76101         8.83918         2.99557 
        1.76715         8.81553         2.97105 
        1.77329          8.7698         2.94677 
        1.77943         8.71107         2.92276 
        1.78557         8.70223         2.89905 
        1.79171          8.6448         2.87561 
        1.79785         8.60118         2.85242 
        1.80399         8.55008         2.82949 
        1.81012         8.52679         2.80684 
        1.81625         8.47311         2.78446 
        1.82239         8.44927         2.76229 
        1.82853         8.40337         2.74037 
        1.83466          8.3711         2.71871 
        1.84078         8.32358         2.69731 
        1.84692         8.31459          2.6761 
        1.85306         8.25225          2.6551 
         1.8592         8.20904         2.63436 
        1.86533           8.183         2.61386 
        1.87147         8.14849         2.59355 
        1.87761         8.11108         2.57345 
        1.88375         8.07512         2.55358 
        1.88988         8.04053         2.53395 
        1.89601         8.01078         2.51452 
        1.90215         7.97793         2.49527 
        1.90829         7.93609         2.47624 
        1.91442         7.90591          2.4574 
        1.92056         7.86684         2.43878 
         1.9267         7.83047         2.42033 
        1.93284         7.79756         2.40207 
        1.93897         7.76176         2.38403 
        1.94509         7.72577         2.36621 
        1.95123         7.69092         2.34853 
        1.95737         7.65189         2.33102 
        1.96349         7.62877         2.31374 
        1.96964         7.60146         2.29658 
        1.97578         7.55933         2.27959 
        1.98192         7.53458          2.2628 
        1.98805         7.50855         2.24619 
        1.99419         7.47782         2.22974 
        2.00033         7.45719         2.21344 
        2.00647         7.41717         2.19732 
         2.0126         7.39259         2.18138 
        2.01874         7.34688         2.16558 
        2.02488         7.32838         2.14992 
        2.03101         7.28326         2.13445 
        2.03714         7.25622         2.11915 
        2.04328         7.22467         2.10397 
        2.04941         7.19282         2.08896 
        2.05554         7.16415         2.07411 
        2.06167         7.14146         2.05938 
        2.06781         7.11535          2.0448 
        2.07396         7.09786         2.03033 
        2.08009         7.05984         2.01603 
        2.08622         7.02137         2.00189 
        2.09237         7.01821         1.98786 
        2.09851         6.98295         1.97395 
        2.10464         6.94905         1.96021 
        2.11077         6.91016         1.94661 
        2.11691         6.89354         1.93311 
        2.12305         6.87234         1.91974 
        2.12918         6.85346         1.90653 
        2.13531         6.81479         1.89344 
        2.14145         6.79344         1.88045 
         2.1476         6.75574         1.86756 
        2.15372          6.7372         1.85486 
        2.15985         6.72653         1.84227 
        2.16599         6.68133         1.82975 
        2.17213          6.6676         1.81737 
        2.17827         6.64626          1.8051 
         2.1844         6.61219         1.79296 
        2.19054         6.58823         1.78093 
        2.19666         6.55852         1.76903 
         2.2028         6.53522         1.75722 
        2.20893         6.52145         1.74552 
        2.21508         6.48341         1.73391 
        2.22122         6.46104         1.72241 
        2.22736         6.43866         1.71103 
        2.23349         6.43345         1.69976 
        2.23962         6.39692         1.68858 
        2.24577         6.36504          1.6775 
         2.2519         6.35971         1.66653 
        2.25802         6.32005         1.65568 
        2.26417         6.29875         1.64489 
        2.27031         6.27656         1.63419 
        2.27644         6.25321         1.62362 
        2.28257         6.23389         1.61314 
        2.28872         6.21438         1.60273 
        2.29486         6.18794         1.59242 
        2.30099          6.1668         1.58223 
        2.30712         6.14585         1.57211 
        2.31326         6.11072         1.56207 
         2.3194         6.10228         1.55212 
        2.32553         6.07632         1.54228 
        2.33166         6.06162         1.53252 
         2.3378         6.03859         1.52284 
        2.34394         6.01545         1.51324 
        2.35007         5.98466         1.50374 
        2.35619         5.97749         1.49432 
        2.36233         5.95776         1.48497 
        2.36848         5.92731         1.47568 
        2.37462         5.91343         1.46649 
        2.38075         5.89839         1.45738 
        2.38689         5.86778         1.44835 
        2.39303         5.85095         1.43939 
        2.39916         5.83255         1.43052 
        2.40529         5.80892         1.42173 
        2.41143         5.79495           1.413 
        2.41757         5.78003         1.40434 
         2.4237         5.76101         1.39578 
        2.42983         5.71864         1.38728 
        2.43598         5.72044         1.37883 
        2.44211         5.69299         1.37047 
        2.44823         5.67671          1.3622 
        2.45437         5.64897         1.35397 
        2.46052         5.63465          1.3458 
        2.46665         5.61969         1.33772 
        2.47279         5.59942          1.3297 
        2.47892         5.57946         1.32174 
        2.48507         5.56683         1.31385 
         2.4912         5.53695         1.30603 
