# k  (h/Mpc)    P(k)  (Mpc/h)^3    P_linear(k)  (Mpc/h)^3
     0.00783031         10555.3         10708.6 
       0.013688           12691         12614.1 
       0.019231           12329         12303.5 
      0.0249154         10802.2         10972.8 
      0.0312784         9078.26         9133.79 
      0.0375637         7524.99         7497.25 
      0.0433917         6285.48         6341.57 
      0.0492413         5539.75         5540.17 
      0.0555754          4890.8          4981.8 
      0.0619321         4645.07          4605.2 
       0.067871         4236.54         4302.54 
      0.0738098         3913.15         3973.43 
      0.0800417         3494.46         3574.26 
      0.0862327         3115.11         3145.54 
      0.0921407         2770.14         2750.38 
      0.0982031         2411.41         2400.92 
       0.104506         2198.06         2122.64 
       0.110769         2003.08         1932.83 
       0.116806         1870.72         1814.55 
       0.122832         1791.04         1733.92 
       0.129052         1680.72         1661.75 
       0.135211         1600.66         1579.51 
       0.141259         1523.25         1478.75 
       0.147318          1419.6         1360.83 
       0.153489          1286.6         1234.89 
       0.159709         1191.83         1116.36 
       0.165845         1118.11         1018.43 
       0.171974         1040.68         943.967 
       0.178125         987.572         891.021 
       0.184229         946.505           854.1 
        0.19034         890.974         824.825 
       0.196428          876.04         795.897 
       0.202534         847.698         762.114 
       0.208729         802.518         721.385 
       0.214876         757.514         676.317 
       0.220989         724.878         630.638 
       0.227147         684.244         587.812 
        0.23329         651.035         551.174 
       0.239377         632.765         521.953 
       0.245482         589.407          499.11 
       0.251667         583.906         480.712 
       0.257832         563.208         464.686 
       0.263955         544.444         448.902 
       0.270079          523.33         431.872 
        0.27624         515.544         413.095 
       0.282372         494.093         393.348 
        0.28843         478.962         373.828 
       0.294538         454.556          355.28 
       0.300721         449.704         338.503 
        0.30691         428.465         324.062 
       0.313033         419.186          311.93 
       0.319153         404.798         301.389 
       0.325316         393.636         291.684 
        0.33145         381.361         282.286 
       0.337538         375.584         272.799 
       0.343633         363.041         263.019 
       0.349808         350.526         252.948 
       0.355968         345.925         243.036 
       0.362074         338.428         233.653 
       0.368217         328.797         224.925 
       0.374374         315.573          216.98 
       0.380519         312.186          209.83 
       0.386598         304.099         203.374 
       0.392688         300.931         197.311 
        0.39888         292.582         191.383 
       0.405048         285.725         185.567 
       0.411186         279.923         179.807 
       0.417313          274.37         174.119 
       0.423458         268.738         168.531 
       0.429607         263.177         163.149 
       0.435692         255.917         158.109 
       0.441815         253.663         153.347 
       0.447964          248.45         148.872 
       0.454126         239.844         144.667 
       0.460267         236.436          140.69 
       0.466387         233.485         136.873 
        0.47254         228.339         133.146 
       0.478662         227.406         129.526 
       0.484765         219.651         125.991 
       0.490885         216.894         122.539 
       0.497035         213.365         119.187 
       0.503198          208.72         115.966 
       0.509342         206.521         112.895 
       0.515458         203.539         109.978 
       0.521598         199.494         107.185 
       0.527764         196.749         104.498 
       0.533884          194.23         101.926 
           0.54         191.125         99.4336 
       0.546137         189.926         97.0039 
       0.552299          186.03         94.6339 
       0.558452         183.949         92.3351 
       0.564573         181.033         90.1162 
       0.570708         177.385         87.9645 
       0.576825         175.141         85.8953 
       0.582926         172.414         83.9088 
       0.589034         170.591         81.9917 
       0.595184         168.618         80.1273 
       0.601379         166.448         78.3098 
       0.607522         163.274         76.5622 
       0.613639         162.262         74.8733 
       0.619772         158.866         73.2292 
       0.625918         157.414         71.6288 
       0.632068         155.386         70.0729 
       0.638161         154.278         68.5757 
         0.6443          152.02         67.1118 
       0.650464         150.431         65.6867 
       0.656582         148.528          64.316 
       0.662703         147.155         62.9867 
       0.668861         144.593         61.6891 
       0.675024         142.867         60.4278 
       0.681124         142.126         59.2142 
       0.687237         139.739         58.0304 
       0.693381         137.669         56.8724 
       0.699536         136.721         55.7433 
       0.705665         136.271         54.6495 
       0.711789         133.601         53.5864 
       0.717957         133.331         52.5449 
        0.72409         131.279         51.5377 
       0.730186         129.426         50.5637 
       0.736317         128.333           49.61 
       0.742472         127.536         48.6776 
       0.748622         126.298         47.7702 
        0.75476         125.167         46.8877 
       0.760888         123.451         46.0288 
       0.767043         122.912          45.188 
       0.773185         121.583         44.3699 
       0.779291         119.558         43.5769 
       0.785407         119.045         42.8022 
       0.791564         118.077         42.0417 
       0.797719         116.025         41.3002 
       0.803834         115.506         40.5816 
       0.809972         114.396         39.8777 
       0.816124         113.961         39.1891 
       0.822261         112.746         38.5187 
       0.828378         111.687         37.8662 
       0.834502         111.257         37.2282 
       0.840667         109.613         36.6009 
       0.846816         108.439         35.9898 
       0.852925         107.897         35.3966 
       0.859047         106.547         34.8155 
       0.865192         105.839         34.2456 
       0.871341         104.936         33.6882 
       0.877463         103.835         33.1457 
       0.883569          103.37         32.6165 
       0.889708         102.456         32.0963 
       0.895864         101.459         31.5861 
       0.902008          100.73         31.0882 
       0.908149         100.246         30.6013 
       0.914301         99.1878         30.1241 
       0.920448          98.418         29.6576 
       0.926574         97.7348         29.2026 
       0.932687         97.6159         28.7582 
       0.938823         96.0597         28.3214 
       0.944975         95.0719         27.8928 
       0.951105         94.6575         27.4746 
       0.957225         93.6556         27.0657 
       0.963368         92.8759         26.6638 
       0.969511         92.7557         26.2701 
       0.975621         92.2228         25.8865 
       0.981748         91.4915         25.5096 
       0.987916         90.5617         25.1378 
        0.99406         89.9103         24.7749 
        1.00019         89.5011         24.4199 
        1.00632         88.6918         24.0723 
        1.01246         88.1812         23.7309 
        1.01859         87.1577         23.3967 
        1.02471         86.7845         23.0694 
        1.03085         86.0095         22.7472 
        1.03698         85.7005         22.4319 
        1.04314         84.8551         22.1213 
        1.04929         84.3166         21.8173 
        1.05541         83.6187         21.5203 
        1.06154         83.3664          21.228 
        1.06769         83.0239         20.9408 
        1.07382         82.4543         20.6599 
        1.07993         81.8154         20.3848 
        1.08607         81.1936         20.1135 
        1.09222         80.9313         19.8469 
        1.09836         80.2106         19.5855 
        1.10449         79.7836         19.3291 
        1.11063         79.1435         19.0771 
        1.11677          78.797         18.8296 
         1.1229         77.9799         18.5869 
        1.12903         77.3756         18.3484 
        1.13518         77.5245         18.1138 
        1.14131         76.8848         17.8834 
        1.14745         76.2094         17.6572 
        1.15359         75.8324         17.4349 
        1.15973         75.4112         17.2163 
        1.16584         74.8072         17.0025 
        1.17197         74.4351          16.792 
        1.17811          73.984         16.5844 
        1.18424         73.4857         16.3809 
        1.19038         73.1188         16.1803 
        1.19652         72.7613         15.9831 
        1.20267         72.0147         15.7892 
        1.20881         71.7202         15.5985 
        1.21495         71.2355         15.4113 
        1.22108         70.9785         15.2273 
         1.2272         70.2034         15.0466 
        1.23334         70.0064         14.8685 
        1.23949         69.6089         14.6929 
        1.24562         69.1759         14.5206 
        1.25174         68.8034         14.3513 
        1.25789         68.5496         14.1842 
        1.26402         68.1048         14.0201 
        1.27014         67.6053          13.859 
        1.27628         67.2946            13.7 
        1.28244         66.8253         13.5431 
        1.28858         66.6076         13.3889 
        1.29471         66.2296         13.2375 
        1.30084         65.8556         13.0885 
        1.30697         65.4284         12.9417 
        1.31312         65.0573         12.7968 
        1.31925         64.7121         12.6547 
        1.32537         64.4933         12.5148 
        1.33151         63.8375         12.3766 
        1.33765         63.5929         12.2405 
        1.34378         63.2282         12.1068 
        1.34992         62.9745         11.9749 
        1.35606         62.6358         11.8447 
         1.3622         62.1187         11.7167 
        1.36833         61.9712          11.591 
        1.37445         61.6148         11.4671 
        1.38059         61.1268         11.3446 
        1.38675         60.8243         11.2237 
        1.39288         60.4943         11.1049 
        1.39901          60.342          10.988 
        1.40515         59.9137         10.8725 
         1.4113         59.6452         10.7587 
        1.41742         59.5499         10.6469 
        1.42355         58.9798         10.5366 
         1.4297         58.8299         10.4274 
        1.43585         58.3654         10.3199 
        1.44198         58.0809         10.2143 
        1.44809         57.8559         10.1103 
        1.45423         57.5392         10.0075 
        1.46036         57.3548         9.90621 
        1.46649         57.0113         9.80632 
        1.47263         56.6193         9.70772 
        1.47877         56.4229         9.61053 
        1.48491         56.2253         9.51452 
        1.49104         55.8348         9.42002 
        1.49718         55.3913         9.32674 
        1.50333         55.2589         9.23457 
        1.50947         55.0131         9.14384 
         1.5156         54.6781         9.05446 
        1.52172         54.5123         8.96628 
        1.52787         54.3597          8.8791 
          1.534          53.913         8.79319 
        1.54013         53.6055          8.7085 
        1.54627         53.4806         8.62477 
        1.55241         53.0126         8.54213 
        1.55855         52.8568         8.46069 
        1.56467         52.4845         8.38054 
         1.5708         52.4324          8.3012 
        1.57695         52.2042         8.22277 
        1.58308         51.7872         8.14554 
        1.58922         51.6812         8.06924 
        1.59535         51.5212         7.99395 
         1.6015         51.0011         7.91952 
        1.60764         50.8577         7.84607 
        1.61376         50.5754         7.77375 
        1.61989         50.3495         7.70229 
        1.62604         50.1815         7.63156 
        1.63218         50.0307         7.56177 
        1.63831         49.6788         7.49301 
        1.64444         49.4446         7.42508 
        1.65059         49.1845         7.35783 
        1.65673         48.9994         7.29148 
        1.66285         48.6543         7.22614 
        1.66898         48.5139         7.16157 
        1.67512         48.1843         7.09767 
        1.68127          47.992         7.03449 
         1.6874         47.8261         6.97222 
        1.69353         47.5505         6.91073 
        1.69967         47.3165         6.84985 
        1.70581         47.2344         6.78972 
        1.71193         47.0322         6.73054 
        1.71806           46.55         6.67195 
        1.72421         46.4954         6.61393 
        1.73035         46.2892         6.55667 
        1.73649          45.909          6.5001 
        1.74262         45.8408         6.44424 
        1.74876         45.6187           6.389 
        1.75489         45.4014         6.33453 
        1.76101         45.2342          6.2807 
        1.76715         44.9449         6.22743 
        1.77329         44.7672          6.1747 
        1.77943         44.5058         6.12257 
        1.78557         44.3636         6.07112 
        1.79171         44.1446         6.02024 
        1.79785          43.932         5.96994 
        1.80399         43.8502         5.92023 
        1.81012         43.5507         5.87115 
        1.81625         43.2429         5.82264 
        1.82239         43.1578         5.77461 
        1.82853         42.8679         5.72715 
        1.83466         42.7114         5.68027 
        1.84078          42.435         5.63396 
        1.84692         42.2733         5.58809 
        1.85306         42.0914         5.54268 
         1.8592         41.8159         5.49784 
        1.86533         41.7434         5.45352 
        1.87147         41.5612         5.40965 
        1.87761         41.4042         5.36623 
        1.88375         41.1623         5.32334 
        1.88988          41.091         5.28097 
        1.89601         40.8282         5.23903 
        1.90215         40.6763         5.19751 
        1.90829         40.5488         5.15647 
        1.91442         40.2976         5.11586 
        1.92056         40.0364         5.07573 
         1.9267           39.88         5.03598 
        1.93284         39.7143         4.99664 
        1.93897         39.5953         4.95779 
        1.94509         39.3063         4.91943 
        1.95123         39.2178         4.88139 
        1.95737         38.9966         4.84371 
        1.96349         38.7756         4.80654 
        1.96964         38.7517         4.76964 
        1.97578         38.4603         4.73312 
        1.98192         38.3357         4.69705 
        1.98805         38.2355         4.66135 
        1.99419          37.986         4.62603 
        2.00033          37.807         4.59105 
        2.00647         37.6143         4.55644 
         2.0126         37.4037         4.52225 
        2.01874         37.3795         4.48835 
        2.02488         37.1961         4.45478 
        2.03101         36.9873         4.42161 
        2.03714         36.8318          4.3888 
        2.04328         36.6527         4.35629 
        2.04941         36.4719         4.32414 
        2.05554         36.2817         4.29234 
        2.06167         36.2161         4.26081 
        2.06781         35.9769         4.22959 
        2.07396         35.8887         4.19864 
        2.08009         35.7395         4.16806 
        2.08622         35.4952         4.13781 
        2.09237         35.3766          4.1078 
        2.09851         35.2118         4.07809 
        2.10464         35.0936         4.04872 
        2.11077          34.977         4.01967 
        2.11691         34.7429         3.99085 
        2.12305         34.5825          3.9623 
        2.12918         34.4544          3.9341 
        2.13531         34.2723         3.90618 
        2.14145         34.1703         3.87846 
         2.1476         33.9856         3.85098 
        2.15372         33.8105          3.8239 
        2.15985         33.6872         3.79705 
        2.16599         33.6528         3.77039 
        2.17213         33.5107         3.74401 
        2.17827         33.2466         3.71789 
         2.1844          33.152         3.69204 
        2.19054         33.0034         3.66643 
        2.19666         32.8533         3.64109 
         2.2028         32.6619         3.61597 
        2.20893         32.6001         3.59108 
        2.21508         32.4899         3.56639 
        2.22122         32.2648         3.54193 
        2.22736         32.1991         3.51774 
        2.23349         32.0423         3.49379 
        2.23962         31.8265         3.47005 
        2.24577         31.7105         3.44651 
         2.2519         31.5813         3.42321 
        2.25802         31.4874         3.40017 
        2.26417         31.3312         3.37728 
        2.27031         31.2195         3.35458 
        2.27644         31.0436         3.33215 
        2.28257         30.9611         3.30993 
        2.28872           30.79         3.28786 
        2.29486         30.7157         3.26601 
        2.30099         30.5319         3.24439 
        2.30712         30.4299         3.22297 
        2.31326         30.2953          3.2017 
         2.3194         30.2017         3.18063 
        2.32553         30.0475         3.15979 
        2.33166         29.9412         3.13914 
         2.3378         29.7138         3.11865 
        2.34394         29.6345         3.09834 
        2.35007         29.5332         3.07823 
        2.35619         29.4008         3.05833 
        2.36233         29.3242         3.03856 
        2.36848          29.161         3.01892 
        2.37462         29.0344         2.99949 
        2.38075         28.9576         2.98025 
        2.38689         28.8584         2.96117 
        2.39303         28.6923         2.94226 
        2.39916         28.5253         2.92353 
        2.40529         28.3797         2.90496 
        2.41143         28.3594         2.88655 
        2.41757         28.2469         2.86828 
         2.4237         28.1116          2.8502 
        2.42983          27.926         2.83229 
        2.43598         27.8429         2.81447 
        2.44211         27.7102         2.79685 
        2.44823         27.6322         2.77941 
        2.45437         27.4984         2.76207 
        2.46052          27.306         2.74487 
        2.46665         27.2958         2.72784 
        2.47279         27.1766         2.71096 
        2.47892          27.024         2.69421 
        2.48507         26.9132         2.67759 
         2.4912         26.8428         2.66114 
