# k  (h/Mpc)    P(k)  (Mpc/h)^3    P_linear(k)  (Mpc/h)^3
     0.00783031         7958.64         8065.79 
       0.013688         10197.4         10150.6 
       0.019231         10430.8         10423.8 
      0.0249154         9606.63          9758.5 
      0.0312784         8480.39         8546.21 
      0.0375637         7333.47         7332.78 
      0.0433917         6324.89         6406.76 
      0.0492413         5694.43         5721.18 
      0.0555754         5095.38         5210.72 
      0.0619321         4857.93         4846.19 
       0.067871         4458.18         4550.01 
      0.0738098         4147.07         4235.92 
      0.0800417          3747.7         3862.69 
      0.0862327         3395.69         3462.19 
      0.0921407         3067.24         3087.19 
      0.0982031         2718.49         2746.12 
       0.104506         2504.39         2463.19 
       0.110769         2298.15          2259.1 
       0.116806         2145.67         2122.76 
       0.122832          2054.2         2024.17 
       0.129052         1928.77         1936.71 
       0.135211         1839.55         1843.97 
       0.141259         1757.25         1736.85 
       0.147318         1650.51         1614.47 
       0.153489         1510.01         1483.57 
       0.159709          1410.9         1358.03 
       0.165845         1335.35         1250.93 
       0.171974         1245.76         1165.81 
       0.178125         1183.42         1101.82 
       0.184229         1136.82         1054.63 
        0.19034         1069.73         1016.47 
       0.196428         1053.13         980.308 
       0.202534         1020.77         940.663 
       0.208729         970.565          894.83 
       0.214876         918.919          844.85 
       0.220989         886.175         793.916 
       0.227147          836.39         745.227 
        0.23329         799.332         702.335 
       0.239377         779.355         666.897 
       0.245482         728.101         638.144 
       0.251667         721.504          614.33 
       0.257832         696.927         593.628 
       0.263955         674.595         573.827 
       0.270079         651.214           553.2 
        0.27624         642.896         531.041 
       0.282372         615.882         507.879 
        0.28843         599.541         484.872 
       0.294538         570.691         462.665 
       0.300721         566.082         442.155 
        0.30691         540.014         424.079 
       0.313033         529.031         408.558 
       0.319153         512.062         394.944 
       0.325316         497.844         382.441 
        0.33145         483.639         370.519 
       0.337538         477.597         358.703 
       0.343633          462.35         346.666 
       0.349808         447.495         334.332 
       0.355968         442.618         322.126 
       0.362074         433.183         310.476 
       0.368217         421.489         299.468 
       0.374374         405.584          289.33 
       0.380519          401.27         280.099 
       0.386598         391.616         271.712 
       0.392688         388.522         263.869 
        0.39888         377.743         256.233 
       0.405048         370.011         248.806 
       0.411186         362.673         241.508 
       0.417313         356.045         234.291 
       0.423458         349.643         227.198 
       0.429607         342.222          220.33 
       0.435692          333.55         213.832 
       0.441815          331.24         207.655 
       0.447964         324.902         201.827 
       0.454126         313.697         196.318 
       0.460267         309.936          191.11 
       0.466387         306.366         186.137 
        0.47254         299.962         181.289 
       0.478662         298.683         176.579 
       0.484765         289.767         171.996 
       0.490885         286.257         167.515 
       0.497035         281.892         163.143 
       0.503198         275.819         158.919 
       0.509342         273.351         154.883 
       0.515458         269.864         151.042 
       0.521598         265.303         147.348 
       0.527764         261.084         143.788 
       0.533884         258.174         140.386 
           0.54         254.499         137.098 
       0.546137         253.324         133.892 
       0.552299          248.33         130.756 
       0.558452         245.546         127.712 
       0.564573         241.645         124.773 
       0.570708         237.427          121.92 
       0.576825         234.401         119.169 
       0.582926          231.53         116.516 
       0.589034         228.859         113.951 
       0.595184         226.619         111.457 
       0.601379         224.342         109.027 
       0.607522         219.924         106.692 
       0.613639         219.014         104.433 
       0.619772         214.142         102.229 
       0.625918         212.615          100.08 
       0.632068         209.987         97.9898 
       0.638161         208.863         95.9781 
         0.6443         205.605         94.0103 
       0.650464          203.64         92.0927 
       0.656582         201.946         90.2443 
       0.662703         199.671         88.4479 
       0.668861         196.598          86.692 
       0.675024         194.482         84.9839 
       0.681124         193.627         83.3401 
       0.687237          190.55         81.7372 
       0.693381         187.961         80.1691 
       0.699536         186.706         78.6392 
       0.705665         186.347         77.1554 
       0.711789         182.776          75.711 
       0.717957         182.157         74.2938 
        0.72409         179.841         72.9212 
       0.730186         177.289         71.5923 
       0.736317          176.12         70.2903 
       0.742472         175.156         69.0168 
       0.748622         173.711         67.7769 
        0.75476         172.266         66.5708 
       0.760888         169.854         65.3963 
       0.767043         169.133         64.2458 
       0.773185         167.344         63.1256 
       0.779291         164.784         62.0385 
       0.785407         164.129         60.9757 
       0.791564          162.69         59.9312 
       0.797719         160.489         58.9119 
       0.803834         159.812          57.923 
       0.809972         158.112         56.9537 
       0.816124         157.993         56.0047 
       0.822261         155.962         55.0802 
       0.828378         154.588         54.1798 
       0.834502         154.261         53.2989 
       0.840667         151.982         52.4323 
       0.846816           150.8         51.5876 
       0.852925         149.837          50.767 
       0.859047         148.177         49.9628 
       0.865192         147.407         49.1736 
       0.871341         145.943          48.401 
       0.877463         144.859         47.6487 
       0.883569         143.822         46.9145 
       0.889708         142.854         46.1921 
       0.895864         141.435         45.4833 
       0.902008         140.569          44.791 
       0.908149         139.933         44.1136 
       0.914301         138.436         43.4493 
       0.920448         137.525         42.7994 
       0.926574         136.743         42.1653 
       0.932687         136.203         41.5454 
       0.938823         134.347          40.936 
       0.944975         133.221         40.3375 
       0.951105         132.634         39.7532 
       0.957225         131.104         39.1816 
       0.963368         130.234         38.6195 
       0.969511         129.876         38.0685 
       0.975621         129.306         37.5313 
       0.981748         128.406         37.0032 
       0.987916          127.01         36.4821 
        0.99406         126.345          35.973 
        1.00019          125.61         35.4748 
        1.00632         124.708         34.9866 
        1.01246         123.863          34.507 
        1.01859         122.527         34.0372 
        1.02471         122.447         33.5769 
        1.03085          121.21         33.1235 
        1.03698         120.457         32.6796 
        1.04314         119.451          32.242 
        1.04929         118.758         31.8135 
        1.05541         118.028         31.3946 
        1.06154         117.368         30.9823 
        1.06769         117.097         30.5768 
        1.07382         116.401           30.18 
        1.07993         115.482         29.7912 
        1.08607         114.596         29.4077 
        1.09222         114.102         29.0307 
        1.09836         113.174         28.6607 
        1.10449          112.52         28.2977 
        1.11063          111.88         27.9407 
        1.11677         111.392         27.5899 
         1.1229         110.182         27.2458 
        1.12903         109.429         26.9074 
        1.13518         109.641         26.5745 
        1.14131         108.594         26.2474 
        1.14745         107.791          25.926 
        1.15359         107.199         25.6101 
        1.15973         106.867         25.2993 
        1.16584         105.963         24.9951 
        1.17197           105.4         24.6955 
        1.17811         104.764            24.4 
        1.18424         104.097         24.1102 
        1.19038         103.593         23.8243 
        1.19652         103.055         23.5431 
        1.20267         102.257         23.2666 
        1.20881         101.711         22.9946 
        1.21495         101.036         22.7274 
        1.22108         100.532         22.4646 
         1.2272         99.7652         22.2065 
        1.23334         99.3959          21.952 
        1.23949         98.5515         21.7009 
        1.24562         98.3618         21.4544 
        1.25174         97.6099         21.2122 
        1.25789         97.1911          20.973 
        1.26402         96.7723         20.7379 
        1.27014         95.9428         20.5071 
        1.27628         95.6771         20.2791 
        1.28244         94.9194         20.0541 
        1.28858         94.5575         19.8329 
        1.29471         93.9384         19.6156 
        1.30084         93.4423         19.4017 
        1.30697         92.9213         19.1908 
        1.31312          92.512         18.9827 
        1.31925          92.011         18.7783 
        1.32537         91.6378         18.5772 
        1.33151         90.7521         18.3783 
        1.33765         90.3082         18.1825 
        1.34378         89.7797           17.99 
        1.34992         89.6037         17.8001 
        1.35606         89.0795         17.6126 
         1.3622         88.2884         17.4281 
        1.36833         88.1726         17.2467 
        1.37445         87.5413          17.068 
        1.38059         86.9808         16.8914 
        1.38675         86.4589         16.7168 
        1.39288         86.0181         16.5454 
        1.39901         85.9183         16.3764 
        1.40515         85.3922         16.2095 
         1.4113         84.7172          16.045 
        1.41742         84.6185         15.8834 
        1.42355         83.8704         15.7238 
         1.4297         83.5356         15.5659 
        1.43585         82.9367         15.4102 
        1.44198         82.7135         15.2573 
        1.44809         82.2004         15.1067 
        1.45423         81.7673         14.9576 
        1.46036         81.5266         14.8109 
        1.46649         81.0111          14.666 
        1.47263         80.5688          14.523 
        1.47877         80.3418          14.382 
        1.48491         79.8425         14.2427 
        1.49104          79.365         14.1055 
        1.49718         78.9145           13.97 
        1.50333         78.5341         13.8361 
        1.50947         78.0801         13.7042 
         1.5156         77.8332         13.5743 
        1.52172         77.3974          13.446 
        1.52787         77.2062         13.3192 
          1.534          76.731         13.1942 
        1.54013         76.1781         13.0709 
        1.54627         75.9018          12.949 
        1.55241         75.4596         12.8286 
        1.55855         75.1123           12.71 
        1.56467         74.6072         12.5932 
         1.5708         74.4329         12.4775 
        1.57695         74.1621         12.3631 
        1.58308         73.5251         12.2504 
        1.58922         73.4556         12.1391 
        1.59535         73.1736         12.0291 
         1.6015         72.5139         11.9204 
        1.60764          72.328         11.8131 
        1.61376         71.8838         11.7075 
        1.61989         71.5036          11.603 
        1.62604          71.301         11.4996 
        1.63218         71.0373         11.3975 
        1.63831          70.555         11.2969 
        1.64444         70.2233         11.1975 
        1.65059         69.7079          11.099 
        1.65673         69.5418         11.0019 
        1.66285         69.1819         10.9062 
        1.66898         68.8403         10.8116 
        1.67512         68.4081         10.7179 
        1.68127         68.0854         10.6253 
         1.6874         67.8607          10.534 
        1.69353         67.5339         10.4438 
        1.69967          67.131         10.3545 
        1.70581         67.0093         10.2662 
        1.71193         66.7265         10.1794 
        1.71806         66.1028         10.0933 
        1.72421         66.0114         10.0081 
        1.73035          65.607         9.92399 
        1.73649         65.2055         9.84086 
        1.74262         65.0455         9.75875 
        1.74876         64.7261         9.67752 
        1.75489         64.3329          9.5974 
        1.76101          64.127         9.51821 
        1.76715         63.7056         9.43981 
        1.77329         63.4998         9.36221 
        1.77943         63.1128         9.28545 
        1.78557         62.9442         9.20967 
        1.79171          62.571         9.13472 
        1.79785         62.3711          9.0606 
        1.80399         62.0358         8.98733 
        1.81012         61.8557         8.91496 
        1.81625         61.2935         8.84343 
        1.82239         61.0857         8.77258 
        1.82853         60.7081         8.70255 
        1.83466         60.5576         8.63335 
        1.84078         60.1205         8.56498 
        1.84692          59.867         8.49724 
        1.85306         59.6646         8.43016 
         1.8592         59.2677          8.3639 
        1.86533          59.097         8.29841 
        1.87147         58.7892         8.23354 
        1.87761          58.574         8.16933 
        1.88375         58.3264          8.1059 
        1.88988         58.2078          8.0432 
        1.89601         57.7202         7.98114 
        1.90215         57.5028         7.91969 
        1.90829         57.3279         7.85892 
        1.91442         56.9873         7.79878 
        1.92056         56.6539         7.73934 
         1.9267         56.3738         7.68045 
        1.93284         56.1502         7.62214 
        1.93897         55.8702         7.56456 
        1.94509         55.5138         7.50769 
        1.95123         55.4355         7.45127 
        1.95737         55.1702          7.3954 
        1.96349         54.8556         7.34024 
        1.96964         54.7427         7.28549 
        1.97578          54.359         7.23127 
        1.98192         54.1715         7.17772 
        1.98805         53.9866         7.12471 
        1.99419         53.6063         7.07223 
        2.00033         53.3772         7.02026 
        2.00647          53.175         6.96883 
         2.0126          52.861           6.918 
        2.01874         52.6491         6.86761 
        2.02488         52.5146         6.81767 
        2.03101         52.1802         6.76833 
        2.03714         51.9312         6.71953 
        2.04328         51.6759         6.67115 
        2.04941         51.3921         6.62329 
        2.05554         51.0953         6.57594 
        2.06167         51.0598         6.52899 
        2.06781         50.7994          6.4825 
        2.07396         50.4856         6.43639 
        2.08009         50.3238         6.39081 
        2.08622         49.9967         6.34573 
        2.09237         49.8134           6.301 
        2.09851          49.591         6.25669 
        2.10464         49.3627         6.21289 
        2.11077          49.202         6.16956 
        2.11691         48.9062         6.12654 
        2.12305         48.6138         6.08394 
        2.12918         48.4228         6.04185 
        2.13531         48.1887         6.00015 
        2.14145         48.0307         5.95875 
         2.1476         47.8278          5.9177 
        2.15372         47.5249         5.87724 
        2.15985         47.3583         5.83712 
        2.16599         47.2403         5.79726 
        2.17213          47.086         5.75782 
        2.17827         46.7578         5.71875 
         2.1844         46.4812         5.68009 
        2.19054         46.2559         5.64177 
        2.19666         46.1006         5.60386 
         2.2028          45.921         5.56627 
        2.20893         45.7602           5.529 
        2.21508         45.5629         5.49204 
        2.22122         45.2876          5.4554 
        2.22736         45.0796         5.41918 
        2.23349         44.9464         5.38329 
        2.23962         44.5994         5.34771 
        2.24577         44.4315         5.31243 
         2.2519         44.2184         5.27751 
        2.25802         44.1797         5.24296 
        2.26417         43.8858         5.20863 
        2.27031         43.7569         5.17458 
        2.27644         43.3923         5.14093 
        2.28257         43.3016         5.10758 
        2.28872         43.0032         5.07447 
        2.29486         42.8845         5.04166 
        2.30099         42.7288          5.0092 
        2.30712         42.5264         4.97702 
        2.31326         42.3656         4.94507 
         2.3194         42.1206         4.91342 
        2.32553         41.9692          4.8821 
        2.33166          41.769         4.85107 
         2.3378         41.5295         4.82027 
        2.34394         41.2602         4.78972 
        2.35007         41.1373         4.75949 
        2.35619         41.0803         4.72955 
        2.36233         40.9176          4.6998 
        2.36848         40.5755         4.67025 
        2.37462         40.5431         4.64101 
        2.38075         40.2981         4.61206 
        2.38689         40.2228         4.58333 
        2.39303         39.9847         4.55485 
        2.39916         39.7675         4.52664 
        2.40529         39.4937         4.49867 
        2.41143         39.4391         4.47093 
        2.41757          39.303          4.4434 
         2.4237         39.1058         4.41616 
        2.42983         38.9431         4.38915 
        2.43598         38.6921         4.36229 
        2.44211         38.5596         4.33571 
        2.44823         38.3969         4.30941 
        2.45437         38.2845         4.28325 
        2.46052         38.0189         4.25729 
        2.46665         37.9342         4.23159 
        2.47279         37.7468         4.20611 
        2.47892         37.5259         4.18083 
        2.48507         37.3994         4.15573 
         2.4912         37.2257         4.13089 
