# k  (h/Mpc)    P(k)  (Mpc/h)^3    P_linear(k)  (Mpc/h)^3
     0.00783031         12789.1         12972.1 
       0.013688         16273.5         16145.6 
       0.019231         16609.4         16596.3 
      0.0249154         15335.3         15657.5 
      0.0312784         13737.5         13906.9 
      0.0375637         12092.2         12129.4 
      0.0433917         10523.7         10744.4 
      0.0492413         9577.03          9682.8 
      0.0555754         8546.77         8843.12 
      0.0619321         8164.28         8192.85 
       0.067871         7400.22         7640.32 
      0.0738098         6842.92         7066.86 
      0.0800417         6147.06         6421.68 
      0.0862327         5594.48         5765.89 
      0.0921407         5111.74         5175.78 
      0.0982031         4577.39         4651.68 
       0.104506         4285.08         4219.19 
       0.110769         3958.07         3899.54 
       0.116806         3711.69         3670.87 
       0.122832         3535.48         3486.65 
       0.129052         3285.67         3308.62 
       0.135211         3115.66         3120.95 
       0.141259          2975.2         2918.38 
       0.147318         2798.82          2704.2 
       0.153489         2565.68         2489.92 
       0.159709         2423.37         2294.47 
       0.165845         2326.37         2132.52 
       0.171974         2191.92         2003.87 
       0.178125         2085.74         1903.08 
       0.184229         1999.94         1821.56 
        0.19034         1886.46         1747.74 
       0.196428         1851.23         1673.32 
       0.202534         1782.92         1593.28 
       0.208729         1700.08         1506.69 
       0.214876          1624.2         1419.16 
       0.220989         1569.88         1335.67 
       0.227147         1498.01         1259.71 
        0.23329            1439         1194.53 
       0.239377         1415.31          1140.4 
       0.245482         1326.45         1094.54 
       0.251667         1318.93         1053.47 
       0.257832         1268.12         1014.69 
       0.263955         1227.05         975.965 
       0.270079         1185.26         935.982 
        0.27624          1172.4         894.905 
       0.282372         1122.35         854.387 
        0.28843         1111.61         816.233 
       0.294538          1056.4         780.863 
       0.300721         1051.79         748.836 
        0.30691         1008.01         720.452 
       0.313033         988.958         695.253 
       0.319153         969.796         671.975 
       0.325316         938.348         649.483 
        0.33145         916.447           627.4 
       0.337538         902.614          605.51 
       0.343633         879.594         583.755 
       0.349808         850.259         562.247 
       0.355968         845.005          541.74 
       0.362074         834.785         522.716 
       0.368217         809.891          504.99 
       0.374374         777.892         488.614 
       0.380519         777.659         473.404 
       0.386598          757.46         459.178 
       0.392688         755.032         445.484 
        0.39888         732.723           431.9 
       0.405048         721.866         418.648 
       0.411186         711.276         405.761 
       0.417313         696.821         393.272 
       0.423458         685.336         381.253 
       0.429607         674.864         369.821 
       0.435692         660.219         359.108 
       0.441815         655.529         348.921 
       0.447964         641.625         339.216 
       0.454126         632.147         329.914 
       0.460267         619.207          320.98 
       0.466387          612.38         312.357 
        0.47254         604.009         303.924 
       0.478662         600.931         295.766 
       0.484765         582.827         287.892 
       0.490885          578.69         280.281 
       0.497035         567.221         272.929 
       0.503198         562.024         265.866 
       0.509342         556.814         259.124 
       0.515458         552.746         252.685 
       0.521598         539.712         246.457 
       0.527764         529.275         240.411 
       0.533884         528.038         234.598 
           0.54         521.319         228.967 
       0.546137         518.653         223.482 
       0.552299         509.612         218.141 
       0.558452         506.967         212.979 
       0.564573         499.531         208.016 
       0.570708         493.228         203.215 
       0.576825         480.686         198.594 
       0.582926         481.341         194.137 
       0.589034         477.104         189.816 
       0.595184         472.581           185.6 
       0.601379         466.289         181.483 
       0.607522         459.686         177.521 
       0.613639         459.044          173.69 
       0.619772         447.784         169.958 
       0.625918         446.532         166.327 
       0.632068         440.078           162.8 
       0.638161         438.494         159.411 
         0.6443         430.441         156.098 
       0.650464         427.999         152.872 
       0.656582         425.915         149.762 
       0.662703         423.582         146.739 
       0.668861         416.037         143.782 
       0.675024         412.688         140.903 
       0.681124         409.898         138.131 
       0.687237         406.096         135.428 
       0.693381         400.721         132.785 
       0.699536         395.734         130.208 
       0.705665         393.945         127.712 
       0.711789          391.31         125.285 
       0.717957         387.931         122.905 
        0.72409         384.995         120.601 
       0.730186         380.493         118.371 
       0.736317         377.149         116.185 
       0.742472         375.692         114.046 
       0.748622         371.355         111.963 
        0.75476         367.182         109.937 
       0.760888         363.275         107.964 
       0.767043         363.931         106.032 
       0.773185         359.153         104.152 
       0.779291         354.392         102.329 
       0.785407         353.001         100.547 
       0.791564         348.735         98.7963 
       0.797719         346.442         97.0887 
       0.803834         343.605         95.4325 
       0.809972         342.254         93.8093 
       0.816124         341.815         92.2205 
       0.822261         336.548         90.6729 
       0.828378         334.542         89.1656 
       0.834502         332.071         87.6915 
       0.840667         328.546         86.2413 
       0.846816         327.063         84.8282 
       0.852925         324.569         83.4558 
       0.859047         322.906          82.111 
       0.865192         319.311         80.7916 
       0.871341         316.908         79.5005 
       0.877463          315.38         78.2436 
       0.883569         313.526         77.0173 
       0.889708         310.622          75.811 
       0.895864         307.653         74.6277 
       0.902008         306.157         73.4722 
       0.908149         304.183          72.342 
       0.914301         300.726         71.2339 
       0.920448         298.835         70.1501 
       0.926574         295.719         69.0928 
       0.932687         296.137         68.0596 
       0.938823         292.571         67.0439 
       0.944975         291.811         66.0468 
       0.951105         289.237         65.0735 
       0.957225          287.11         64.1217 
       0.963368         283.717         63.1857 
       0.969511           282.5         62.2685 
       0.975621          280.14         61.3745 
       0.981748         280.032         60.4959 
       0.987916         277.609          59.629 
        0.99406          273.52         58.7823 
        1.00019         273.485         57.9539 
        1.00632         271.693         57.1423 
        1.01246         269.362          56.345 
        1.01859         269.708         55.5643 
        1.02471         265.662         54.7994 
        1.03085         263.662         54.0464 
        1.03698         262.853         53.3091 
        1.04314         260.217         52.5825 
        1.04929         258.453         51.8712 
        1.05541          258.71         51.1759 
        1.06154           254.8         50.4917 
        1.06769         254.269          49.819 
        1.07382         252.617         49.1608 
        1.07993         250.617          48.516 
        1.08607          249.87         47.8801 
        1.09222          247.95         47.2551 
        1.09836         246.034         46.6419 
        1.10449         243.536         46.0404 
        1.11063         241.527         45.4489 
        1.11677         241.288          44.868 
         1.1229         239.515         44.2983 
        1.12903         237.966         43.7381 
        1.13518         236.397          43.187 
        1.14131         234.592         42.6458 
        1.14745         234.269         42.1142 
        1.15359         232.096         41.5916 
        1.15973         230.807         41.0777 
        1.16584         228.808         40.5748 
        1.17197         228.621         40.0796 
        1.17811         226.193         39.5912 
        1.18424         224.861         39.1124 
        1.19038          224.09         38.6401 
        1.19652         222.353         38.1758 
        1.20267         221.826         37.7192 
        1.20881          219.69         37.2702 
        1.21495         218.423         36.8292 
        1.22108          217.24         36.3954 
         1.2272         215.572         35.9696 
        1.23334         214.542         35.5497 
        1.23949         213.271         35.1355 
        1.24562         212.211         34.7291 
        1.25174         210.172         34.3297 
        1.25789         208.794         33.9354 
        1.26402         207.548          33.548 
        1.27014         206.224         33.1676 
        1.27628         205.226          32.792 
        1.28244         204.977         32.4215 
        1.28858         202.675         32.0572 
        1.29471         201.048         31.6993 
        1.30084         200.387         31.3472 
        1.30697         198.892              31 
        1.31312         197.389         30.6575 
        1.31925         196.971         30.3212 
        1.32537         195.822         29.9904 
        1.33151         193.901         29.6633 
        1.33765         192.841         29.3412 
        1.34378         192.055         29.0246 
        1.34992         191.115         28.7125 
        1.35606          190.89         28.4043 
         1.3622         189.002         28.1011 
        1.36833         187.094         27.8032 
        1.37445          186.31         27.5097 
        1.38059         184.995         27.2195 
        1.38675         184.287         26.9328 
        1.39288         183.079         26.6515 
        1.39901         182.895         26.3742 
        1.40515         180.969         26.1003 
         1.4113         179.819         25.8304 
        1.41742         178.806         25.5654 
        1.42355         177.619         25.3035 
         1.4297         176.585         25.0446 
        1.43585         175.526         24.7894 
        1.44198         174.597         24.5387 
        1.44809         173.883          24.292 
        1.45423          172.64         24.0478 
        1.46036         171.745         23.8073 
        1.46649         170.464         23.5701 
        1.47263         169.346         23.3359 
        1.47877          168.64          23.105 
        1.48491         167.047         22.8768 
        1.49104         166.843         22.6523 
        1.49718         164.985         22.4305 
        1.50333          164.49         22.2114 
        1.50947         163.816         21.9957 
         1.5156          162.42         21.7831 
        1.52172         161.613         21.5734 
        1.52787         160.309         21.3659 
          1.534         159.916         21.1615 
        1.54013          158.66           20.96 
        1.54627         157.924         20.7607 
        1.55241         156.782          20.564 
        1.55855         155.914         20.3701 
        1.56467         154.949         20.1792 
         1.5708         154.234         19.9902 
        1.57695          153.25         19.8034 
        1.58308         152.613         19.6194 
        1.58922           151.6         19.4376 
        1.59535         150.407         19.2582 
         1.6015         150.082         19.0808 
        1.60764         148.984         18.9057 
        1.61376          148.01         18.7333 
        1.61989         147.152         18.5629 
        1.62604         146.328         18.3943 
        1.63218         145.658         18.2278 
        1.63831         144.587         18.0638 
        1.64444         144.102         17.9018 
        1.65059         143.178         17.7413 
        1.65673         141.937          17.583 
        1.66285          141.68         17.4271 
        1.66898         140.608          17.273 
        1.67512         140.309         17.1205 
        1.68127         138.846         16.9697 
         1.6874         137.815          16.821 
        1.69353         137.644         16.6742 
        1.69967         136.618         16.5288 
        1.70581          135.87         16.3852 
        1.71193         134.974         16.2438 
        1.71806         134.509         16.1039 
        1.72421         133.554         15.9652 
        1.73035         133.309         15.8284 
        1.73649         132.362         15.6932 
        1.74262         131.341         15.5597 
        1.74876         130.904         15.4277 
        1.75489         129.754         15.2974 
        1.76101         129.124         15.1687 
        1.76715         128.485         15.0413 
        1.77329         128.214         14.9152 
        1.77943         126.966         14.7905 
        1.78557         126.396         14.6674 
        1.79171          125.68         14.5457 
        1.79785          124.87         14.4253 
        1.80399         124.194         14.3064 
        1.81012         123.523         14.1889 
        1.81625         122.859         14.0728 
        1.82239         122.425         13.9578 
        1.82853          121.69         13.8442 
        1.83466         120.824         13.7319 
        1.84078         120.393          13.621 
        1.84692         119.319         13.5112 
        1.85306         119.075         13.4024 
         1.8592         118.148          13.295 
        1.86533         117.266         13.1888 
        1.87147         116.723         13.0837 
        1.87761         116.253         12.9796 
        1.88375         115.193         12.8769 
        1.88988         114.778         12.7753 
        1.89601         114.015         12.6748 
        1.90215         113.548         12.5753 
        1.90829         112.943         12.4768 
        1.91442         112.336         12.3795 
        1.92056         111.637         12.2833 
         1.9267         111.233         12.1879 
        1.93284          110.63         12.0936 
        1.93897         109.798         12.0004 
        1.94509         109.436         11.9084 
        1.95123         108.758         11.8171 
        1.95737         108.241         11.7268 
        1.96349         107.589         11.6376 
        1.96964         106.678          11.549 
        1.97578         106.156         11.4614 
        1.98192         105.914         11.3748 
        1.98805         104.916         11.2891 
        1.99419          104.65         11.2043 
        2.00033          103.97         11.1203 
        2.00647         103.503         11.0372 
         2.0126         102.747         10.9551 
        2.01874         102.216         10.8737 
        2.02488         101.739         10.7931 
        2.03101         101.027         10.7134 
        2.03714         100.473         10.6346 
        2.04328          100.08         10.5565 
        2.04941         99.4778         10.4793 
        2.05554          98.789         10.4028 
        2.06167         98.4653         10.3271 
        2.06781         97.8654         10.2521 
        2.07396         97.2175         10.1777 
        2.08009         96.8276         10.1041 
        2.08622          96.355         10.0314 
        2.09237          95.572          9.9593 
        2.09851         95.2653         9.88786 
        2.10464         94.6694         9.81724 
        2.11077         94.3538         9.74739 
        2.11691         93.8819         9.67807 
        2.12305         93.0256         9.60941 
        2.12918         92.5454         9.54159 
        2.13531         92.2583         9.47441 
        2.14145          91.457         9.40773 
         2.1476         90.9599          9.3416 
        2.15372          90.675         9.27645 
        2.15985         90.2485         9.21185 
        2.16599         89.7465         9.14768 
        2.17213         89.0979         9.08419 
        2.17827         88.8086         9.02131 
         2.1844         88.1237         8.95909 
        2.19054         87.9139         8.89743 
        2.19666          87.376         8.83643 
         2.2028         86.9573         8.77596 
        2.20893         86.3914         8.71602 
        2.21508         85.8484         8.65657 
        2.22122         85.4421         8.59766 
        2.22736          85.075         8.53941 
        2.23349         84.7178         8.48172 
        2.23962         84.0798         8.42453 
        2.24577         83.7712         8.36782 
         2.2519          83.408         8.31171 
        2.25802          82.709          8.2562 
        2.26417         82.3667         8.20105 
        2.27031         81.9709         8.14634 
        2.27644         81.4657          8.0923 
        2.28257         80.9981         8.03874 
        2.28872          80.569         7.98557 
        2.29486         80.1132         7.93289 
        2.30099         79.7464         7.88079 
        2.30712         79.3698         7.82914 
        2.31326          78.987         7.77786 
         2.3194         78.4572         7.72707 
        2.32553         78.1103         7.67681 
        2.33166         77.6527         7.62702 
         2.3378          77.211         7.57761 
        2.34394         76.8716         7.52862 
        2.35007         76.3948         7.48013 
        2.35619         76.0304         7.43212 
        2.36233         75.6421         7.38442 
        2.36848         75.1847         7.33704 
        2.37462         74.7561         7.29018 
        2.38075          74.537         7.24377 
        2.38689         74.0096         7.19772 
        2.39303         73.6222         7.15209 
        2.39916         73.1974         7.10689 
        2.40529         73.0281         7.06209 
        2.41143         72.4918         7.01764 
        2.41757          72.206         6.97355 
         2.4237         71.8851         6.92993 
        2.42983          71.386         6.88668 
        2.43598          71.092         6.84368 
        2.44211         70.7524         6.80112 
        2.44823          70.381         6.75902 
        2.45437         69.8698         6.71716 
        2.46052         69.5192         6.67561 
        2.46665          69.275          6.6345 
        2.47279         68.8861         6.59374 
        2.47892         68.5481         6.55329 
        2.48507         68.0634         6.51315 
         2.4912         67.7994         6.47341 
