# k  (h/Mpc)    Pcb(k)  (Mpc/h)^3    Pcb_linear(k)  (Mpc/h)^3
     0.00783031         4394.35         4428.68 
       0.013688         4932.72          5010.5 
       0.019231         4639.81         4672.95 
      0.0249154         3991.89         3974.45 
      0.0312784         3168.09         3165.32 
      0.0375637         2534.86         2541.92 
      0.0433917         2166.16         2157.97 
      0.0492413         1920.58         1921.94 
      0.0555754         1770.79         1762.97 
      0.0619321         1610.94         1631.17 
       0.067871         1486.42         1490.13 
      0.0738098          1324.3         1322.39 
      0.0800417         1143.43         1134.99 
      0.0862327         970.758         965.085 
      0.0921407         844.691         837.319 
      0.0982031         759.906         746.912 
       0.104506         692.804         689.872 
       0.110769          659.61         655.769 
       0.116806          637.46         628.633 
       0.122832          598.81         595.607 
       0.129052         556.741         550.565 
       0.135211         509.782         497.899 
       0.141259           455.1         445.546 
       0.147318          407.01          399.56 
       0.153489         373.503         363.594 
       0.159709          351.77         338.826 
       0.165845         329.084         322.943 
       0.171974         323.377         311.281 
       0.178125         310.379         299.605 
       0.184229         292.327         285.365 
        0.19034         278.464         267.925 
       0.196428          260.66         248.687 
       0.202534         237.871         229.702 
       0.208729         226.123         212.772 
       0.214876         214.062          199.36 
       0.220989         199.992         189.326 
       0.227147         195.166         181.655 
        0.23329         188.249         175.163 
       0.239377         182.959         168.728 
       0.245482         173.985         161.584 
       0.251667         164.929         153.545 
       0.257832         160.069         145.146 
       0.263955         149.558         137.047 
       0.270079         142.099         129.729 
        0.27624         135.333         123.457 
       0.282372         130.621         118.263 
        0.28843         128.519         113.913 
       0.294538          122.96         109.944 
       0.300721          117.82         106.025 
        0.30691         115.226         101.989 
       0.313033         109.994         97.8589 
       0.319153         107.316         93.6982 
       0.325316          102.54         89.6467 
        0.33145         98.6202         85.9015 
       0.337538          95.034         82.5541 
       0.343633          92.123         79.5609 
       0.349808         88.9992         76.8308 
       0.355968         86.4086          74.294 
       0.362074         84.5715          71.873 
       0.368217          82.109         69.4665 
       0.374374         79.8631         67.0653 
       0.380519         76.4171          64.709 
       0.386598         74.2444         62.4534 
       0.392688          71.738         60.3128 
        0.39888         70.3874          58.284 
       0.405048         68.5437         56.4057 
       0.411186         66.7831         54.6639 
       0.417313         64.8928         53.0205 
       0.423458         63.0399         51.4356 
       0.429607         61.7485         49.8954 
       0.435692         60.7242         48.4096 
       0.441815         58.4383          46.952 
       0.447964         56.4933         45.5373 
       0.454126         55.4513         44.1812 
       0.460267         54.8253         42.8953 
       0.466387          53.246         41.6776 
        0.47254         52.4686         40.5142 
       0.478662         50.6083         39.4094 
       0.484765          49.601         38.3496 
       0.490885         48.1684         37.3208 
       0.497035         47.5603         36.3186 
       0.503198         46.4836         35.3467 
       0.509342          45.145         34.4096 
       0.515458         44.4312         33.5097 
       0.521598         43.3269         32.6405 
       0.527764         42.6995         31.8031 
       0.533884         41.9841         31.0054 
           0.54          40.962         30.2381 
       0.546137         39.7679         29.4946 
       0.552299         39.0091         28.7721 
       0.558452          38.181         28.0739 
       0.564573         37.8605         27.4015 
       0.570708         36.7955         26.7489 
       0.576825         36.3498         26.1191 
       0.582926         35.7501         25.5114 
       0.589034         34.9873         24.9228 
       0.595184         34.5051           24.35 
       0.601379         33.5954         23.7925 
       0.607522         32.9493         23.2577 
       0.613639          32.547         22.7417 
       0.619772         31.8619         22.2401 
       0.625918         31.3512         21.7522 
       0.632068         30.9961         21.2783 
       0.638161         30.3364         20.8227 
         0.6443         29.9469         20.3772 
       0.650464         29.1707         19.9434 
       0.656582         29.0025         19.5257 
       0.662703         28.5579         19.1203 
       0.668861         27.8456         18.7242 
       0.675024         27.5412         18.3393 
       0.681124         27.3154         17.9691 
       0.687237          26.752         17.6084 
       0.693381         26.2603         17.2559 
       0.699536         26.0541         16.9125 
       0.705665         25.5592         16.5799 
       0.711789         25.1496         16.2566 
       0.717957         24.6585         15.9398 
        0.72409         24.3918         15.6334 
       0.730186         24.2505         15.3369 
       0.736317         23.7479         15.0467 
       0.742472          23.469          14.763 
       0.748622         23.0811         14.4869 
        0.75476         22.5633         14.2186 
       0.760888         22.5159         13.9574 
       0.767043         22.0696         13.7019 
       0.773185         21.7968         13.4533 
       0.779291         21.5225         13.2123 
       0.785407         21.2355         12.9769 
       0.791564         21.1219         12.7458 
       0.797719         20.6066         12.5204 
       0.803834         20.5307          12.302 
       0.809972         20.1413         12.0881 
       0.816124         19.9256         11.8788 
       0.822261         19.6783         11.6751 
       0.828378         19.5037         11.4768 
       0.834502         19.2781          11.283 
       0.840667         19.0609         11.0924 
       0.846816         18.6768         10.9068 
       0.852925         18.5971         10.7266 
       0.859047         18.4002         10.5502 
       0.865192         18.1218         10.3772 
       0.871341         17.9044          10.208 
       0.877463         17.6803         10.0433 
       0.883569         17.5684         9.88275 
       0.889708         17.2997         9.72489 
       0.895864         17.0758         9.57009 
       0.902008         16.9099         9.41902 
       0.908149         16.6703         9.27131 
       0.914301         16.5509         9.12656 
       0.920448         16.3491         8.98505 
       0.926574         16.2011         8.84706 
       0.932687          15.978         8.71228 
       0.938823         15.7533         8.57984 
       0.944975         15.6576         8.44987 
       0.951105         15.5059         8.32308 
       0.957225         15.3705         8.19912 
       0.963368          15.141         8.07728 
       0.969511         14.9975         7.95792 
       0.975621         14.8783         7.84164 
       0.981748         14.6772         7.72739 
       0.987916         14.5855         7.61471 
        0.99406         14.3778         7.50471 
        1.00019         14.2866         7.39711 
        1.00632         14.1822         7.29173 
        1.01246         13.9963         7.18826 
        1.01859         13.8634         7.08698 
        1.02471         13.7235         6.98778 
        1.03085         13.6424         6.89014 
        1.03698         13.5298         6.79459 
        1.04314          13.352         6.70046 
        1.04929         13.1868         6.60833 
        1.05541         13.1184         6.51831 
        1.06154         13.0046         6.42976 
        1.06769         12.8576         6.34272 
        1.07382         12.7229         6.25759 
        1.07993         12.6181         6.17422 
        1.08607          12.525         6.09204 
        1.09222         12.3889         6.01127 
        1.09836         12.2777         5.93207 
        1.10449         12.2011          5.8544 
        1.11063          12.114         5.77804 
        1.11677         12.0363         5.70308 
         1.1229         11.8985         5.62958 
        1.12903         11.7856         5.55733 
        1.13518         11.6941         5.48628 
        1.14131         11.6117         5.41653 
        1.14745         11.4468         5.34803 
        1.15359         11.3368         5.28072 
        1.15973         11.2797         5.21453 
        1.16584         11.1636         5.14979 
        1.17197         11.0511         5.08606 
        1.17811         10.9912         5.02322 
        1.18424         10.9022         4.96162 
        1.19038         10.8566         4.90089 
        1.19652         10.7147          4.8412 
        1.20267         10.6761          4.7825 
        1.20881         10.5318          4.7248 
        1.21495         10.4778         4.66814 
        1.22108         10.4108         4.61243 
         1.2272         10.3135         4.55775 
        1.23334         10.2629         4.50384 
        1.23949         10.1678         4.45068 
        1.24562         10.0645         4.39853 
        1.25174         10.0308         4.34729 
        1.25789         9.94273         4.29672 
        1.26402         9.86622         4.24704 
        1.27014         9.82006         4.19827 
        1.27628         9.70705         4.15013 
        1.28244         9.68312         4.10265 
        1.28858         9.57244         4.05598 
        1.29471         9.48078         4.01014 
        1.30084         9.41205         3.96506 
        1.30697         9.37043          3.9206 
        1.31312         9.30258         3.87676 
        1.31925         9.24761         3.83373 
        1.32537         9.15639          3.7914 
        1.33151         9.09539         3.74956 
        1.33765         9.05046         3.70837 
        1.34378         9.00442         3.66789 
        1.34992         8.91966         3.62799 
        1.35606         8.83133          3.5886 
         1.3622         8.77609         3.54986 
        1.36833         8.75109         3.51179 
        1.37445         8.68134          3.4743 
        1.38059         8.60947         3.43725 
        1.38675         8.57252         3.40065 
        1.39288         8.49534         3.36473 
        1.39901         8.42748         3.32934 
        1.40515          8.3826         3.29439 
         1.4113         8.32522         3.25995 
        1.41742         8.28488         3.22614 
        1.42355         8.20772         3.19275 
         1.4297         8.15759         3.15973 
        1.43585         8.11245          3.1272 
        1.44198         8.08771         3.09524 
        1.44809         8.01687          3.0638 
        1.45423         7.95892         3.03268 
        1.46036         7.90464         3.00204 
        1.46649         7.85964         2.97183 
        1.47263         7.81373           2.942 
        1.47877         7.74961          2.9126 
        1.48491         7.72548         2.88355 
        1.49104         7.67041         2.85496 
        1.49718           7.631         2.82674 
        1.50333          7.5854         2.79886 
        1.50947          7.5357          2.7714 
         1.5156         7.49992         2.74436 
        1.52172         7.43226         2.71768 
        1.52787         7.42544          2.6913 
          1.534         7.35773         2.66531 
        1.54013         7.32529         2.63968 
        1.54627         7.26853         2.61435 
        1.55241         7.20816         2.58934 
        1.55855         7.19065          2.5647 
        1.56467         7.16489         2.54045 
         1.5708         7.10567         2.51644 
        1.57695         7.06466         2.49271 
        1.58308         7.02051         2.46934 
        1.58922         6.98848         2.44625 
        1.59535          6.9566         2.42347 
         1.6015         6.87771         2.40095 
        1.60764         6.85121         2.37873 
        1.61376         6.82489         2.35685 
        1.61989         6.77927         2.33522 
        1.62604         6.76087         2.31382 
        1.63218         6.71755         2.29271 
        1.63831         6.67299          2.2719 
        1.64444         6.62668         2.25135 
        1.65059         6.58665           2.231 
        1.65673         6.57103         2.21093 
        1.66285         6.52305         2.19116 
        1.66898         6.50716         2.17163 
        1.67512         6.47701          2.1523 
        1.68127         6.40835         2.13318 
         1.6874         6.40358         2.11434 
        1.69353          6.3363         2.09575 
        1.69967         6.32096         2.07733 
        1.70581         6.28543         2.05914 
        1.71193         6.24987         2.04123 
        1.71806         6.21697         2.02351 
        1.72421         6.18365         2.00595 
        1.73035          6.1675         1.98863 
        1.73649         6.13772         1.97152 
        1.74262         6.07701         1.95462 
        1.74876         6.06877          1.9379 
        1.75489         6.04267         1.92142 
        1.76101         5.98436         1.90513 
        1.76715         5.98909         1.88901 
        1.77329         5.93944         1.87306 
        1.77943         5.89821         1.85729 
        1.78557          5.9009         1.84172 
        1.79171         5.85532         1.82632 
        1.79785         5.83247          1.8111 
        1.80399         5.80072         1.79606 
        1.81012         5.76382         1.78121 
        1.81625         5.73819         1.76653 
        1.82239         5.71165           1.752 
        1.82853         5.66828         1.73763 
        1.83466         5.63978         1.72345 
        1.84078         5.61512         1.70943 
        1.84692         5.60341         1.69555 
        1.85306         5.57348         1.68181 
         1.8592         5.55285         1.66824 
        1.86533         5.51589         1.65483 
        1.87147         5.49744         1.64155 
        1.87761         5.47172         1.62841 
        1.88375         5.44727         1.61543 
        1.88988         5.41818         1.60261 
        1.89601         5.38587         1.58991 
        1.90215         5.36586         1.57735 
        1.90829         5.34323         1.56493 
        1.91442         5.31953         1.55264 
        1.92056         5.30627         1.54049 
         1.9267         5.27679         1.52847 
        1.93284         5.24828         1.51656 
        1.93897         5.21498          1.5048 
        1.94509         5.18095          1.4932 
        1.95123         5.17811         1.48168 
        1.95737         5.15794         1.47028 
        1.96349         5.12108         1.45903 
        1.96964         5.09341         1.44787 
        1.97578         5.08129         1.43681 
        1.98192         5.06342          1.4259 
        1.98805         5.03296         1.41509 
        1.99419         5.01764          1.4044 
        2.00033         4.98788         1.39382 
        2.00647         4.97438         1.38334 
         2.0126         4.95037         1.37299 
        2.01874         4.92127         1.36273 
        2.02488         4.91105         1.35257 
        2.03101         4.88835         1.34253 
        2.03714         4.85401          1.3326 
        2.04328         4.83352         1.32276 
        2.04941         4.81531         1.31303 
        2.05554         4.79776          1.3034 
        2.06167         4.78699         1.29386 
        2.06781         4.76024         1.28441 
        2.07396         4.73654         1.27504 
        2.08009         4.70731         1.26578 
        2.08622         4.70711         1.25663 
        2.09237         4.68298         1.24754 
        2.09851         4.65643         1.23855 
        2.10464         4.64477         1.22966 
        2.11077         4.60938         1.22087 
        2.11691         4.60356         1.21214 
        2.12305         4.58658          1.2035 
        2.12918         4.55689         1.19496 
        2.13531         4.54854         1.18651 
        2.14145         4.52426         1.17811 
         2.1476         4.50958         1.16979 
        2.15372         4.48948          1.1616 
        2.15985          4.4707         1.15347 
        2.16599         4.45749         1.14539 
        2.17213         4.45212         1.13741 
        2.17827         4.42101          1.1295 
         2.1844         4.41416         1.12167 
        2.19054         4.39281         1.11392 
        2.19666         4.36952         1.10624 
         2.2028         4.34827         1.09864 
        2.20893         4.34239          1.0911 
        2.21508         4.31373         1.08363 
        2.22122         4.29635         1.07622 
        2.22736         4.27585          1.0689 
        2.23349          4.2589         1.06164 
        2.23962          4.2473         1.05445 
        2.24577         4.23605         1.04732 
         2.2519         4.22855         1.04027 
        2.25802         4.18766         1.03329 
        2.26417         4.17866         1.02636 
        2.27031         4.16351         1.01949 
        2.27644         4.15695          1.0127 
        2.28257         4.12824         1.00597 
        2.28872         4.11365        0.999285 
        2.29486         4.10183        0.992666 
        2.30099         4.09106         0.98612 
        2.30712         4.06591        0.979631 
        2.31326         4.05617        0.973189 
         2.3194         4.03627        0.966809 
        2.32553         4.02575        0.960497 
        2.33166         4.00551        0.954243 
         2.3378         3.99525        0.948037 
        2.34394         3.97562        0.941885 
        2.35007         3.96512        0.935795 
        2.35619         3.95381        0.929767 
        2.36233         3.93469        0.923777 
        2.36848          3.9192        0.917829 
        2.37462         3.90917        0.911945 
        2.38075           3.891        0.906118 
        2.38689         3.88362        0.900337 
        2.39303          3.8633        0.894608 
        2.39916          3.8541        0.888935 
        2.40529          3.8352        0.883312 
        2.41143          3.8334        0.877733 
        2.41757         3.80887          0.8722 
         2.4237         3.80015        0.866724 
        2.42983         3.78157        0.861297 
        2.43598         3.77516        0.855901 
        2.44211         3.75271        0.850561 
        2.44823          3.7392        0.845278 
        2.45437         3.73025        0.840026 
        2.46052         3.72328        0.834814 
        2.46665         3.70588        0.829655 
        2.47279         3.68823        0.824542 
        2.47892         3.67536        0.819468 
        2.48507         3.66526        0.814432 
         2.4912         3.65168        0.809448 
