#  k  (h/Mpc)          P(k)  (Mpc/h)^3     P_linear(k) (Mpc/h)^3
     0.00783031         8362.43         8471.39 
       0.013688         10191.4         10138.8 
       0.019231          9876.8          9853.1 
      0.0249154          8543.7         8657.19 
      0.0312784         7027.64         7053.69 
      0.0375637         5730.95         5700.28 
      0.0433917          4783.7         4811.18 
      0.0492413          4252.7         4248.01 
      0.0555754         3832.84         3891.83 
      0.0619321         3677.92         3650.78 
       0.067871         3374.19         3419.05 
      0.0738098         3085.24         3125.53 
      0.0800417         2705.27         2754.52 
      0.0862327         2357.29         2370.16 
      0.0921407         2063.64         2042.23 
      0.0982031         1794.01          1781.2 
       0.104506         1651.99         1600.36 
       0.110769         1538.73         1496.64 
       0.116806         1465.69         1439.93 
       0.122832          1421.2         1394.63 
       0.129052         1335.16         1333.52 
       0.135211         1252.65         1246.35 
       0.141259         1167.38         1138.74 
       0.147318         1066.28         1023.48 
       0.153489          955.52         915.514 
       0.159709         882.347         828.798 
       0.165845         835.001         769.101 
       0.171974         788.753          731.78 
       0.178125         760.698         708.516 
       0.184229         737.395         689.702 
        0.19034         694.818         666.825 
       0.196428         677.196         635.633 
       0.202534         647.927         596.257 
       0.208729         604.576         552.158 
       0.214876         563.976         509.799 
       0.220989         537.378         473.592 
       0.227147         507.289         445.353 
        0.23329         486.192         425.154 
       0.239377         475.384         410.877 
       0.245482         446.401         399.257 
       0.251667         442.247         387.224 
       0.257832         426.744         373.001 
       0.263955         410.112         356.206 
       0.270079         391.966         337.567 
        0.27624         383.012          318.62 
       0.282372         366.502         301.191 
        0.28843         352.935         286.462 
       0.294538         336.189         274.442 
       0.300721         332.599         264.734 
        0.30691         317.685         256.613 
       0.313033         310.629         249.093 
       0.319153         298.846         241.304 
       0.325316         291.338         232.746 
        0.33145         280.961         223.599 
       0.337538         276.011         214.261 
       0.343633         266.028         205.197 
       0.349808          256.88         196.766 
       0.355968         252.651         189.346 
       0.362074         246.298         183.001 
       0.368217         239.419         177.389 
       0.374374         230.801          172.25 
       0.380519         227.478         167.277 
       0.386598         221.409         162.288 
       0.392688         218.201         157.171 
        0.39888         212.362         151.869 
       0.405048         206.899         146.652 
       0.411186         202.328         141.689 
       0.417313         197.991         137.065 
       0.423458         193.625         132.829 
       0.429607         189.295         128.967 
       0.435692         183.481          125.42 
       0.441815         181.945         122.032 
       0.447964         178.439          118.73 
       0.454126         171.053         115.444 
       0.460267         169.003         112.182 
       0.466387         166.712          108.98 
        0.47254          162.87         105.846 
       0.478662         161.745         102.851 
       0.484765         156.539         100.022 
       0.490885         154.138         97.3609 
       0.497035         151.981         94.8408 
       0.503198         147.948         92.4353 
       0.509342         145.743         90.1273 
       0.515458         143.606         87.8984 
       0.521598          141.12         85.7115 
       0.527764         139.168         83.5541 
       0.533884         137.066         81.4599 
           0.54         134.574          79.432 
       0.546137         133.402          77.475 
       0.552299         130.976         75.5939 
       0.558452         128.709         73.7933 
       0.564573          126.53         72.0727 
       0.570708         124.281         70.4126 
       0.576825         122.784         68.8142 
       0.582926         120.404         67.2682 
       0.589034         118.726         65.7603 
       0.595184         117.181         64.2782 
       0.601379         115.663         62.8233 
       0.607522         113.182         61.4226 
       0.613639          112.66         60.0733 
       0.619772         110.236         58.7676 
       0.625918         108.918         57.5051 
       0.632068         107.696         56.2832 
       0.638161         106.583         55.1093 
         0.6443         105.157         53.9599 
       0.650464         103.992         52.8371 
       0.656582         102.363         51.7527 
       0.662703         100.854         50.6977 
       0.668861         99.4163         49.6658 
       0.675024         98.3177         48.6625 
       0.681124         97.4209         47.6978 
       0.687237         95.5871         46.7581 
       0.693381         94.3587         45.8401 
       0.699536         93.5331         44.9455 
       0.705665         93.5644         44.0791 
       0.711789          91.217         43.2364 
       0.717957         90.7767         42.4102 
        0.72409         89.3698         41.6104 
       0.730186          87.937         40.8362 
       0.736317         87.6147         40.0778 
       0.742472         86.7717         39.3361 
       0.748622         85.7774         38.6142 
        0.75476         84.9119         37.9122 
       0.760888         83.7082          37.229 
       0.767043         83.0769         36.5601 
       0.773185         82.0965         35.9093 
       0.779291         81.1783         35.2781 
       0.785407         80.5993         34.6613 
       0.791564         79.8235         34.0554 
       0.797719         78.4365         33.4644 
       0.803834         78.0942         32.8913 
       0.809972         76.8668         32.3296 
       0.816124         76.4766           31.78 
       0.822261         75.8274         31.2447 
       0.828378          75.198         30.7235 
       0.834502         74.5121         30.2139 
       0.840667         73.6538         29.7128 
       0.846816         72.7054         29.2245 
       0.852925          72.197         28.7505 
       0.859047         71.2579         28.2861 
       0.865192          70.859         27.8305 
       0.871341         70.3688         27.3849 
       0.877463         69.2957         26.9511 
       0.883569         68.9035         26.5279 
       0.889708         68.4068         26.1117 
       0.895864         67.8578         25.7034 
       0.902008         67.2016         25.3049 
       0.908149          66.753         24.9151 
       0.914301         66.0853         24.5329 
       0.920448         65.5936         24.1592 
       0.926574         64.9374         23.7947 
       0.932687         64.7675         23.4385 
       0.938823         63.7221         23.0884 
       0.944975          63.269         22.7448 
       0.951105         62.7726         22.4094 
       0.957225         62.0367         22.0814 
       0.963368         61.8626         21.7589 
       0.969511         61.4787         21.4429 
       0.975621         61.0927          21.135 
       0.981748         60.4182         20.8324 
       0.987916         59.9148         20.5338 
        0.99406         59.5544         20.2422 
        1.00019         58.9742          19.957 
        1.00632         58.6321         19.6775 
        1.01246          58.186          19.403 
        1.01859         57.4046         19.1343 
        1.02471         57.4081          18.871 
        1.03085          56.834         18.6118 
        1.03698          56.427          18.358 
        1.04314         55.9305         18.1079 
        1.04929         55.5428         17.8632 
        1.05541         54.9769         17.6239 
        1.06154         54.9646         17.3885 
        1.06769         54.4575         17.1571 
        1.07382         54.1945         16.9307 
        1.07993          53.831         16.7089 
        1.08607         53.3743         16.4902 
        1.09222         53.0854         16.2752 
        1.09836         52.6617         16.0644 
        1.10449         52.3396         15.8575 
        1.11063         51.8415         15.6541 
        1.11677         51.5506         15.4544 
         1.1229         51.1493         15.2585 
        1.12903         50.5181         15.0659 
        1.13518          50.755         14.8765 
        1.14131          50.366         14.6904 
        1.14745         49.7147         14.5077 
        1.15359         49.6387         14.3281 
        1.15973         49.0954         14.1515 
        1.16584         48.8535         13.9786 
        1.17197         48.5621         13.8084 
        1.17811         48.3505         13.6406 
        1.18424         47.8618         13.4761 
        1.19038         47.5953         13.3138 
        1.19652          47.478         13.1542 
        1.20267         47.0276         12.9973 
        1.20881         46.7925         12.8431 
        1.21495         46.3847         12.6915 
        1.22108         46.2077         12.5425 
         1.2272         45.7037         12.3962 
        1.23334         45.5433          12.252 
        1.23949         45.4961         12.1097 
        1.24562          44.992           11.97 
        1.25174         44.8606         11.8328 
        1.25789         44.6455         11.6974 
        1.26402         44.2569         11.5643 
        1.27014          43.858         11.4336 
        1.27628         43.6901         11.3046 
        1.28244          43.423         11.1773 
        1.28858         43.2483         11.0521 
        1.29471         43.0696         10.9292 
        1.30084         42.8214         10.8083 
        1.30697         42.5079          10.689 
        1.31312         42.1822         10.5714 
        1.31925         42.0596         10.4559 
        1.32537         41.8613         10.3422 
        1.33151         41.4397         10.2299 
        1.33765          41.374         10.1193 
        1.34378         41.0999         10.0106 
        1.34992         40.8161          9.9034 
        1.35606         40.5918         9.79755 
         1.3622         40.3567         9.69345 
        1.36833         40.1145         9.59113 
        1.37445         40.0168         9.49034 
        1.38059         39.7342          9.3907 
        1.38675         39.4388         9.29226 
        1.39288         39.3648         9.19564 
        1.39901         39.0795         9.10044 
        1.40515         38.8657         9.00638 
         1.4113         38.7172          8.9137 
        1.41742         38.4735         8.82269 
        1.42355         38.2317         8.73278 
         1.4297         38.0785         8.64386 
        1.43585         37.9371         8.55622 
        1.44198         37.6049         8.47014 
        1.44809         37.5211         8.38541 
        1.45423           37.31         8.30154 
        1.46036         37.1792         8.21896 
        1.46649         36.9262         8.13749 
        1.47263         36.7014         8.05706 
        1.47877         36.5768         7.97776 
        1.48491         36.5383          7.8994 
        1.49104         36.1923         7.82228 
        1.49718         35.8261         7.74612 
        1.50333         35.8316         7.67087 
        1.50947         35.6976         7.59678 
         1.5156         35.4431         7.52378 
        1.52172         35.2932         7.45174 
        1.52787         35.2248         7.38051 
          1.534         34.9834          7.3103 
        1.54013         34.7495         7.24109 
        1.54627         34.6574         7.17265 
        1.55241         34.3514         7.10508 
        1.55855         34.2737         7.03849 
        1.56467         33.9475         6.97294 
         1.5708         34.0229         6.90804 
        1.57695         33.7206         6.84387 
        1.58308         33.5972         6.78067 
        1.58922         33.5499         6.71823 
        1.59535         33.3488         6.65661 
         1.6015         33.0763         6.59567 
        1.60764         32.9168         6.53554 
        1.61376         32.7725         6.47632 
        1.61989         32.5648         6.41779 
        1.62604         32.4979         6.35986 
        1.63218         32.3941         6.30268 
        1.63831         32.1879         6.24634 
        1.64444         32.0443         6.19067 
        1.65059         31.8429         6.13555 
        1.65673         31.6671         6.08117 
        1.66285         31.5619          6.0276 
        1.66898         31.3871         5.97466 
        1.67512         31.2711         5.92226 
        1.68127         31.0744         5.87044 
         1.6874         30.9657         5.81936 
        1.69353         30.8174         5.76891 
        1.69967          30.664         5.71896 
        1.70581           30.59         5.66961 
        1.71193         30.4556         5.62104 
        1.71806          30.203         5.57294 
        1.72421         30.0738          5.5253 
        1.73035         29.9298         5.47828 
        1.73649         29.7851         5.43182 
        1.74262          29.677         5.38594 
        1.74876         29.6481         5.34056 
        1.75489         29.4553          5.2958 
        1.76101         29.2794         5.25157 
        1.76715         29.1961         5.20779 
        1.77329          29.093         5.16445 
        1.77943         28.9538         5.12159 
        1.78557         28.7501         5.07929 
        1.79171         28.6396         5.03745 
        1.79785         28.5032         4.99608 
        1.80399         28.4374         4.95519 
        1.81012         28.2938         4.91481 
        1.81625         28.1502         4.87489 
        1.82239         28.0529         4.83537 
        1.82853         27.8725          4.7963 
        1.83466         27.7998         4.75771 
        1.84078         27.5675         4.71958 
        1.84692         27.5036         4.68181 
        1.85306         27.3688         4.64441 
         1.8592         27.2457         4.60748 
        1.86533         27.1271         4.57098 
        1.87147          27.045         4.53482 
        1.87761         26.9607         4.49905 
        1.88375         26.8419         4.46371 
        1.88988          26.734         4.42878 
        1.89601         26.5682         4.39421 
        1.90215         26.4789         4.35999 
        1.90829         26.4325         4.32614 
        1.91442         26.2489         4.29266 
        1.92056         26.1753         4.25956 
         1.9267         26.0113         4.22677 
        1.93284         25.8583         4.19432 
        1.93897         25.8329         4.16226 
        1.94509         25.6806         4.13062 
        1.95123         25.5941         4.09922 
        1.95737         25.4304         4.06813 
        1.96349         25.3655         4.03744 
        1.96964         25.2462         4.00698 
        1.97578           25.14         3.97682 
        1.98192         25.0215         3.94703 
        1.98805         24.9506         3.91755 
        1.99419         24.8244         3.88837 
        2.00033         24.6871         3.85947 
        2.00647         24.6061         3.83088 
         2.0126         24.5086         3.80262 
        2.01874         24.4195         3.77461 
        2.02488         24.3524         3.74686 
        2.03101         24.1908         3.71944 
        2.03714         24.1072         3.69232 
        2.04328         23.9841         3.66544 
        2.04941         23.9029         3.63885 
        2.05554         23.8131         3.61254 
        2.06167         23.7174         3.58646 
        2.06781         23.6055         3.56064 
        2.07396         23.5479         3.53503 
        2.08009         23.4768         3.50972 
        2.08622         23.2874         3.48469 
        2.09237         23.2195         3.45986 
        2.09851          23.145         3.43526 
        2.10464         23.0689         3.41094 
        2.11077         22.9221         3.38689 
        2.11691         22.8594         3.36302 
        2.12305         22.7867         3.33938 
        2.12918         22.7136         3.31602 
        2.13531         22.5995         3.29289 
        2.14145         22.5669         3.26992 
         2.1476         22.4094         3.24715 
        2.15372         22.3049         3.22471 
        2.15985         22.1887         3.20246 
        2.16599         22.1771         3.18036 
        2.17213         22.0909         3.15849 
        2.17827         21.9218         3.13683 
         2.1844         21.8242          3.1154 
        2.19054         21.7763         3.09416 
        2.19666         21.6926         3.07314 
         2.2028         21.6106         3.05231 
        2.20893         21.5398         3.03166 
        2.21508         21.4406         3.01118 
        2.22122         21.2779         2.99088 
        2.22736         21.2949         2.97081 
        2.23349         21.1737         2.95093 
        2.23962          21.082         2.93122 
        2.24577         20.9825         2.91167 
         2.2519         20.9484         2.89234 
        2.25802         20.8154          2.8732 
        2.26417         20.7974         2.85419 
        2.27031         20.6807         2.83534 
        2.27644         20.5879         2.81671 
        2.28257          20.497         2.79824 
        2.28872         20.3997         2.77991 
        2.29486         20.3756         2.76175 
        2.30099           20.26         2.74379 
        2.30712         20.1975         2.72598 
        2.31326         20.1564          2.7083 
         2.3194         20.0599         2.69079 
        2.32553         19.9473         2.67346 
        2.33166         19.8521         2.65629 
         2.3378         19.7923         2.63925 
        2.34394           19.72         2.62236 
        2.35007         19.6434         2.60563 
        2.35619         19.5324         2.58908 
        2.36233         19.5067         2.57263 
        2.36848         19.3894         2.55629 
        2.37462           19.32         2.54012 
        2.38075          19.253         2.52411 
        2.38689         19.2149         2.50823 
        2.39303         19.0987         2.49248 
        2.39916         19.0168         2.47689 
        2.40529         18.9502         2.46144 
        2.41143         18.8746          2.4461 
        2.41757         18.8299         2.43089 
         2.4237         18.7222         2.41583 
        2.42983         18.6439         2.40091 
        2.43598          18.622         2.38607 
        2.44211         18.5175         2.37138 
        2.44823         18.4432         2.35685 
        2.45437         18.3657         2.34241 
        2.46052         18.3211         2.32807 
        2.46665         18.2718         2.31387 
        2.47279         18.1459          2.2998 
        2.47892         18.1111         2.28584 
        2.48507         18.0343         2.27199 
         2.4912         18.0031         2.25827 
