# k  (h/Mpc)    P(k)  (Mpc/h)^3    P_linear(k)  (Mpc/h)^3
     0.00783031         8361.85         8444.18 
       0.013688         9719.01         9933.34 
       0.019231         9570.51         9683.69 
      0.0249154         8664.33         8641.92 
      0.0312784         7185.98            7218 
      0.0375637         5910.92         5965.42 
      0.0433917         5092.07         5089.73 
      0.0492413         4461.63         4484.94 
      0.0555754         4068.72         4057.15 
      0.0619321         3672.57         3751.93 
       0.067871         3461.41         3489.58 
      0.0738098         3190.33         3199.28 
      0.0800417         2862.47         2856.14 
      0.0862327         2501.82         2502.92 
      0.0921407         2205.67         2191.32 
      0.0982031         1967.14         1926.92 
       0.104506         1739.94         1724.07 
       0.110769         1612.67          1588.7 
       0.116806         1545.75         1502.09 
       0.122832         1459.69         1435.87 
       0.129052         1391.79         1367.37 
       0.135211         1329.52          1286.2 
       0.141259         1221.89         1191.42 
       0.147318         1111.84         1088.31 
       0.153489         1023.42         986.092 
       0.159709         955.625         896.312 
       0.165845         867.272         826.403 
       0.171974          841.27         775.285 
       0.178125         804.956         738.677 
       0.184229         755.272         710.584 
        0.19034         738.639         684.256 
       0.196428          712.03         655.161 
       0.202534         661.516         621.252 
       0.208729         642.381         583.011 
       0.214876         608.766         544.128 
       0.220989         564.553          507.81 
       0.227147         546.595         476.087 
        0.23329         522.584         450.305 
       0.239377         511.201         430.077 
       0.245482          485.13         413.635 
       0.251667         466.066         398.955 
       0.257832         460.125         384.518 
       0.263955          434.24         369.305 
       0.270079         416.887         352.966 
        0.27624         398.465         335.875 
       0.282372         386.931          319.11 
        0.28843         382.077         303.631 
       0.294538         361.941         289.728 
       0.300721         349.006         277.553 
        0.30691         342.788         267.068 
       0.313033         327.179         257.876 
       0.319153          321.54         249.312 
       0.325316         313.521         240.835 
        0.33145         304.794         232.298 
       0.337538         293.561         223.681 
       0.343633         284.305          215.08 
       0.349808         275.892          206.62 
       0.355968         269.814         198.684 
       0.362074         261.725         191.443 
       0.368217         258.059         184.826 
       0.374374         251.701         178.778 
       0.380519         241.246         173.173 
       0.386598         237.447         167.906 
       0.392688         230.858         162.768 
        0.39888         225.724          157.62 
       0.405048         220.743         152.565 
       0.411186         218.462         147.639 
       0.417313         213.901         142.894 
       0.423458         208.096         138.368 
       0.429607         202.712         134.096 
       0.435692         199.405         130.133 
       0.441815         194.948         126.382 
       0.447964         189.483         122.804 
       0.454126         186.483         119.366 
       0.460267         184.217         116.054 
       0.466387         179.961         112.838 
        0.47254         177.799         109.684 
       0.478662         172.315         106.641 
       0.484765         169.992         103.713 
       0.490885         167.049         100.891 
       0.497035         165.052         98.1769 
       0.503198          162.75         95.5848 
       0.509342         158.446         93.1143 
       0.515458         156.198         90.7526 
       0.521598         152.453         88.4656 
       0.527764         150.982         86.2446 
       0.533884         150.113         84.1081 
           0.54         146.363         82.0348 
       0.546137         143.087         80.0158 
       0.552299         141.328          78.054 
       0.558452         138.871          76.164 
       0.564573         138.183          74.352 
       0.570708         134.548         72.6004 
       0.576825         132.926         70.9148 
       0.582926         131.463         69.2904 
       0.589034         129.338         67.7168 
       0.595184          128.03         66.1819 
       0.601379         125.437         64.6829 
       0.607522         122.926         63.2394 
       0.613639         122.071         61.8435 
       0.619772         120.321         60.4854 
       0.625918         119.482         59.1659 
       0.632068          116.69         57.8868 
       0.638161         115.546          56.659 
         0.6443         114.774         55.4596 
       0.650464         112.399         54.2914 
       0.656582         111.864         53.1656 
       0.662703         110.568         52.0711 
       0.668861         108.235         51.0009 
       0.675024         108.218         49.9598 
       0.681124         106.398         48.9582 
       0.687237         104.885         47.9823 
       0.693381         103.812         47.0287 
       0.699536         102.644         46.0997 
       0.705665         101.461            45.2 
       0.711789         100.106         44.3254 
       0.717957         98.9147         43.4682 
        0.72409         97.9736         42.6386 
       0.730186         97.6569         41.8359 
       0.736317         96.0912         41.0496 
       0.742472         94.6115         40.2809 
       0.748622         93.2429         39.5327 
        0.75476         93.3452         38.8052 
       0.760888         92.4448         38.0974 
       0.767043         90.6385         37.4045 
       0.773185         89.5935         36.7304 
       0.779291         88.6373         36.0769 
       0.785407         87.9202         35.4384 
       0.791564         87.4151         34.8116 
       0.797719          86.111         34.2002 
       0.803834         85.8052         33.6076 
       0.809972         85.0498         33.0269 
       0.816124          83.826         32.4588 
       0.822261         82.9245         31.9057 
       0.828378         82.7599         31.3672 
       0.834502         81.6608         30.8407 
       0.840667         81.1133          30.323 
       0.846816         80.3218         29.8187 
       0.852925         79.3572         29.3292 
       0.859047         79.0286         28.8497 
       0.865192         78.0968         28.3793 
       0.871341         77.2959         27.9193 
       0.877463         76.6508         27.4715 
       0.883569         76.5679         27.0348 
       0.889708         75.7809         26.6054 
       0.895864         75.1751         26.1842 
       0.902008         74.3653         25.7731 
       0.908149          73.415         25.3711 
       0.914301         73.2615         24.9771 
       0.920448         73.1017         24.5918 
       0.926574         71.5734         24.2161 
       0.932687         71.4264          23.849 
       0.938823         70.9021         23.4883 
       0.944975         70.0719         23.1342 
       0.951105         69.4835         22.7888 
       0.957225         69.2855          22.451 
       0.963368         68.5832         22.1189 
       0.969511         68.1497         21.7937 
       0.975621         67.4547         21.4767 
       0.981748         66.9418         21.1653 
       0.987916         66.4243         20.8581 
        0.99406         66.2044         20.5582 
        1.00019         65.3535         20.2648 
        1.00632         64.8776         19.9774 
        1.01246         64.5559         19.6953 
        1.01859         64.2711          19.419 
        1.02471         63.6577         19.1485 
        1.03085         63.1166         18.8821 
        1.03698         62.7513         18.6215 
        1.04314         62.2545         18.3646 
        1.04929         61.8794         18.1133 
        1.05541         61.4724         17.8676 
        1.06154         61.0687          17.626 
        1.06769         60.5516         17.3885 
        1.07382         59.9847         17.1561 
        1.07993         59.8432         16.9285 
        1.08607         59.3581         16.7042 
        1.09222         59.1207         16.4837 
        1.09836           58.62         16.2674 
        1.10449          58.284         16.0553 
        1.11063         57.8523         15.8467 
        1.11677         57.6055          15.642 
         1.1229         57.0332         15.4412 
        1.12903         56.8385         15.2437 
        1.13518         56.6014         15.0496 
        1.14131         56.0728          14.859 
        1.14745         55.7807         14.6718 
        1.15359         55.0964         14.4878 
        1.15973         55.1273         14.3068 
        1.16584         54.7149         14.1298 
        1.17197         54.2611         13.9556 
        1.17811         53.9644         13.7837 
        1.18424          53.326         13.6153 
        1.19038         53.2674         13.4492 
        1.19652         52.9989         13.2859 
        1.20267         52.6094         13.1254 
        1.20881         52.3131         12.9675 
        1.21495         52.0288         12.8125 
        1.22108         51.9438         12.6601 
         1.2272         51.3389         12.5105 
        1.23334         51.1798          12.363 
        1.23949         50.8255         12.2176 
        1.24562         50.4894         12.0749 
        1.25174         50.2461         11.9347 
        1.25789         50.0894         11.7963 
        1.26402         49.7216         11.6603 
        1.27014         49.5653         11.5269 
        1.27628         49.0822         11.3951 
        1.28244         49.0781         11.2651 
        1.28858         48.6511         11.1374 
        1.29471          48.302         11.0119 
        1.30084            47.9         10.8885 
        1.30697         47.9941         10.7668 
        1.31312         47.5971         10.6468 
        1.31925         47.2167         10.5289 
        1.32537         47.0068          10.413 
        1.33151         46.7344         10.2985 
        1.33765         46.5739         10.1857 
        1.34378         46.2902         10.0748 
        1.34992         46.0472         9.96555 
        1.35606         45.6795         9.85765 
         1.3622         45.5779         9.75155 
        1.36833           45.35         9.64726 
        1.37445         44.8914         9.54454 
        1.38059         44.8225         9.44301 
        1.38675         44.4382         9.34272 
        1.39288         44.3891         9.24428 
        1.39901         44.0011         9.14731 
        1.40515         43.8927         9.05151 
         1.4113         43.7739         8.95713 
        1.41742          43.448         8.86445 
        1.42355         43.2357         8.77291 
         1.4297         43.0584         8.68239 
        1.43585         42.8072         8.59319 
        1.44198            42.5         8.50559 
        1.44809          42.254         8.41937 
        1.45423         42.1444         8.33404 
        1.46036         41.9731         8.25004 
        1.46649          41.702         8.16717 
        1.47263         41.4933         8.08538 
        1.47877          41.323         8.00475 
        1.48491         41.0913          7.9251 
        1.49104         40.8383         7.84669 
        1.49718          40.725          7.7693 
        1.50333         40.5396         7.69282 
        1.50947         40.2942         7.61754 
         1.5156         40.1476         7.54337 
        1.52172         39.8581          7.4702 
        1.52787         39.7373         7.39785 
          1.534         39.4584         7.32655 
        1.54013         39.5026         7.25626 
        1.54627          39.109         7.18677 
        1.55241          38.946         7.11818 
        1.55855         38.8173         7.05059 
        1.56467          38.505         6.98406 
         1.5708         38.5094         6.91819 
        1.57695         38.2832         6.85308 
        1.58308         38.0036         6.78896 
        1.58922         37.8746         6.72561 
        1.59535         37.7814          6.6631 
         1.6015         37.7095         6.60129 
        1.60764         37.3902         6.54029 
        1.61376         37.2078         6.48024 
        1.61989         36.9464         6.42089 
        1.62604         36.8473         6.36215 
        1.63218          36.571         6.30419 
        1.63831         36.5433         6.24708 
        1.64444         36.3936         6.19066 
        1.65059         36.1466          6.1348 
        1.65673           36.01         6.07969 
        1.66285         35.9237         6.02542 
        1.66898         35.6655         5.97179 
        1.67512         35.5239         5.91871 
        1.68127         35.3875         5.86622 
         1.6874         35.2444         5.81449 
        1.69353         35.1137         5.76342 
        1.69967         34.9714         5.71284 
        1.70581         34.7361         5.66289 
        1.71193         34.5994         5.61373 
        1.71806         34.4869         5.56504 
        1.72421          34.315         5.51684 
        1.73035         34.1491         5.46926 
        1.73649         33.9423         5.42226 
        1.74262         33.7458         5.37584 
        1.74876         33.8287         5.32994 
        1.75489         33.5305         5.28467 
        1.76101         33.4369         5.23994 
        1.76715         33.2688         5.19567 
        1.77329         33.0072         5.15186 
        1.77943         33.0324         5.10853 
        1.78557         32.8987         5.06576 
        1.79171          32.705         5.02348 
        1.79785          32.603         4.98167 
        1.80399         32.4148         4.94035 
        1.81012         32.3233         4.89955 
        1.81625         32.0592         4.85923 
        1.82239           31.97          4.8193 
        1.82853         31.8707         4.77984 
        1.83466         31.7103         4.74086 
        1.84078          31.564         4.70235 
        1.84692         31.4167         4.66421 
        1.85306         31.2683         4.62645 
         1.8592         31.1925         4.58916 
        1.86533         31.0619         4.55231 
        1.87147         30.9264         4.51582 
        1.87761          30.753         4.47971 
        1.88375         30.6512         4.44404 
        1.88988         30.5425          4.4088 
        1.89601         30.3622         4.37392 
        1.90215         30.2449         4.33939 
        1.90829         30.1412         4.30525 
        1.91442         29.9981         4.27147 
        1.92056         29.9006         4.23809 
         1.9267         29.8315         4.20503 
        1.93284         29.6696          4.1723 
        1.93897         29.5744         4.13999 
        1.94509         29.4045         4.10808 
        1.95123          29.334         4.07643 
        1.95737         29.1726          4.0451 
        1.96349         29.1285         4.01417 
        1.96964         28.9555         3.98347 
        1.97578         28.7894         3.95309 
        1.98192          28.673         3.92308 
        1.98805         28.5527         3.89338 
        1.99419         28.4563         3.86398 
        2.00033         28.3332         3.83488 
        2.00647         28.2853         3.80608 
         2.0126         28.0832         3.77763 
        2.01874         28.0187         3.74943 
        2.02488         27.8381         3.72149 
        2.03101          27.745         3.69388 
        2.03714         27.6653         3.66658 
        2.04328         27.5519         3.63953 
        2.04941         27.4004         3.61277 
        2.05554          27.319          3.5863 
        2.06167         27.2141         3.56006 
        2.06781         27.1032         3.53408 
        2.07396         26.9883         3.50832 
        2.08009         26.8652         3.48286 
        2.08622         26.7792         3.45768 
        2.09237           26.67         3.43271 
        2.09851         26.5926         3.40797 
        2.10464         26.4425         3.38352 
        2.11077         26.3959         3.35934 
        2.11691         26.2146         3.33534 
        2.12305          26.133         3.31157 
        2.12918         26.0274          3.2881 
        2.13531         25.9318         3.26484 
        2.14145         25.8558         3.24176 
         2.1476         25.7294         3.21888 
        2.15372         25.6685         3.19633 
        2.15985         25.5112         3.17397 
        2.16599         25.3758         3.15177 
        2.17213           25.33          3.1298 
        2.17827         25.2281         3.10804 
         2.1844         25.1088         3.08652 
        2.19054         25.0763         3.06518 
        2.19666          24.912         3.04408 
         2.2028          24.868         3.02316 
        2.20893         24.7781         3.00243 
        2.21508         24.6685         2.98187 
        2.22122         24.5701         2.96149 
        2.22736         24.4775         2.94134 
        2.23349         24.3755         2.92139 
        2.23962          24.285         2.90161 
        2.24577         24.1749           2.882 
         2.2519         24.0696          2.8626 
        2.25802          23.949         2.84341 
        2.26417         23.8678         2.82433 
        2.27031         23.7925         2.80542 
        2.27644         23.7344         2.78673 
        2.28257          23.637         2.76822 
        2.28872         23.5715         2.74984 
        2.29486         23.4556         2.73163 
        2.30099         23.3253         2.71362 
        2.30712         23.2703         2.69576 
        2.31326         23.1601         2.67804 
         2.3194         23.0932         2.66048 
        2.32553         23.0145         2.64311 
        2.33166         22.9165         2.62591 
         2.3378         22.8202         2.60883 
        2.34394         22.7508          2.5919 
        2.35007         22.6781         2.57515 
        2.35619         22.6267         2.55856 
        2.36233         22.4578         2.54208 
        2.36848         22.4071         2.52571 
        2.37462         22.3727         2.50952 
        2.38075         22.2248         2.49349 
        2.38689         22.1194         2.47759 
        2.39303         22.0852         2.46182 
        2.39916         21.9628         2.44621 
        2.40529         21.9156         2.43074 
        2.41143         21.7973         2.41538 
        2.41757         21.6954         2.40016 
         2.4237         21.6641         2.38509 
        2.42983         21.5435         2.37015 
        2.43598         21.4472          2.3553 
        2.44211         21.3991         2.34061 
        2.44823         21.2858         2.32607 
        2.45437         21.2741         2.31161 
        2.46052         21.1734         2.29727 
        2.46665         21.0949         2.28307 
        2.47279         20.9901           2.269 
        2.47892         20.9251         2.25504 
        2.48507         20.8598         2.24118 
         2.4912         20.7941         2.22746 
