# k  (h/Mpc)    Pcb(k)  (Mpc/h)^3    Pcb_linear(k)  (Mpc/h)^3
     0.00783031          744.63         751.658 
       0.013688         837.786         846.047 
       0.019231         774.578         777.279 
      0.0249154         644.499         643.253 
      0.0312784         491.021         489.513 
      0.0375637         373.197         372.419 
      0.0433917         303.878         302.306 
      0.0492413         263.021         262.455 
      0.0555754         242.205         241.024 
      0.0619321         227.431         228.479 
       0.067871         215.023         215.064 
      0.0738098           195.4         195.396 
      0.0800417         169.259         168.775 
      0.0862327         141.164          140.85 
      0.0921407         117.962          117.53 
      0.0982031         100.673         99.8301 
       0.104506         88.8247         88.6009 
       0.110769         83.4798          83.237 
       0.116806         81.6662         81.2081 
       0.122832         79.8473         79.7885 
       0.129052         77.1307          76.885 
       0.135211         72.0542          71.643 
       0.141259         64.8482         64.6029 
       0.147318         57.0681         56.9135 
       0.153489         50.1952         49.8137 
       0.159709          44.856         44.3491 
       0.165845         41.0865         40.8818 
       0.171974         39.5785         39.0301 
       0.178125          38.564         38.1564 
       0.184229         37.7855         37.5267 
        0.19034         36.9112         36.5121 
       0.196428          35.161         34.8019 
       0.202534         32.5611         32.4331 
       0.208729         30.0792         29.6948 
       0.214876          27.592         27.0695 
       0.220989         25.2547         24.8833 
       0.227147         23.8076         23.2652 
        0.23329         22.7383         22.2059 
       0.239377          22.076         21.5421 
       0.245482         21.5386         21.0425 
       0.251667         20.8484         20.4927 
       0.257832         20.2661         19.7603 
       0.263955         19.2057         18.8242 
       0.270079         18.1337         17.7461 
        0.27624         17.0012         16.6378 
       0.282372         16.0187         15.6305 
        0.28843         15.3057         14.8012 
       0.294538         14.6262          14.154 
       0.300721         14.0476          13.659 
        0.30691         13.7273          13.263 
       0.313033         13.3261         12.8972 
       0.319153         13.0154         12.5039 
       0.325316         12.4356         12.0515 
        0.33145         11.9163         11.5524 
       0.337538         11.4263         11.0349 
       0.343633         10.9805         10.5327 
       0.349808         10.4889         10.0696 
       0.355968         10.0765         9.67186 
       0.362074         9.79516         9.33883 
       0.368217         9.47878         9.05223 
       0.374374         9.25789         8.79269 
       0.380519         8.94514         8.53949 
       0.386598         8.65798         8.28278 
       0.392688         8.36772         8.01336 
        0.39888          8.1221          7.7313 
       0.405048            7.86         7.45278 
       0.411186         7.58176         7.18741 
       0.417313         7.33563         6.94249 
       0.423458         7.07527         6.72115 
       0.429607         6.92371         6.52077 
       0.435692         6.75416         6.33872 
       0.441815         6.53955         6.16595 
       0.447964         6.34069         5.99634 
       0.454126          6.1996         5.82643 
       0.460267          6.0605         5.65747 
       0.466387         5.87153         5.49065 
        0.47254         5.72596         5.32664 
       0.478662         5.55086         5.17047 
       0.484765         5.40735          5.0242 
       0.490885         5.24287         4.88688 
       0.497035         5.09667         4.75703 
       0.503198         5.00115         4.63383 
       0.509342         4.85346         4.51618 
       0.515458          4.7538         4.40232 
       0.521598         4.64424         4.28991 
       0.527764         4.54892         4.17886 
       0.533884         4.40096          4.0714 
           0.54         4.31411          3.9675 
       0.546137         4.19272         3.86715 
       0.552299          4.1007          3.7705 
       0.558452         3.99946         3.67824 
       0.564573         3.92015         3.59057 
       0.570708         3.83516         3.50631 
       0.576825           3.753         3.42519 
       0.582926         3.66144         3.34648 
       0.589034         3.59262         3.26949 
       0.595184         3.52901         3.19388 
       0.601379         3.43657         3.11989 
       0.607522          3.3542         3.04885 
       0.613639         3.28106         2.98051 
       0.619772         3.22538         2.91431 
       0.625918         3.15664         2.85017 
       0.632068         3.09522         2.78807 
       0.638161         3.03113         2.72848 
         0.6443         2.96575         2.67027 
       0.650464         2.90597         2.61357 
       0.656582         2.86302         2.55892 
       0.662703         2.80379         2.50577 
       0.668861         2.73412         2.45375 
       0.675024         2.68273          2.4031 
       0.681124          2.6642         2.35435 
       0.687237         2.59795         2.30686 
       0.693381         2.53254         2.26048 
       0.699536          2.5045         2.21537 
       0.705665         2.45622         2.17174 
       0.711789         2.40057         2.12939 
       0.717957         2.35724         2.08792 
        0.72409         2.31824         2.04781 
       0.730186         2.29234           2.009 
       0.736317         2.23628         1.97097 
       0.742472         2.20762         1.93378 
       0.748622         2.17144         1.89757 
        0.75476          2.1193         1.86236 
       0.760888         2.09335         1.82809 
       0.767043         2.03865         1.79456 
       0.773185         2.01433         1.76194 
       0.779291         1.99617         1.73034 
       0.785407         1.95448         1.69948 
       0.791564         1.91964         1.66919 
       0.797719         1.88757         1.63966 
       0.803834         1.86043         1.61104 
       0.809972         1.82766         1.58302 
       0.816124         1.80098         1.55561 
       0.822261         1.77264         1.52892 
       0.828378         1.74444         1.50295 
       0.834502         1.71517         1.47756 
       0.840667         1.69458         1.45261 
       0.846816         1.66179          1.4283 
       0.852925         1.63621          1.4047 
       0.859047         1.61164          1.3816 
       0.865192         1.58804         1.35894 
       0.871341          1.5669         1.33678 
       0.877463         1.53715         1.31521 
       0.883569         1.51836         1.29418 
       0.889708         1.49929         1.27351 
       0.895864         1.47689         1.25323 
       0.902008         1.45023         1.23345 
       0.908149         1.43188          1.2141 
       0.914301         1.41292         1.19514 
       0.920448         1.39666         1.17661 
       0.926574         1.38039         1.15854 
       0.932687         1.35854         1.14089 
       0.938823         1.33139         1.12355 
       0.944975          1.3205         1.10653 
       0.951105         1.29231         1.08993 
       0.957225         1.28166          1.0737 
       0.963368         1.26566         1.05775 
       0.969511         1.25007         1.04212 
       0.975621         1.22891          1.0269 
       0.981748         1.20728         1.01194 
       0.987916         1.19536         0.99719 
        0.99406         1.18307        0.982792 
        1.00019         1.16595        0.968709 
        1.00632         1.15451        0.954916 
        1.01246         1.13809        0.941374 
        1.01859         1.12439        0.928118 
        1.02471         1.10503        0.915135 
        1.03085         1.09061        0.902358 
        1.03698         1.08051        0.889854 
        1.04314         1.06575        0.877535 
        1.04929         1.05611        0.865479 
        1.05541         1.03761          0.8537 
        1.06154         1.02881        0.842113 
        1.06769         1.01744        0.830724 
        1.07382         1.00245        0.819585 
        1.07993        0.989714        0.808676 
        1.08607        0.980455        0.797922 
        1.09222        0.966081        0.787353 
        1.09836        0.958198         0.77699 
        1.10449        0.941353        0.766826 
        1.11063        0.930833        0.756834 
        1.11677        0.922382        0.747025 
         1.1229        0.908731        0.737408 
        1.12903        0.901633        0.727952 
        1.13518        0.888848        0.718656 
        1.14131        0.880682        0.709528 
        1.14745        0.871731        0.700564 
        1.15359        0.859923        0.691755 
        1.15973        0.850522        0.683095 
        1.16584        0.840566        0.674622 
        1.17197        0.829354        0.666282 
        1.17811        0.819993        0.658058 
        1.18424        0.811744        0.649998 
        1.19038        0.801694        0.642051 
        1.19652        0.794672         0.63424 
        1.20267        0.787992         0.62656 
        1.20881        0.776254         0.61901 
        1.21495         0.76896        0.611596 
        1.22108        0.761765        0.604306 
         1.2272        0.750907        0.597153 
        1.23334        0.744203          0.5901 
        1.23949         0.73667        0.583144 
        1.24562        0.729128        0.576321 
        1.25174        0.722833        0.569618 
        1.25789        0.712219        0.563001 
        1.26402        0.705515        0.556502 
        1.27014        0.696091        0.550122 
        1.27628        0.691628        0.543824 
        1.28244         0.68367        0.537613 
        1.28858        0.675787        0.531507 
        1.29471        0.668956         0.52551 
        1.30084        0.663454        0.519612 
        1.30697        0.658038        0.513796 
        1.31312        0.650777        0.508061 
        1.31925        0.643924        0.502432 
        1.32537         0.63825        0.496894 
        1.33151        0.630869         0.49142 
        1.33765        0.624877        0.486032 
        1.34378        0.618507        0.480735 
        1.34992        0.613973        0.475514 
        1.35606        0.606263         0.47036 
         1.3622        0.601633        0.465292 
        1.36833        0.595843        0.460311 
        1.37445        0.589529        0.455405 
        1.38059        0.584625        0.450557 
        1.38675        0.578268        0.445768 
        1.39288        0.573139        0.441068 
        1.39901        0.567388        0.436438 
        1.40515        0.562201        0.431864 
         1.4113        0.558837        0.427358 
        1.41742        0.552043        0.422934 
        1.42355        0.545591        0.418565 
         1.4297         0.54216        0.414244 
        1.43585        0.536477        0.409987 
        1.44198        0.532521        0.405806 
        1.44809         0.52692        0.401691 
        1.45423        0.522262        0.397619 
        1.46036         0.51771         0.39361 
        1.46649        0.512629        0.389656 
        1.47263        0.507988        0.385753 
        1.47877        0.506225        0.381906 
        1.48491        0.498103        0.378105 
        1.49104        0.495934        0.374365 
        1.49718        0.489921        0.370672 
        1.50333        0.486618        0.367023 
        1.50947        0.482964        0.363432 
         1.5156        0.478492        0.359893 
        1.52172        0.474196        0.356402 
        1.52787        0.469266        0.352951 
          1.534        0.466584        0.349549 
        1.54013        0.462434        0.346196 
        1.54627        0.458462        0.342881 
        1.55241        0.454235        0.339609 
        1.55855        0.450458        0.336385 
        1.56467        0.446463        0.333211 
         1.5708        0.442945        0.330069 
        1.57695        0.438965        0.326964 
        1.58308        0.434419        0.323906 
        1.58922        0.431793        0.320884 
        1.59535        0.427671        0.317903 
         1.6015        0.424303        0.314956 
        1.60764        0.420638        0.312047 
        1.61376         0.41733        0.309184 
        1.61989         0.41403        0.306354 
        1.62604        0.409733        0.303553 
        1.63218        0.407638        0.300789 
        1.63831        0.403663        0.298067 
        1.64444          0.4012        0.295376 
        1.65059        0.397502        0.292713 
        1.65673        0.393715        0.290086 
        1.66285         0.39119        0.287499 
        1.66898        0.388506        0.284942 
        1.67512        0.383994        0.282411 
        1.68127        0.381439         0.27991 
         1.6874        0.379508        0.277444 
        1.69353        0.375402        0.275009 
        1.69967         0.37306        0.272598 
        1.70581        0.370924        0.270217 
        1.71193        0.367605        0.267874 
        1.71806        0.365202        0.265553 
        1.72421        0.361764        0.263256 
        1.73035        0.358296        0.260988 
        1.73649        0.357229        0.258748 
        1.74262        0.353049        0.256535 
        1.74876        0.351002        0.254348 
        1.75489        0.348755         0.25219 
        1.76101        0.345369        0.250058 
        1.76715        0.342974        0.247948 
        1.77329        0.340716         0.24586 
        1.77943         0.33789        0.243795 
        1.78557        0.336329        0.241757 
        1.79171        0.333374        0.239741 
        1.79785        0.330889        0.237749 
        1.80399        0.327311        0.235779 
        1.81012         0.32611        0.233835 
        1.81625        0.324005        0.231913 
        1.82239        0.321861        0.230011 
        1.82853        0.318669         0.22813 
        1.83466        0.316417        0.226273 
        1.84078        0.314045        0.224438 
        1.84692        0.311945         0.22262 
        1.85306        0.310382        0.220821 
         1.8592        0.307616        0.219044 
        1.86533        0.305906        0.217289 
        1.87147        0.302864         0.21555 
        1.87761         0.30089        0.213829 
        1.88375        0.299017         0.21213 
        1.88988        0.296278        0.210451 
        1.89601        0.294093        0.208789 
        1.90215        0.292785        0.207144 
        1.90829        0.290201        0.205517 
        1.91442        0.288983        0.203908 
        1.92056        0.286992        0.202317 
         1.9267        0.284488        0.200742 
        1.93284        0.282365        0.199183 
        1.93897         0.28079        0.197643 
        1.94509        0.279191        0.196123 
        1.95123        0.276502        0.194616 
        1.95737        0.274898        0.193123 
        1.96349        0.272902        0.191649 
        1.96964        0.271352        0.190187 
        1.97578        0.269284        0.188739 
        1.98192        0.267867         0.18731 
        1.98805        0.266111        0.185895 
        1.99419        0.264544        0.184494 
        2.00033        0.262722        0.183108 
        2.00647        0.261286        0.181736 
         2.0126        0.259255        0.180381 
        2.01874         0.25753        0.179037 
        2.02488        0.255607        0.177706 
        2.03101         0.25404        0.176391 
        2.03714        0.253141         0.17509 
        2.04328        0.250651        0.173801 
        2.04941        0.249579        0.172526 
        2.05554        0.247769        0.171265 
        2.06167        0.246137        0.170015 
        2.06781        0.243966        0.168777 
        2.07396        0.243369         0.16755 
        2.08009        0.241298        0.166337 
        2.08622        0.240023        0.165138 
        2.09237        0.238602        0.163948 
        2.09851        0.236572        0.162769 
        2.10464        0.235487        0.161605 
        2.11077        0.233111        0.160453 
        2.11691        0.232318        0.159309 
        2.12305        0.231287        0.158177 
        2.12918         0.22935        0.157059 
        2.13531        0.227927        0.155951 
        2.14145        0.226494        0.154852 
         2.1476        0.225116        0.153761 
        2.15372        0.224143        0.152687 
        2.15985        0.222093        0.151622 
        2.16599        0.221298        0.150564 
        2.17213        0.219797        0.149518 
        2.17827        0.218174        0.148482 
         2.1844        0.217396        0.147456 
        2.19054        0.215998         0.14644 
        2.19666        0.214583        0.145435 
         2.2028        0.212923        0.144438 
        2.20893        0.212282         0.14345 
        2.21508        0.210969        0.142471 
        2.22122        0.209737          0.1415 
        2.22736        0.207796         0.14054 
        2.23349        0.206614         0.13959 
        2.23962        0.205723        0.138648 
        2.24577        0.204604        0.137713 
         2.2519        0.203308        0.136789 
        2.25802        0.202059        0.135875 
        2.26417         0.20093        0.134966 
        2.27031        0.199815        0.134065 
        2.27644         0.19927        0.133175 
        2.28257        0.197415        0.132293 
        2.28872        0.196626        0.131417 
        2.29486        0.195412         0.13055 
        2.30099        0.194076        0.129692 
        2.30712        0.192996        0.128841 
        2.31326         0.19183        0.127997 
         2.3194        0.190907        0.127161 
        2.32553        0.189772        0.126333 
        2.33166         0.18907        0.125514 
         2.3378        0.187821          0.1247 
        2.34394        0.186807        0.123894 
        2.35007        0.185534        0.123095 
        2.35619        0.184184        0.122305 
        2.36233         0.18369         0.12152 
        2.36848        0.182509         0.12074 
        2.37462        0.181678        0.119969 
        2.38075        0.180691        0.119205 
        2.38689          0.1797        0.118447 
        2.39303        0.178688        0.117696 
        2.39916        0.177632        0.116952 
        2.40529        0.176614        0.116215 
        2.41143        0.175587        0.115483 
        2.41757        0.174589        0.114758 
         2.4237        0.173776         0.11404 
        2.42983         0.17272        0.113328 
        2.43598        0.172021        0.112621 
        2.44211        0.170675        0.111921 
        2.44823        0.170186        0.111228 
        2.45437        0.169454        0.110539 
        2.46052        0.168356        0.109856 
        2.46665        0.167425        0.109179 
        2.47279        0.166474        0.108509 
        2.47892        0.165876        0.107844 
        2.48507        0.164864        0.107183 
         2.4912        0.163973         0.10653 
