# k  (h/Mpc)    P(k)  (Mpc/h)^3    P_linear(k)  (Mpc/h)^3
     0.00783031         13223.8         13308.7 
       0.013688         16743.8         17217.4 
       0.019231         17961.5         18281.7 
      0.0249154         17737.5         17796.2 
      0.0312784         16054.2         16334.2 
      0.0375637         14270.5         14658.5 
      0.0433917         13046.3           13261 
      0.0492413         11807.4         12131.9 
      0.0555754         10946.4         11194.2 
      0.0619321          9878.1         10440.6 
       0.067871         9391.53         9793.02 
      0.0738098         8821.59         9125.16 
      0.0800417          8105.9         8378.18 
      0.0862327         7342.84         7616.29 
      0.0921407         6707.53         6921.56 
      0.0982031         6185.38         6291.06 
       0.104506         5590.25          5754.7 
       0.110769         5214.97         5343.02 
       0.116806         5007.81         5037.44 
       0.122832         4709.65         4786.52 
       0.129052         4465.32         4547.01 
       0.135211         4323.31         4302.18 
       0.141259         4016.38         4044.19 
       0.147318         3726.84         3773.87 
       0.153489         3529.19         3502.13 
       0.159709         3398.74         3250.23 
       0.165845         3115.88         3036.22 
       0.171974         3041.07         2860.89 
       0.178125         2954.42         2719.12 
       0.184229         2731.01         2602.22 
        0.19034         2695.53         2496.92 
       0.196428         2623.26         2393.44 
       0.202534         2475.07          2285.1 
       0.208729         2422.71         2169.74 
       0.214876         2323.57         2053.42 
       0.220989          2214.8         1941.53 
       0.227147         2158.84         1838.04 
        0.23329         2078.84         1747.28 
       0.239377         2068.82         1670.15 
       0.245482         1978.91         1603.64 
       0.251667         1907.58         1543.83 
       0.257832         1880.49         1487.91 
       0.263955         1802.24         1433.07 
       0.270079         1762.99         1377.36 
        0.27624         1690.08         1320.53 
       0.282372          1674.5         1264.47 
        0.28843         1644.35         1211.21 
       0.294538         1574.95         1161.23 
       0.300721          1548.6         1115.26 
        0.30691         1512.03         1073.98 
       0.313033         1459.98         1037.04 
       0.319153          1446.7         1002.92 
       0.325316         1429.55         970.185 
        0.33145         1401.87         938.368 
       0.337538         1359.61          907.06 
       0.343633         1330.12         876.066 
       0.349808         1308.83         845.345 
       0.355968         1282.41         815.905 
       0.362074         1249.32          788.33 
       0.368217         1245.58         762.437 
       0.374374         1226.78          738.33 
       0.380519          1187.9         715.859 
       0.386598         1184.53         694.873 
       0.392688         1155.46         674.716 
        0.39888         1133.78         654.827 
       0.405048         1114.15         635.497 
       0.411186         1108.53         616.693 
       0.417313         1107.82         598.463 
       0.423458         1073.67         580.851 
       0.429607         1046.02         563.995 
       0.435692         1039.51         548.146 
       0.441815         1020.22         533.017 
       0.447964         1011.19         518.561 
       0.454126         997.389         504.715 
       0.460267         986.511         491.445 
       0.466387         972.023         478.642 
        0.47254         954.108         466.133 
       0.478662         944.747         454.048 
       0.484765          936.29         442.366 
       0.490885         925.393         431.037 
       0.497035         910.364         420.065 
       0.503198         909.433         409.511 
       0.509342         893.104          399.41 
       0.515458         875.716         389.741 
       0.521598         875.312         380.388 
       0.527764         855.072         371.318 
       0.533884         847.414         362.602 
           0.54         841.378         354.151 
       0.546137           831.7         345.912 
       0.552299         825.251         337.887 
       0.558452         817.949         330.126 
       0.564573         811.649         322.655 
       0.570708         804.073         315.409 
       0.576825         787.991          308.42 
       0.582926         786.483         301.677 
       0.589034         777.733         295.142 
       0.595184         768.862         288.765 
       0.601379         756.985         282.535 
       0.607522         748.097         276.532 
       0.613639          747.19         270.722 
       0.619772         740.557          265.06 
       0.625918         731.146         259.549 
       0.632068         726.292         254.195 
       0.638161         716.611         249.045 
         0.6443         710.702         244.005 
       0.650464          705.77         239.089 
       0.656582         700.518         234.348 
       0.662703          691.09         229.736 
       0.668861         685.013         225.223 
       0.675024          680.73         220.829 
       0.681124         669.857         216.598 
       0.687237         670.186          212.47 
       0.693381         658.646          208.43 
       0.699536         659.189         204.489 
       0.705665         651.253         200.667 
       0.711789         649.139         196.947 
       0.717957         641.122         193.297 
        0.72409         635.701         189.761 
       0.730186         633.744         186.337 
       0.736317         626.122          182.98 
       0.742472         618.257         179.695 
       0.748622         616.392         176.494 
        0.75476         609.453         173.379 
       0.760888         606.498         170.345 
       0.767043          604.16         167.371 
       0.773185         599.984         164.475 
       0.779291         592.637         161.664 
       0.785407         588.426         158.916 
       0.791564         584.741         156.215 
       0.797719         576.501         153.578 
       0.803834         577.539          151.02 
       0.809972         569.779         148.511 
       0.816124         565.805         146.055 
       0.822261         562.623         143.661 
       0.828378         559.991         141.329 
       0.834502         551.517         139.047 
       0.840667         550.606         136.801 
       0.846816         545.481         134.612 
       0.852925         543.864         132.484 
       0.859047         538.788         130.399 
       0.865192         535.716         128.352 
       0.871341         529.333         126.348 
       0.877463         528.344         124.396 
       0.883569         522.672         122.491 
       0.889708         517.533         120.616 
       0.895864         512.877         118.776 
       0.902008         512.348         116.979 
       0.908149         507.645          115.22 
       0.914301         505.951         113.495 
       0.920448         499.784         111.807 
       0.926574           497.7         110.159 
       0.932687         496.105         108.549 
       0.938823         489.817         106.965 
       0.944975         487.315         105.409 
       0.951105         484.308         103.891 
       0.957225         477.556         102.405 
       0.963368         478.795         100.943 
       0.969511         471.377         99.5097 
       0.975621         470.545         98.1123 
       0.981748         467.438         96.7384 
       0.987916         464.844         95.3823 
        0.99406          460.63         94.0576 
        1.00019         456.118         92.7608 
        1.00632         454.788         91.4898 
        1.01246         451.401         90.2409 
        1.01859         447.381         89.0174 
        1.02471          445.56         87.8184 
        1.03085         442.508         86.6374 
        1.03698         440.634         85.4807 
        1.04314         436.889         84.3404 
        1.04929         435.134         83.2237 
        1.05541         429.072         82.1319 
        1.06154         428.495          81.057 
        1.06769         424.348              80 
        1.07382         421.576         78.9653 
        1.07993         420.493         77.9515 
        1.08607         417.272         76.9514 
        1.09222         413.755         75.9679 
        1.09836         411.421         75.0029 
        1.10449         408.069         74.0559 
        1.11063         406.171         73.1243 
        1.11677         401.825         72.2091 
         1.1229         400.862         71.3113 
        1.12903         397.368         70.4281 
        1.13518          395.45         69.5593 
        1.14131         393.709         68.7056 
        1.14745         389.028         67.8669 
        1.15359         386.506          67.042 
        1.15973           384.9         66.2307 
        1.16584         383.295         65.4365 
        1.17197         380.222         64.6543 
        1.17811         376.144         63.8825 
        1.18424          374.99         63.1256 
        1.19038         372.805         62.3789 
        1.19652         369.044         61.6447 
        1.20267         368.095         60.9223 
        1.20881         366.351         60.2117 
        1.21495         362.024         59.5136 
        1.22108         361.447         58.8268 
         1.2272         356.223         58.1525 
        1.23334         355.544         57.4872 
        1.23949         353.027         56.8309 
        1.24562         352.599         56.1867 
        1.25174         348.956         55.5534 
        1.25789         346.444         54.9281 
        1.26402          344.82         54.3135 
        1.27014         343.211         53.7099 
        1.27628          339.92         53.1136 
        1.28244         337.887         52.5254 
        1.28858         336.479         51.9468 
        1.29471         334.702         51.3783 
        1.30084         332.932         50.8189 
        1.30697         329.475          50.267 
        1.31312         327.441         49.7225 
        1.31925         325.877         49.1878 
        1.32537         324.298         48.6616 
        1.33151         321.231         48.1413 
        1.33765         319.064         47.6289 
        1.34378         317.027          47.125 
        1.34992         314.513          46.628 
        1.35606         312.872         46.1372 
         1.3622         311.454         45.6544 
        1.36833         310.271         45.1797 
        1.37445          308.61          44.712 
        1.38059         305.024         44.2495 
        1.38675         303.799         43.7925 
        1.39288         302.624         43.3438 
        1.39901         299.835         42.9016 
        1.40515         298.461         42.4647 
         1.4113         296.246          42.034 
        1.41742         293.532         41.6109 
        1.42355         293.456         41.1929 
         1.4297         291.027         40.7794 
        1.43585         287.943         40.3718 
        1.44198         287.143         39.9714 
        1.44809          285.73         39.5771 
        1.45423          283.65         39.1867 
        1.46036          282.23         38.8023 
        1.46649          280.58          38.423 
        1.47263         277.751         38.0484 
        1.47877         276.696          37.679 
        1.48491         274.474         37.3139 
        1.49104         272.629         36.9545 
        1.49718         271.397         36.5996 
        1.50333         269.125         36.2487 
        1.50947         268.427         35.9032 
         1.5156         266.025         35.5627 
        1.52172         264.456         35.2267 
        1.52787         262.629         34.8944 
          1.534         262.233         34.5667 
        1.54013         259.775         34.2436 
        1.54627         258.375         33.9241 
        1.55241         256.853         33.6086 
        1.55855         255.393         33.2976 
        1.56467         253.695         32.9914 
         1.5708         252.361         32.6882 
        1.57695         250.885         32.3884 
        1.58308         249.792          32.093 
        1.58922         247.629         31.8011 
        1.59535         245.703          31.513 
         1.6015         244.738          31.228 
        1.60764         243.135         30.9467 
        1.61376         241.221         30.6697 
        1.61989         239.789         30.3959 
        1.62604         238.169         30.1248 
        1.63218         236.787         29.8571 
        1.63831           236.2         29.5934 
        1.64444         233.968         29.3328 
        1.65059         233.251         29.0747 
        1.65673         231.263         28.8199 
        1.66285         230.123          28.569 
        1.66898         228.762          28.321 
        1.67512         227.092         28.0754 
        1.68127         226.047         27.8326 
         1.6874         224.335         27.5931 
        1.69353         223.518         27.3567 
        1.69967          221.98         27.1224 
        1.70581         220.599          26.891 
        1.71193         219.286         26.6632 
        1.71806         217.437         26.4375 
        1.72421         216.685         26.2141 
        1.73035         214.859         25.9934 
        1.73649         213.308         25.7754 
        1.74262         212.609           25.56 
        1.74876         211.275          25.347 
        1.75489         210.258         25.1368 
        1.76101         209.194         24.9291 
        1.76715         207.528         24.7235 
        1.77329         205.653         24.5199 
        1.77943         204.696         24.3185 
        1.78557         203.863         24.1198 
        1.79171         203.199         23.9232 
        1.79785           201.6         23.7287 
        1.80399          200.21         23.5365 
        1.81012         199.184         23.3467 
        1.81625          197.65          23.159 
        1.82239         196.646         22.9731 
        1.82853         195.887         22.7894 
        1.83466         194.176         22.6079 
        1.84078         193.206         22.4285 
        1.84692         192.364         22.2508 
        1.85306          190.72         22.0748 
         1.8592         190.076          21.901 
        1.86533         188.243         21.7291 
        1.87147         187.547          21.559 
        1.87761         186.409         21.3905 
        1.88375         184.954         21.2241 
        1.88988         184.251         21.0596 
        1.89601         183.772         20.8968 
        1.90215         182.227         20.7356 
        1.90829         180.949         20.5762 
        1.91442         180.156         20.4184 
        1.92056         178.602         20.2624 
         1.9267         178.087         20.1079 
        1.93284           176.9         19.9549 
        1.93897         175.699         19.8038 
        1.94509         174.991         19.6546 
        1.95123         173.759         19.5066 
        1.95737         173.203           19.36 
        1.96349         171.859         19.2153 
        1.96964         170.763         19.0716 
        1.97578         169.917         18.9293 
        1.98192         169.072         18.7888 
        1.98805         167.889         18.6497 
        1.99419         166.754          18.512 
        2.00033         166.136         18.3756 
        2.00647         164.842         18.2407 
         2.0126          163.94         18.1073 
        2.01874         163.095         17.9751 
        2.02488         162.073          17.844 
        2.03101         161.731         17.7146 
        2.03714         160.558         17.5865 
        2.04328          159.27         17.4595 
        2.04941           158.8          17.334 
        2.05554         157.796         17.2097 
        2.06167          156.74         17.0865 
        2.06781         155.975         16.9645 
        2.07396         154.851         16.8435 
        2.08009         154.279         16.7239 
        2.08622         153.184         16.6056 
        2.09237         152.224         16.4882 
        2.09851         151.606         16.3719 
        2.10464         150.836          16.257 
        2.11077         149.827         16.1432 
        2.11691          149.15         16.0304 
        2.12305         148.139         15.9186 
        2.12918         147.197         15.8081 
        2.13531         146.234         15.6987 
        2.14145         145.717           15.59 
         2.1476         144.735         15.4823 
        2.15372          143.97         15.3761 
        2.15985         143.078         15.2709 
        2.16599         142.447         15.1663 
        2.17213         141.507         15.0628 
        2.17827         140.822         14.9603 
         2.1844         139.941         14.8588 
        2.19054         139.182         14.7583 
        2.19666         138.307         14.6588 
         2.2028          137.78         14.5601 
        2.20893         137.014         14.4624 
        2.21508         135.892         14.3654 
        2.22122         135.105         14.2692 
        2.22736         134.552         14.1742 
        2.23349         133.951           14.08 
        2.23962         133.233         13.9866 
        2.24577         132.393          13.894 
         2.2519         131.489         13.8024 
        2.25802         131.206         13.7118 
        2.26417         130.265         13.6217 
        2.27031         129.458         13.5323 
        2.27644         128.786          13.444 
        2.28257         128.303         13.3565 
        2.28872         127.363         13.2696 
        2.29486         126.704         13.1835 
        2.30099         125.837         13.0984 
        2.30712         125.382         13.0139 
        2.31326         124.591         12.9301 
         2.3194         124.073          12.847 
        2.32553         123.282         12.7649 
        2.33166         122.924         12.6834 
         2.3378         122.023         12.6026 
        2.34394         120.971         12.5225 
        2.35007         120.622         12.4431 
        2.35619         119.819         12.3646 
        2.36233         119.468         12.2865 
        2.36848         118.658          12.209 
        2.37462         118.298         12.1323 
        2.38075         117.529         12.0563 
        2.38689         116.765         11.9809 
        2.39303         116.143         11.9062 
        2.39916         115.663         11.8322 
        2.40529         115.001         11.7588 
        2.41143         114.109          11.686 
        2.41757         113.465         11.6138 
         2.4237         113.127         11.5423 
        2.42983         112.499         11.4714 
        2.43598         111.731          11.401 
        2.44211         111.311         11.3312 
        2.44823         110.672         11.2622 
        2.45437         110.203         11.1936 
        2.46052         109.449         11.1255 
        2.46665          108.99         11.0581 
        2.47279         108.353         10.9912 
        2.47892         107.817         10.9249 
        2.48507         107.309          10.859 
         2.4912         106.736         10.7939 
