#  k  (h/Mpc)          P(k)  (Mpc/h)^3     P_linear(k) (Mpc/h)^3
     0.00783031           14142         14211.6 
       0.013688         17360.3         17811.7 
       0.019231           18143         18430.4 
      0.0249154         17507.3           17513 
      0.0312784         15434.4         15646.4 
      0.0375637         13356.9         13654.5 
      0.0433917           11903         12033.3 
      0.0492413         10536.1         10746.3 
      0.0555754         9598.54         9717.14 
      0.0619321         8566.84         8956.54 
       0.067871          8127.6          8371.6 
      0.0738098         7644.44         7811.92 
      0.0800417          7045.8         7193.71 
      0.0862327         6374.12         6540.71 
      0.0921407         5802.56         5911.58 
      0.0982031         5294.85         5305.91 
       0.104506         4706.37         4761.96 
       0.110769         4326.86         4330.41 
       0.116806         4101.59         4015.15 
       0.122832          3834.1          3779.1 
       0.129052          3631.2         3587.13 
       0.135211          3530.8         3416.75 
       0.141259         3295.58         3244.66 
       0.147318         3073.36         3055.92 
       0.153489         2907.22         2848.01 
       0.159709         2787.08         2633.69 
       0.165845          2538.9         2432.49 
       0.171974         2459.55         2254.46 
       0.178125         2362.97         2105.78 
       0.184229         2172.91         1988.22 
        0.19034         2138.18         1895.16 
       0.196428         2077.11         1818.48 
       0.202534         1958.06         1748.48 
       0.208729          1923.8         1676.89 
       0.214876         1843.26         1601.07 
       0.220989          1752.9         1520.58 
       0.227147         1705.55         1437.13 
        0.23329         1637.37         1355.82 
       0.239377         1623.56         1281.27 
       0.245482            1544         1215.24 
       0.251667            1487         1158.18 
       0.257832         1462.83         1110.18 
       0.263955         1397.81            1069 
       0.270079         1361.92         1031.55 
        0.27624         1306.73         995.115 
       0.282372         1291.58         958.409 
        0.28843         1271.14         921.149 
       0.294538         1212.87         882.925 
       0.300721         1189.21         844.675 
        0.30691         1161.38         808.051 
       0.313033         1116.76         774.525 
       0.319153         1104.15         744.209 
       0.325316         1090.72         716.924 
        0.33145         1067.28         692.485 
       0.337538         1032.46         670.189 
       0.343633         1008.85         649.013 
       0.349808         989.996         628.118 
       0.355968         970.967         607.415 
       0.362074         941.491         587.007 
       0.368217         938.834         566.748 
       0.374374         924.671         547.034 
       0.380519         892.036         528.286 
       0.386598          887.23         510.851 
       0.392688         865.714         494.609 
        0.39888         847.139         479.263 
       0.405048         831.494          464.97 
       0.411186         829.125         451.512 
       0.417313         825.488         438.592 
       0.423458         799.973         425.992 
       0.429607         778.389         413.668 
       0.435692          771.91         401.725 
       0.441815         757.158         390.025 
       0.447964         748.417         378.682 
       0.454126          738.71         367.786 
       0.460267         729.031         357.443 
       0.466387         717.281         347.668 
        0.47254          705.37         338.323 
       0.478662         695.916         329.447 
       0.484765         688.895         320.958 
       0.490885         681.126          312.74 
       0.497035         668.651         304.719 
       0.503198          668.18         296.904 
       0.509342         655.418         289.336 
       0.515458         642.748         282.029 
       0.521598         640.409         274.932 
       0.527764         626.219         268.061 
       0.533884         620.615         261.508 
           0.54         615.481         255.215 
       0.546137         606.526         249.136 
       0.552299         603.594         243.251 
       0.558452         595.932         237.576 
       0.564573         591.126         232.109 
       0.570708         585.318         226.791 
       0.576825         573.644         221.637 
       0.582926         572.123         216.644 
       0.589034         564.007         211.793 
       0.595184         558.662         207.059 
       0.601379         550.347         202.442 
       0.607522         541.867          198.01 
       0.613639         541.286         193.736 
       0.619772         538.035         189.587 
       0.625918          528.66         185.558 
       0.632068         525.855         181.648 
       0.638161          520.04         177.885 
         0.6443         514.259         174.198 
       0.650464         510.069         170.598 
       0.656582         506.191         167.122 
       0.662703         500.811         163.742 
       0.668861         494.611         160.436 
       0.675024         492.142         157.221 
       0.681124         483.528         154.129 
       0.687237         483.114         151.116 
       0.693381           475.7         148.171 
       0.699536          475.09           145.3 
       0.705665         469.226         142.519 
       0.711789         467.894         139.813 
       0.717957         461.242          137.16 
        0.72409         457.064         134.591 
       0.730186         457.631         132.102 
       0.736317         450.402         129.664 
       0.742472         446.014         127.277 
       0.748622         443.932         124.953 
        0.75476         439.452         122.692 
       0.760888         436.807         120.492 
       0.767043         434.008         118.337 
       0.773185         430.861          116.24 
       0.779291         425.822         114.206 
       0.785407         423.203         112.219 
       0.791564          420.43         110.267 
       0.797719         414.305         108.363 
       0.803834         416.079         106.517 
       0.809972         409.576         104.706 
       0.816124          406.27         102.934 
       0.822261         403.535         101.208 
       0.828378         401.742         99.5274 
       0.834502         395.345         97.8834 
       0.840667         395.524          96.266 
       0.846816         390.045           94.69 
       0.852925         390.505         93.1595 
       0.859047         386.713         91.6598 
       0.865192         384.607         90.1884 
       0.871341         379.693         88.7485 
       0.877463         378.295         87.3468 
       0.883569         374.983         85.9791 
       0.889708         371.376         84.6338 
       0.895864         367.958         83.3139 
       0.902008         366.746         82.0251 
       0.908149          363.57         80.7644 
       0.914301         362.029         79.5282 
       0.920448         358.655         78.3192 
       0.926574         356.643         77.1396 
       0.932687         355.343         75.9869 
       0.938823         351.176         74.8537 
       0.944975         350.141         73.7412 
       0.951105         347.189         72.6553 
       0.957225         342.817         71.5932 
       0.963368         343.628         70.5488 
       0.969511         337.809         69.5253 
       0.975621          336.89         68.5277 
       0.981748          335.35         67.5472 
       0.987916         333.235         66.5798 
        0.99406         330.119         65.6351 
        1.00019         326.992         64.7106 
        1.00632         326.774         63.8049 
        1.01246         323.982         62.9153 
        1.01859         320.561         62.0442 
        1.02471         318.743         61.1907 
        1.03085         317.817         60.3504 
        1.03698         315.978         59.5277 
        1.04314         314.421          58.717 
        1.04929         312.483         57.9233 
        1.05541         308.883         57.1476 
        1.06154         307.484         56.3842 
        1.06769         304.756         55.6337 
        1.07382         303.105         54.8994 
        1.07993         301.523         54.1801 
        1.08607         299.878         53.4707 
        1.09222         297.251         52.7733 
        1.09836         296.281         52.0893 
        1.10449         294.094         51.4182 
        1.11063         292.095         50.7582 
        1.11677         289.147         50.1101 
         1.1229         288.792         49.4745 
        1.12903         286.225         48.8494 
        1.13518         284.326         48.2346 
        1.14131         283.386         47.6307 
        1.14745         280.176         47.0375 
        1.15359         278.198         46.4543 
        1.15973         277.186         45.8808 
        1.16584         275.508         45.3196 
        1.17197         273.854         44.7669 
        1.17811         271.217         44.2218 
        1.18424         270.093         43.6874 
        1.19038         268.728         43.1603 
        1.19652         265.926          42.642 
        1.20267          265.29         42.1323 
        1.20881         263.437         41.6311 
        1.21495           262.4         41.1388 
        1.22108         260.533         40.6546 
         1.2272         257.311         40.1793 
        1.23334         256.645         39.7106 
        1.23949         255.373         39.2482 
        1.24562         253.905         38.7946 
        1.25174         252.286         38.3487 
        1.25789         250.036         37.9086 
        1.26402         249.702         37.4761 
        1.27014         248.476         37.0515 
        1.27628         246.136         36.6322 
        1.28244         244.597         36.2187 
        1.28858         243.396          35.812 
        1.29471         241.944         35.4126 
        1.30084         241.128         35.0196 
        1.30697          238.41          34.632 
        1.31312         237.145         34.2497 
        1.31925         235.908         33.8744 
        1.32537          235.02         33.5052 
        1.33151         233.208         33.1401 
        1.33765         231.481         32.7807 
        1.34378         230.441         32.4273 
        1.34992          228.46         32.0789 
        1.35606          227.63         31.7349 
         1.3622         225.971         31.3965 
        1.36833         224.963         31.0639 
        1.37445         224.311         30.7363 
        1.38059         221.708         30.4125 
        1.38675         220.349         30.0925 
        1.39288         219.543         29.7784 
        1.39901         217.622         29.4689 
        1.40515         216.875         29.1632 
         1.4113         215.299         28.8619 
        1.41742         213.514          28.566 
        1.42355         213.526         28.2737 
         1.4297         211.799         27.9846 
        1.43585         210.595         27.6997 
        1.44198           208.9         27.4198 
        1.44809         208.192         27.1443 
        1.45423         206.878         26.8716 
        1.46036         205.634         26.6031 
        1.46649         204.408         26.3382 
        1.47263         203.466         26.0767 
        1.47877         202.028         25.8189 
        1.48491         200.461         25.5641 
        1.49104         198.814         25.3133 
        1.49718         198.406         25.0657 
        1.50333          196.55         24.8211 
        1.50947         195.844         24.5802 
         1.5156         194.757         24.3428 
        1.52172         193.637         24.1086 
        1.52787         192.397          23.877 
          1.534         191.827         23.6488 
        1.54013         190.264         23.4237 
        1.54627         189.399         23.2012 
        1.55241         188.375         22.9815 
        1.55855           187.3          22.765 
        1.56467         186.152         22.5519 
         1.5708         184.639          22.341 
        1.57695          183.97         22.1324 
        1.58308         182.686         21.9269 
        1.58922         181.654         21.7239 
        1.59535         180.292         21.5236 
         1.6015         179.705         21.3255 
        1.60764         178.336         21.1301 
        1.61376         177.069         20.9376 
        1.61989         176.179         20.7473 
        1.62604         175.222          20.559 
        1.63218         174.276         20.3731 
        1.63831         173.587           20.19 
        1.64444         172.013          20.009 
        1.65059         171.287         19.8299 
        1.65673          170.18         19.6531 
        1.66285         169.345          19.479 
        1.66898         168.365         19.3069 
        1.67512         167.286         19.1365 
        1.68127         166.507         18.9681 
         1.6874         165.432         18.8021 
        1.69353         164.751         18.6381 
        1.69967         163.404         18.4757 
        1.70581         162.977         18.3153 
        1.71193          161.71         18.1574 
        1.71806          160.59         18.0011 
        1.72421         159.864         17.8463 
        1.73035         158.792         17.6935 
        1.73649          157.76         17.5425 
        1.74262         157.194         17.3933 
        1.74876         156.402         17.2459 
        1.75489         155.755         17.1004 
        1.76101         154.354         16.9566 
        1.76715         153.457         16.8143 
        1.77329         152.426         16.6735 
        1.77943         151.529         16.5342 
        1.78557          150.92         16.3968 
        1.79171          150.17         16.2608 
        1.79785          149.02         16.1264 
        1.80399         148.296         15.9935 
        1.81012         147.609         15.8623 
        1.81625         146.454         15.7326 
        1.82239          145.86         15.6042 
        1.82853         144.968         15.4773 
        1.83466         143.736         15.3519 
        1.84078         143.463          15.228 
        1.84692         142.666         15.1053 
        1.85306         141.596         14.9838 
         1.8592         141.125         14.8639 
        1.86533         139.806         14.7453 
        1.87147         139.152         14.6278 
        1.87761         138.427         14.5116 
        1.88375         137.315         14.3968 
        1.88988         136.973         14.2834 
        1.89601         136.459         14.1711 
        1.90215         135.777         14.0599 
        1.90829         134.357           13.95 
        1.91442         133.713         13.8413 
        1.92056         133.044         13.7338 
         1.9267         132.328         13.6273 
        1.93284         131.352         13.5219 
        1.93897          130.86         13.4178 
        1.94509         129.974          13.315 
        1.95123         129.367          13.213 
        1.95737         128.766         13.1121 
        1.96349         127.881         13.0124 
        1.96964         127.135         12.9135 
        1.97578         126.374         12.8156 
        1.98192         125.951         12.7189 
        1.98805         125.189         12.6231 
        1.99419         124.032         12.5284 
        2.00033         123.724         12.4346 
        2.00647           123.2         12.3417 
         2.0126         122.242           12.25 
        2.01874         121.683         12.1591 
        2.02488         120.908          12.069 
        2.03101         120.489           11.98 
        2.03714         119.586         11.8919 
        2.04328         119.144         11.8047 
        2.04941         118.645         11.7184 
        2.05554         117.938          11.633 
        2.06167         117.053         11.5483 
        2.06781         116.441         11.4645 
        2.07396         115.806         11.3814 
        2.08009         115.085         11.2993 
        2.08622          114.53          11.218 
        2.09237         113.639         11.1374 
        2.09851         113.378         11.0576 
        2.10464         112.701         10.9787 
        2.11077         112.026         10.9007 
        2.11691         111.514         10.8232 
        2.12305         110.928         10.7465 
        2.12918         110.236         10.6707 
        2.13531         109.527         10.5957 
        2.14145         109.111         10.5212 
         2.1476         108.432         10.4473 
        2.15372         107.746         10.3745 
        2.15985         107.142         10.3023 
        2.16599         106.517         10.2306 
        2.17213         105.959         10.1597 
        2.17827         105.403         10.0894 
         2.1844         104.999         10.0199 
        2.19054         104.292         9.95102 
        2.19666         103.548         9.88287 
         2.2028         103.172          9.8153 
        2.20893         102.775         9.74832 
        2.21508         101.981          9.6819 
        2.22122         101.444         9.61607 
        2.22736         101.172         9.55098 
        2.23349         100.508         9.48652 
        2.23962         99.8722         9.42261 
        2.24577         99.3581         9.35923 
         2.2519         98.7213         9.29653 
        2.25802         98.3531          9.2345 
        2.26417         97.6202         9.17286 
        2.27031         97.0184         9.11173 
        2.27644         96.7204         9.05133 
        2.28257         96.2197         8.99148 
        2.28872         95.6816         8.93206 
        2.29486         95.3717         8.87319 
        2.30099         94.5758         8.81497 
        2.30712          94.254         8.75724 
        2.31326         93.7093         8.69993 
         2.3194          93.178         8.64317 
        2.32553         92.7344         8.58701 
        2.33166         92.2294         8.53137 
         2.3378         91.6626         8.47615 
        2.34394         91.1067          8.4214 
        2.35007         90.5831         8.36721 
        2.35619          90.144         8.31356 
        2.36233          89.735         8.26025 
        2.36848         89.1127         8.20731 
        2.37462         88.9649         8.15493 
        2.38075         88.2958         8.10306 
        2.38689         87.8736          8.0516 
        2.39303         87.4728          8.0006 
        2.39916         86.9885         7.95008 
        2.40529         86.6111         7.90001 
        2.41143         86.1036         7.85034 
        2.41757         85.4472         7.80106 
         2.4237         85.0724          7.7523 
        2.42983         84.5739         7.70396 
        2.43598         84.3161         7.65591 
        2.44211         83.9757         7.60834 
        2.44823         83.4157         7.56128 
        2.45437         83.0539         7.51449 
        2.46052         82.4947         7.46806 
        2.46665         81.9431          7.4221 
        2.47279         81.7281         7.37655 
        2.47892          81.343         7.33134 
        2.48507         80.9657         7.28648 
         2.4912         80.3121         7.24207 
