# k  (h/Mpc)    P(k)  (Mpc/h)^3    P_linear(k)  (Mpc/h)^3
     0.00783031         6184.75         6273.11 
       0.013688         8172.03         8148.22 
       0.019231         8557.12         8558.65 
      0.0249154         8032.37         8153.52 
      0.0312784         7184.19         7238.44 
      0.0375637         6258.63         6260.16 
      0.0433917         5423.33         5488.68 
      0.0492413         4886.06         4908.69 
      0.0555754         4389.73         4478.93 
      0.0619321         4190.83         4182.97 
       0.067871         3880.08         3953.36 
      0.0738098         3637.13         3712.02 
      0.0800417         3318.45          3416.9 
      0.0862327         3024.13         3086.49 
      0.0921407         2738.04         2764.17 
      0.0982031         2428.26         2460.21 
       0.104506         2224.63         2200.29 
       0.110769         2033.85         2009.28 
       0.116806          1893.5         1882.77 
       0.122832         1815.38         1796.41 
       0.129052         1714.55         1727.04 
       0.135211         1644.54         1657.48 
       0.141259         1579.81         1575.24 
       0.147318         1491.44          1475.8 
       0.153489         1369.86         1362.77 
       0.159709          1277.6         1248.24 
       0.165845         1203.92         1146.05 
       0.171974         1117.15         1062.29 
       0.178125         1057.89         998.906 
       0.184229         1015.46         953.895 
        0.19034         956.541         920.802 
       0.196428         944.341         892.627 
       0.202534         919.768         862.833 
       0.208729         877.493          827.03 
       0.214876         831.317         785.249 
       0.220989         802.827         739.691 
       0.227147         754.347         693.556 
        0.23329         719.379         651.133 
       0.239377          698.69         615.309 
       0.245482         652.537           586.5 
       0.251667         645.128         563.818 
       0.257832          624.14         545.759 
       0.263955         605.021         529.855 
       0.270079         585.633         513.719 
        0.27624         578.277         495.854 
       0.282372         554.531         476.043 
        0.28843         537.842         455.102 
       0.294538         512.682         433.802 
       0.300721         507.317         413.383 
        0.30691         483.445         395.134 
       0.313033         472.608         379.676 
       0.319153          456.18         366.709 
       0.325316          444.34         355.519 
        0.33145         431.558         345.448 
       0.337538         426.237         335.692 
       0.343633          412.79         325.614 
       0.349808         400.112         314.862 
       0.355968         394.771         303.699 
       0.362074          385.38         292.578 
       0.368217         375.036         281.751 
       0.374374         361.756         271.677 
       0.380519         356.553         262.588 
       0.386598         347.968         254.576 
       0.392688         344.525         247.378 
        0.39888         335.326          240.62 
       0.405048         328.439         234.185 
       0.411186         321.559         227.839 
       0.417313         315.698         221.419 
       0.423458         309.688         214.924 
       0.429607         302.723         208.432 
       0.435692         294.697         202.153 
       0.441815         292.659         196.131 
       0.447964         287.288         190.468 
       0.454126         276.248         185.195 
       0.460267         273.201         180.336 
       0.466387         269.951         175.797 
        0.47254          264.43         171.432 
       0.478662         262.692         167.204 
       0.484765          255.36         163.058 
       0.490885         251.852         158.934 
       0.497035         248.247         154.828 
       0.503198         242.281         150.806 
       0.509342         239.607         146.933 
       0.515458         236.505         143.243 
       0.521598         233.051         139.713 
       0.527764          229.39         136.355 
       0.533884          226.18         133.191 
           0.54         223.008          130.16 
       0.546137         221.669         127.212 
       0.552299         217.638          124.32 
       0.558452         214.384         121.497 
       0.564573         210.776         118.749 
       0.570708          207.54         116.053 
       0.576825         204.942         113.434 
       0.582926         202.078         110.903 
       0.589034         199.248         108.461 
       0.595184         197.306         106.103 
       0.601379         195.434         103.819 
       0.607522         191.174         101.634 
       0.613639         190.617         99.5226 
       0.619772         186.359         97.4627 
       0.625918         184.747         95.4519 
       0.632068         182.632         93.4912 
       0.638161         181.354         91.5973 
         0.6443         178.687         89.7363 
       0.650464         176.823         87.9168 
       0.656582         175.106         86.1605 
       0.662703          172.55         84.4547 
       0.668861         170.366         82.7916 
       0.675024         168.488         81.1798 
       0.681124         167.448         79.6328 
       0.687237         164.537         78.1258 
       0.693381          162.51          76.651 
       0.699536          161.24         75.2094 
       0.705665         161.526         73.8071 
       0.711789         157.643         72.4389 
       0.717957         157.095         71.0945 
        0.72409         154.991         69.7914 
       0.730186           152.5           68.53 
       0.736317          151.97         67.2953 
       0.742472         150.812         66.0891 
       0.748622         149.594         64.9156 
        0.75476         148.211         63.7745 
       0.760888         146.147         62.6633 
       0.767043         145.134         61.5742 
       0.773185         143.644         60.5128 
       0.779291         141.933         59.4817 
       0.785407         141.133         58.4727 
       0.791564         139.634         57.4805 
       0.797719         137.824         56.5117 
       0.803834         137.234         55.5717 
       0.809972         135.331         54.6501 
       0.816124         135.088          53.748 
       0.822261         133.613         52.8695 
       0.828378         132.382         52.0138 
       0.834502         131.775         51.1769 
       0.840667         130.108         50.3534 
       0.846816          128.99         49.5507 
       0.852925         127.837         48.7708 
       0.859047         126.418         48.0062 
       0.865192         125.964         47.2556 
       0.871341         124.708         46.5206 
       0.877463         123.491         45.8046 
       0.883569         122.579         45.1056 
       0.889708         121.839         44.4177 
       0.895864         120.751         43.7426 
       0.902008         119.861          43.083 
       0.908149         119.185         42.4376 
       0.914301         117.864         41.8045 
       0.920448         117.182         41.1851 
       0.926574         116.404         40.5806 
       0.932687         115.773         39.9897 
       0.938823         114.152         39.4086 
       0.944975         113.491         38.8378 
       0.951105         112.692         38.2805 
       0.957225         111.317         37.7353 
       0.963368         110.884          37.199 
       0.969511         110.376         36.6732 
       0.975621         109.866         36.1605 
       0.981748           108.9         35.6563 
       0.987916         107.873         35.1588 
        0.99406         107.333         34.6727 
        1.00019         106.289         34.1968 
        1.00632         105.818         33.7304 
        1.01246         104.855         33.2721 
        1.01859          103.59         32.8232 
        1.02471         103.956         32.3832 
        1.03085         102.821         31.9498 
        1.03698         101.992         31.5254 
        1.04314         101.066         31.1069 
        1.04929         100.579         30.6971 
        1.05541         99.8418         30.2964 
        1.06154         99.3646         29.9019 
        1.06769         98.8104         29.5139 
        1.07382         98.3871         29.1342 
        1.07993         97.7505         28.7621 
        1.08607         96.8904          28.395 
        1.09222         96.3753          28.034 
        1.09836         95.6661         27.6798 
        1.10449          95.089         27.3322 
        1.11063         94.4786         26.9902 
        1.11677         93.9181         26.6543 
         1.1229         93.1534         26.3247 
        1.12903         92.2074         26.0005 
        1.13518         92.4488         25.6815 
        1.14131         91.7111         25.3681 
        1.14745         90.7025         25.0601 
        1.15359         90.3895         24.7573 
        1.15973         89.9177         24.4593 
        1.16584         89.2569         24.1677 
        1.17197         88.6995         23.8805 
        1.17811         88.2243         23.5971 
        1.18424         87.4454         23.3191 
        1.19038         87.0708         23.0449 
        1.19652         86.7033         22.7752 
        1.20267         85.9805         22.5099 
        1.20881         85.5177         22.2489 
        1.21495         84.8718         21.9925 
        1.22108         84.3973         21.7402 
         1.2272         83.8137         21.4925 
        1.23334         83.4372         21.2482 
        1.23949         82.9886          21.007 
        1.24562         82.6738         20.7704 
        1.25174          82.129         20.5377 
        1.25789         81.6812          20.308 
        1.26402         81.1933         20.0822 
        1.27014         80.4414         19.8604 
        1.27628         80.2809         19.6413 
        1.28244         79.5301         19.4252 
        1.28858         79.1794         19.2126 
        1.29471         78.9027         19.0037 
        1.30084         78.3598         18.7981 
        1.30697         77.8063         18.5952 
        1.31312         77.4113         18.3951 
        1.31925         77.2046         18.1986 
        1.32537         76.7382         18.0052 
        1.33151         76.0477         17.8139 
        1.33765         75.7333         17.6256 
        1.34378         75.2801         17.4403 
        1.34992          74.861         17.2576 
        1.35606         74.4844         17.0772 
         1.3622         73.8532         16.8997 
        1.36833         73.7481         16.7251 
        1.37445         73.2815         16.5532 
        1.38059         72.7298         16.3831 
        1.38675         72.3865         16.2151 
        1.39288          71.947         16.0501 
        1.39901         71.7927         15.8874 
        1.40515         71.3872         15.7267 
         1.4113         70.9225         15.5683 
        1.41742          70.609         15.4127 
        1.42355          70.146          15.259 
         1.4297         69.7715         15.1069 
        1.43585          69.368         14.9569 
        1.44198         69.1222         14.8096 
        1.44809         68.6736         14.6646 
        1.45423         68.4164         14.5209 
        1.46036         68.0239         14.3795 
        1.46649         67.6301         14.2399 
        1.47263         67.2752         14.1021 
        1.47877         67.0675         13.9662 
        1.48491         66.7038         13.8318 
        1.49104         66.2445         13.6996 
        1.49718         65.8048         13.5689 
        1.50333          65.559         13.4398 
        1.50947         65.1408         13.3126 
         1.5156         64.8991         13.1873 
        1.52172          64.606         13.0636 
        1.52787         64.3992         12.9413 
          1.534         64.0241         12.8207 
        1.54013         63.6221         12.7017 
        1.54627         63.3989         12.5841 
        1.55241         62.9634         12.4679 
        1.55855         62.5575         12.3534 
        1.56467         62.1192         12.2406 
         1.5708         62.0637          12.129 
        1.57695         61.7511         12.0186 
        1.58308         61.4341         11.9098 
        1.58922         61.2707         11.8023 
        1.59535         60.9634         11.6962 
         1.6015         60.4401         11.5912 
        1.60764         60.3312         11.4876 
        1.61376         59.9475         11.3855 
        1.61989         59.4983         11.2847 
        1.62604         59.3939         11.1848 
        1.63218         59.1765         11.0862 
        1.63831          58.802          10.989 
        1.64444         58.5597          10.893 
        1.65059         58.0458         10.7979 
        1.65673         57.8748          10.704 
        1.66285         57.6361         10.6115 
        1.66898         57.2932         10.5201 
        1.67512         56.9812         10.4296 
        1.68127         56.6581         10.3401 
         1.6874           56.54         10.2519 
        1.69353         56.1509         10.1647 
        1.69967         55.9373         10.0784 
        1.70581         55.8205         9.99305 
        1.71193          55.432         9.90906 
        1.71806          55.001         9.82587 
        1.72421         54.8788         9.74347 
        1.73035         54.5179         9.66211 
        1.73649          54.187         9.58171 
        1.74262         54.0705         9.50229 
        1.74876         53.9226         9.42373 
        1.75489         53.4974         9.34622 
        1.76101         53.3414         9.26961 
        1.76715         53.0028         9.19376 
        1.77329         52.7493         9.11867 
        1.77943         52.5913          9.0444 
        1.78557         52.3691         8.97107 
        1.79171         52.0032         8.89854 
        1.79785         51.7877          8.8268 
        1.80399          51.549         8.75588 
        1.81012         51.3902         8.68584 
        1.81625         50.9256         8.61659 
        1.82239         50.7757         8.54801 
        1.82853         50.4001         8.48021 
        1.83466         50.3219         8.41321 
        1.84078         49.8976         8.34701 
        1.84692         49.7567         8.28143 
        1.85306         49.5186         8.21647 
         1.8592         49.2978         8.15231 
        1.86533         49.0295         8.08888 
        1.87147         48.8485         8.02606 
        1.87761         48.6798         7.96388 
        1.88375         48.4313         7.90243 
        1.88988         48.3655         7.84171 
        1.89601         47.9462         7.78159 
        1.90215         47.7638         7.72206 
        1.90829         47.6279         7.66319 
        1.91442         47.3435         7.60493 
        1.92056         47.1442         7.54733 
         1.9267         46.7809         7.49027 
        1.93284         46.5646         7.43377 
        1.93897         46.4596         7.37796 
        1.94509         46.1597         7.32285 
        1.95123         46.0226         7.26817 
        1.95737          45.776         7.21401 
        1.96349         45.5441         7.16054 
        1.96964         45.3339         7.10747 
        1.97578         45.1487         7.05491 
        1.98192         44.9275         7.00299 
        1.98805         44.7673         6.95159 
        1.99419         44.4365         6.90071 
        2.00033         44.2426         6.85031 
        2.00647         44.1049         6.80044 
         2.0126         43.8816         6.75114 
        2.01874         43.6992         6.70227 
        2.02488         43.5529         6.65383 
        2.03101         43.2572         6.60597 
        2.03714         43.0465         6.55863 
        2.04328         42.8319          6.5117 
        2.04941         42.6249         6.46527 
        2.05554         42.3965         6.41933 
        2.06167         42.3162         6.37377 
        2.06781         42.0795         6.32866 
        2.07396           41.85         6.28392 
        2.08009         41.6962         6.23969 
        2.08622         41.4625         6.19594 
        2.09237         41.2859         6.15252 
        2.09851         41.0367         6.10952 
        2.10464         40.9279           6.067 
        2.11077         40.7329         6.02494 
        2.11691         40.5571         5.98319 
        2.12305         40.2969         5.94183 
        2.12918         40.2205         5.90097 
        2.13531         39.9966         5.86049 
        2.14145         39.8579          5.8203 
         2.1476         39.5954         5.78043 
        2.15372         39.3983         5.74115 
        2.15985         39.3033         5.70219 
        2.16599         39.1831         5.66348 
        2.17213         39.0975         5.62518 
        2.17827         38.6921         5.58725 
         2.1844         38.5399         5.54969 
        2.19054         38.3601         5.51248 
        2.19666          38.216         5.47566 
         2.2028         38.0843         5.43914 
        2.20893         37.9258         5.40294 
        2.21508         37.7257         5.36703 
        2.22122         37.5172         5.33144 
        2.22736         37.3649         5.29625 
        2.23349           37.23         5.26138 
        2.23962         37.0128         5.22682 
        2.24577         36.8126         5.19253 
         2.2519         36.6606          5.1586 
        2.25802         36.5833         5.12503 
        2.26417         36.3715         5.09167 
        2.27031         36.2488         5.05857 
        2.27644         36.0096         5.02587 
        2.28257         35.8968         4.99346 
        2.28872         35.7036         4.96127 
        2.29486         35.5821         4.92938 
        2.30099         35.4633         4.89783 
        2.30712         35.2625         4.86655 
        2.31326         35.1398         4.83549 
         2.3194         34.9759         4.80472 
        2.32553         34.7817         4.77426 
        2.33166          34.614         4.74409 
         2.3378         34.5183         4.71414 
        2.34394         34.2849         4.68444 
        2.35007         34.1566         4.65504 
        2.35619         34.1042         4.62593 
        2.36233         33.9276           4.597 
        2.36848         33.6955         4.56825 
        2.37462         33.6202         4.53982 
        2.38075         33.4063         4.51166 
        2.38689         33.3144         4.48371 
        2.39303         33.1639         4.45601 
        2.39916         32.9618         4.42857 
        2.40529         32.7774         4.40136 
        2.41143         32.7078         4.37437 
        2.41757         32.5496         4.34759 
         2.4237         32.4144         4.32108 
        2.42983         32.2972          4.2948 
        2.43598         32.1151         4.26867 
        2.44211         32.0107          4.2428 
        2.44823         31.8301         4.21721 
        2.45437         31.7475         4.19175 
        2.46052         31.5708         4.16649 
        2.46665         31.4441         4.14148 
        2.47279         31.3269         4.11668 
        2.47892         31.1254         4.09207 
        2.48507         31.0084         4.06764 
         2.4912         30.8875         4.04346 
