# k  (h/Mpc)    Pcb(k)  (Mpc/h)^3    Pcb_linear(k)  (Mpc/h)^3
     0.00783031           15733         15961.9 
       0.013688         18945.8         18774.9 
       0.019231         18197.3         18141.2 
      0.0249154         15660.6         15958.9 
      0.0312784         12965.9         13067.4 
      0.0375637         10639.2         10590.4 
      0.0433917         8816.62         8912.09 
      0.0492413         7799.28         7801.71 
      0.0555754         6902.86         7065.77 
      0.0619321         6628.63          6575.5 
       0.067871         6027.02         6153.36 
      0.0738098         5547.33         5658.35 
      0.0800417          4904.6         5040.74 
      0.0862327         4338.27         4384.53 
      0.0921407         3850.25         3798.99 
      0.0982031          3345.6         3304.39 
       0.104506         3077.79         2933.51 
       0.110769         2828.37         2698.54 
       0.116806         2670.73         2561.47 
       0.122832         2563.98         2466.04 
       0.129052         2398.59         2366.08 
       0.135211         2274.69         2236.36 
       0.141259         2158.44         2073.01 
       0.147318          2003.8         1886.97 
       0.153489         1809.05          1698.2 
       0.159709         1682.74         1531.51 
       0.165845         1592.73         1403.36 
       0.171974         1498.51         1313.05 
       0.178125          1427.5          1252.8 
       0.184229         1369.67         1210.49 
        0.19034         1294.66         1172.18 
       0.196428         1269.15          1127.7 
       0.202534         1222.03         1072.08 
       0.208729         1156.25         1005.78 
       0.214876         1096.39         935.998 
       0.220989         1050.08         869.723 
       0.227147         999.477         811.779 
        0.23329         954.874         765.461 
       0.239377         933.945         730.461 
       0.245482         872.501           703.5 
       0.251667         867.346         680.487 
       0.257832          833.63         658.035 
       0.263955         805.932         633.673 
       0.270079         774.419         606.383 
        0.27624         764.039         576.844 
       0.282372         732.169         547.143 
        0.28843         717.452         519.424 
       0.294538         679.791         494.559 
       0.300721         674.969         473.111 
        0.30691         645.855         455.144 
       0.313033         632.866          439.85 
       0.319153         615.698          425.91 
       0.325316         597.522         412.135 
        0.33145         580.836          398.07 
       0.337538         570.963         383.549 
       0.343633         554.437         368.754 
       0.349808         534.253         353.993 
       0.355968         529.681          340.03 
       0.362074          521.94         327.344 
       0.368217         506.443          315.84 
       0.374374          484.78         305.503 
       0.380519         483.113         296.067 
       0.386598         469.878          287.28 
       0.392688         467.097         278.737 
        0.39888         453.375         270.105 
       0.405048         444.614         261.543 
       0.411186         437.401         253.111 
       0.417313         428.555         244.911 
       0.423458         419.725         237.064 
       0.429607         413.322         229.674 
       0.435692         403.035         222.839 
       0.441815         399.152         216.427 
       0.447964         390.635         210.362 
       0.454126         382.555         204.555 
       0.460267         375.046         198.961 
       0.466387         370.358         193.526 
        0.47254         364.226         188.167 
       0.478662         362.617         182.961 
       0.484765         349.644         177.933 
       0.490885          346.51         173.085 
       0.497035         339.939          168.42 
       0.503198          335.55         163.968 
       0.509342         333.098         159.744 
       0.515458         329.012         155.724 
       0.521598         320.672         151.838 
       0.527764         316.258         148.061 
       0.533884         313.564         144.424 
           0.54         309.074         140.893 
       0.546137         307.636         137.447 
       0.552299         301.377         134.088 
       0.558452         299.681         130.847 
       0.564573         295.383         127.739 
       0.570708         289.716         124.742 
       0.576825         284.435         121.862 
       0.582926         282.286         119.089 
       0.589034         279.631         116.402 
       0.595184         277.219         113.782 
       0.601379         272.745         111.223 
       0.607522         268.979          108.76 
       0.613639         267.465         106.376 
       0.619772          261.99         104.054 
       0.625918          260.83         101.795 
       0.632068         256.496         99.6036 
       0.638161         255.406         97.5002 
         0.6443          251.34         95.4476 
       0.650464         248.849         93.4504 
       0.656582          246.29         91.5265 
       0.662703         245.854         89.6565 
       0.668861         241.561         87.8271 
       0.675024           238.6         86.0461 
       0.681124         237.062         84.3317 
       0.687237         234.517         82.6606 
       0.693381         230.871         81.0274 
       0.699536         228.812         79.4365 
       0.705665         226.884         77.8963 
       0.711789          225.22         76.3993 
       0.717957         224.096          74.932 
        0.72409         221.585          73.512 
       0.730186         218.915         72.1377 
       0.736317         216.488         70.7913 
       0.742472         215.104         69.4744 
       0.748622         213.388         68.1925 
        0.75476         211.311          66.946 
       0.760888          208.93         65.7329 
       0.767043         208.745         64.5454 
       0.773185         206.519         63.3901 
       0.779291          202.77         62.2702 
       0.785407         202.401          61.176 
       0.791564         200.376         60.1017 
       0.797719         197.651         59.0539 
       0.803834         196.446         58.0381 
       0.809972          195.69         57.0427 
       0.816124         194.845         56.0687 
       0.822261         193.007         55.1202 
       0.828378         190.975         54.1967 
       0.834502         190.059         53.2938 
       0.840667         187.852         52.4057 
       0.846816         186.409         51.5406 
       0.852925         185.612         50.7006 
       0.859047         183.962         49.8778 
       0.865192         181.734         49.0707 
       0.871341           180.4         48.2811 
       0.877463         179.292         47.5126 
       0.883569           178.8         46.7629 
       0.889708         176.658         46.0258 
       0.895864         174.978         45.3027 
       0.902008         173.952         44.5969 
       0.908149         173.407         43.9066 
       0.914301         171.104         43.2299 
       0.920448         170.148         42.5683 
       0.926574         168.912         41.9229 
       0.932687          168.89         41.2923 
       0.938823         166.662         40.6726 
       0.944975         165.591         40.0642 
       0.951105         164.685         39.4706 
       0.957225         163.459         38.8901 
       0.963368         161.219         38.3194 
       0.969511         160.787         37.7603 
       0.975621         159.386         37.2154 
       0.981748          159.29           36.68 
       0.987916         157.685         36.1518 
        0.99406         156.325         35.6362 
        1.00019         156.217         35.1316 
        1.00632         154.635         34.6374 
        1.01246         153.673         34.1521 
        1.01859         153.405         33.6769 
        1.02471         151.253         33.2115 
        1.03085         150.079         32.7533 
        1.03698         149.521         32.3048 
        1.04314         148.017         31.8628 
        1.04929         147.451         31.4302 
        1.05541         147.005         31.0075 
        1.06154         145.704         30.5916 
        1.06769         145.482         30.1827 
        1.07382         144.085         29.7827 
        1.07993         143.092         29.3909 
        1.08607         142.416         29.0046 
        1.09222          141.76         28.6249 
        1.09836         140.625         28.2524 
        1.10449         139.162         27.8871 
        1.11063         138.284         27.5279 
        1.11677         137.807         27.1752 
         1.1229         136.801         26.8293 
        1.12903         136.298         26.4891 
        1.13518         135.661         26.1546 
        1.14131         134.284         25.8261 
        1.14745         134.083         25.5035 
        1.15359          133.03         25.1863 
        1.15973         132.272         24.8745 
        1.16584         131.131         24.5693 
        1.17197         130.613         24.2689 
        1.17811         129.794         23.9726 
        1.18424         129.299         23.6821 
        1.19038         129.003         23.3956 
        1.19652         127.944         23.1141 
        1.20267         127.105         22.8371 
        1.20881          126.28         22.5648 
        1.21495         125.432         22.2975 
        1.22108         124.829         22.0345 
         1.2272         123.815         21.7764 
        1.23334         123.447         21.5218 
        1.23949         122.687         21.2708 
        1.24562         121.901         21.0245 
        1.25174         121.308         20.7825 
        1.25789         120.556         20.5436 
        1.26402         119.357         20.3089 
        1.27014         118.836         20.0784 
        1.27628         118.564         19.8509 
        1.28244         118.184         19.6265 
        1.28858         117.396         19.4059 
        1.29471         116.272         19.1892 
        1.30084         116.258          18.976 
        1.30697             115         18.7657 
        1.31312         114.577         18.5584 
        1.31925         113.791         18.3548 
        1.32537         113.404         18.1546 
        1.33151         112.444         17.9566 
        1.33765         111.939         17.7617 
        1.34378         111.493         17.5701 
        1.34992         111.117         17.3812 
        1.35606         110.603         17.1947 
         1.3622          109.54         17.0113 
        1.36833         108.969          16.831 
        1.37445         108.539         16.6534 
        1.38059         107.724         16.4778 
        1.38675         107.148         16.3044 
        1.39288         106.953         16.1342 
        1.39901         106.438         15.9664 
        1.40515         105.535         15.8007 
         1.4113         105.103         15.6375 
        1.41742         104.479         15.4771 
        1.42355         103.882         15.3187 
         1.4297          103.52         15.1621 
        1.43585         102.734         15.0077 
        1.44198         102.274         14.8561 
        1.44809         101.861         14.7069 
        1.45423         101.415         14.5592 
        1.46036         100.852         14.4138 
        1.46649         100.118         14.2703 
        1.47263         99.4689         14.1287 
        1.47877         99.1753         13.9891 
        1.48491           98.36         13.8511 
        1.49104         98.2478         13.7154 
        1.49718         97.6032         13.5813 
        1.50333         97.1082         13.4489 
        1.50947         96.6118         13.3184 
         1.5156         96.1386           13.19 
        1.52172         95.6274         13.0632 
        1.52787         95.0615         12.9378 
          1.534         94.5454         12.8143 
        1.54013         94.1059         12.6925 
        1.54627         93.7489          12.572 
        1.55241         93.0706         12.4532 
        1.55855         92.5849          12.336 
        1.56467         92.4249         12.2207 
         1.5708         91.6297         12.1065 
        1.57695          91.515         11.9936 
        1.58308         90.8586         11.8825 
        1.58922         90.6055         11.7726 
        1.59535         90.0934         11.6642 
         1.6015         89.5796          11.557 
        1.60764         89.1137         11.4513 
        1.61376         88.8266         11.3471 
        1.61989         88.3067         11.2441 
        1.62604         87.8956         11.1423 
        1.63218         87.6684         11.0417 
        1.63831         86.7306         10.9426 
        1.64444         86.4744         10.8447 
        1.65059         86.0696         10.7478 
        1.65673         85.4567         10.6521 
        1.66285           85.19         10.5579 
        1.66898         84.9145         10.4648 
        1.67512         84.2276         10.3727 
        1.68127         84.0064         10.2816 
         1.6874          83.379         10.1918 
        1.69353          83.025         10.1031 
        1.69967         82.7483         10.0153 
        1.70581         82.3335         9.92852 
        1.71193         81.9033         9.84313 
        1.71806         81.5641         9.75858 
        1.72421         81.0047         9.67485 
        1.73035         80.7232         9.59221 
        1.73649         80.3729         9.51055 
        1.74262         79.7966         9.42992 
        1.74876         79.5715         9.35017 
        1.75489         79.0033         9.27151 
        1.76101         78.6955         9.19378 
        1.76715         78.1378         9.11684 
        1.77329         77.9637         9.04069 
        1.77943         77.4078         8.96538 
        1.78557          77.321         8.89105 
        1.79171         76.5466         8.81755 
        1.79785         76.2376         8.74486 
        1.80399         75.9704         8.67302 
        1.81012         75.7343         8.60208 
        1.81625         75.3189         8.53197 
        1.82239         74.9556         8.46254 
        1.82853         74.6632         8.39392 
        1.83466         74.2541         8.32613 
        1.84078         73.8251         8.25916 
        1.84692         73.5371         8.19283 
        1.85306         73.1368         8.12714 
         1.8592         72.9008         8.06227 
        1.86533         72.4253         7.99815 
        1.87147         71.9626         7.93466 
        1.87761         71.7915         7.87183 
        1.88375         71.4387         7.80976 
        1.88988         71.0293         7.74843 
        1.89601         70.7001         7.68772 
        1.90215         70.2504         7.62762 
        1.90829         69.9624         7.56819 
        1.91442          69.685         7.50939 
        1.92056         69.2789         7.45127 
         1.9267          69.022         7.39371 
        1.93284         68.6315         7.33673 
        1.93897         68.3142         7.28045 
        1.94509         68.1172         7.22489 
        1.95123         67.6834         7.16977 
        1.95737         67.3147         7.11519 
        1.96349         66.9609         7.06132 
        1.96964         66.6673         7.00786 
        1.97578         66.3197         6.95492 
        1.98192         66.2847         6.90264 
        1.98805         65.6438          6.8509 
        1.99419         65.4366         6.79968 
        2.00033          65.248         6.74897 
        2.00647         64.8121         6.69878 
         2.0126          64.493          6.6492 
        2.01874         64.0488         6.60004 
        2.02488         63.9231         6.55134 
        2.03101         63.5723         6.50322 
        2.03714         63.1672         6.45563 
        2.04328         62.9478         6.40847 
        2.04941         62.6942         6.36182 
        2.05554         62.4881         6.31566 
        2.06167         62.1833         6.26991 
        2.06781         61.7103          6.2246 
        2.07396         61.4431         6.17968 
        2.08009         61.2566         6.13528 
        2.08622         60.9122         6.09137 
        2.09237         60.6717          6.0478 
        2.09851         60.4765         6.00465 
        2.10464          60.067           5.962 
        2.11077          59.801         5.91982 
        2.11691         59.4826         5.87795 
        2.12305         59.2446         5.83648 
        2.12918         58.9983         5.79552 
        2.13531         58.5917         5.75494 
        2.14145         58.3648         5.71466 
         2.1476         58.0462         5.67472 
        2.15372         57.8741         5.63537 
        2.15985         57.5671         5.59635 
        2.16599         57.2874         5.55758 
        2.17213         57.0888         5.51923 
        2.17827         56.7485         5.48125 
         2.1844          56.466         5.44366 
        2.19054         56.2537         5.40641 
        2.19666         55.9718         5.36957 
         2.2028         55.8674         5.33303 
        2.20893         55.4814         5.29682 
        2.21508         55.2694         5.26091 
        2.22122         55.0108         5.22532 
        2.22736         54.7536         5.19013 
        2.23349         54.4803         5.15527 
        2.23962         54.1527         5.12072 
        2.24577         53.8614         5.08646 
         2.2519         53.7091         5.05256 
        2.25802         53.5083         5.01902 
        2.26417         53.1398          4.9857 
        2.27031         52.9243         4.95264 
        2.27644         52.7254         4.91999 
        2.28257         52.4782         4.88763 
        2.28872         52.1519          4.8555 
        2.29486         51.9168         4.82367 
        2.30099         51.6917         4.79219 
        2.30712         51.5301         4.76097 
        2.31326          51.214         4.72998 
         2.3194         50.9587         4.69929 
        2.32553         50.7487         4.66892 
        2.33166          50.405         4.63884 
         2.3378         50.2192         4.60898 
        2.34394         49.9945         4.57937 
        2.35007         49.8096         4.55007 
        2.35619         49.5827         4.52105 
        2.36233          49.317         4.49223 
        2.36848         49.1408         4.46359 
        2.37462         48.8499         4.43527 
        2.38075         48.7303         4.40722 
        2.38689         48.4865         4.37939 
        2.39303         48.2193         4.35181 
        2.39916         48.0034         4.32449 
        2.40529         47.8467         4.29742 
        2.41143          47.631         4.27055 
        2.41757         47.3698          4.2439 
         2.4237         47.1612         4.21753 
        2.42983         46.9176         4.19139 
        2.43598         46.7087          4.1654 
        2.44211         46.5027         4.13967 
        2.44823         46.3209         4.11422 
        2.45437         46.0673         4.08892 
        2.46052          45.882          4.0638 
        2.46665         45.7058         4.03894 
        2.47279         45.4147          4.0143 
        2.47892         45.2814         3.98985 
        2.48507         45.0097         3.96558 
         2.4912         44.8887         3.94156 
