# k  (h/Mpc)    P(k)  (Mpc/h)^3    P_linear(k)  (Mpc/h)^3
     0.00783031          87.761         88.4578 
       0.013688         116.357         116.788 
       0.019231         125.563         125.672 
      0.0249154          123.17         123.531 
      0.0312784         114.044           114.1 
      0.0375637         102.692         102.553 
      0.0433917         92.6507         92.6073 
      0.0492413         84.5868         84.4603 
      0.0555754         77.7729          77.774 
      0.0619321         72.8268          72.656 
       0.067871          68.503         68.5222 
      0.0738098         64.3277         64.3776 
      0.0800417         59.5613         59.6646 
      0.0862327         54.6045         54.6356 
      0.0921407         49.8042         49.7973 
      0.0982031         45.1518         45.1698 
       0.104506         41.1351         41.0492 
       0.110769         37.8755         37.8032 
       0.116806         35.4132          35.429 
       0.122832         33.6507         33.6154 
       0.129052         32.0376         32.0671 
       0.135211         30.5535         30.6066 
       0.141259         29.0625         29.0746 
       0.147318         27.4182         27.3858 
       0.153489          25.555         25.5548 
       0.159709         23.7217         23.7153 
       0.165845         22.1172         22.0369 
       0.171974         20.6014         20.5912 
       0.178125         19.4299         19.4092 
       0.184229         18.5248         18.4806 
        0.19034          17.715         17.7303 
       0.196428         17.0904         17.0775 
       0.202534         16.4976         16.4392 
       0.208729         15.7769         15.7544 
       0.214876          15.011         15.0199 
       0.220989          14.309         14.2519 
       0.227147         13.4753         13.4789 
        0.23329          12.753         12.7519 
       0.239377         12.1205         12.1085 
       0.245482         11.5548         11.5551 
       0.251667         11.1181         11.0838 
       0.257832         10.7011         10.6836 
       0.263955         10.3505         10.3272 
       0.270079         10.0101          9.9843 
        0.27624         9.68458         9.63386 
       0.282372         9.31778         9.27091 
        0.28843         8.92692         8.90194 
       0.294538         8.56089         8.53017 
       0.300721         8.22171          8.1684 
        0.30691         7.86293         7.83317 
       0.313033          7.5712         7.53487 
       0.319153         7.27157          7.2704 
       0.325316         7.08378         7.03257 
        0.33145         6.85943         6.81589 
       0.337538         6.64981         6.61134 
       0.343633         6.43974         6.40969 
       0.349808         6.24425         6.20477 
       0.355968         6.04016         5.99896 
       0.362074         5.83426         5.79665 
       0.368217         5.63906         5.59863 
       0.374374         5.43492         5.41015 
       0.380519         5.27524          5.2347 
       0.386598         5.12056          5.0744 
       0.392688         4.97835         4.92628 
        0.39888         4.83174         4.78559 
       0.405048         4.70063         4.65261 
       0.411186         4.57635         4.52456 
       0.417313         4.43985         4.39885 
       0.423458         4.32464         4.27454 
       0.429607         4.19292         4.15207 
       0.435692         4.07448         4.03378 
       0.441815         3.96283         3.91907 
       0.447964         3.86552         3.80927 
       0.454126          3.7476           3.705 
       0.460267         3.64753         3.60695 
       0.466387          3.5517         3.51441 
        0.47254         3.46658         3.42546 
       0.478662         3.38446         3.34014 
       0.484765         3.29724         3.25757 
       0.490885         3.21724         3.17669 
       0.497035         3.15129         3.09711 
       0.503198         3.06682         3.01944 
       0.509342         2.99569         2.94437 
       0.515458         2.91776         2.87225 
       0.521598         2.84983          2.8026 
       0.527764         2.77688         2.73557 
       0.533884         2.72214         2.67185 
           0.54         2.65825         2.61062 
       0.546137         2.60238         2.55125 
       0.552299         2.54263         2.49344 
       0.558452         2.48027         2.43735 
       0.564573         2.43015         2.38305 
       0.570708         2.37776         2.33001 
       0.576825         2.32275         2.27854 
       0.582926         2.27838         2.22871 
       0.589034         2.21849         2.18039 
       0.595184         2.17445         2.13339 
       0.601379         2.12933         2.08763 
       0.607522          2.0898         2.04372 
       0.613639         2.05339         2.00134 
       0.619772         2.00311         1.96008 
       0.625918         1.96543         1.91992 
       0.632068            1.93         1.88083 
       0.638161         1.88855         1.84313 
         0.6443         1.85072         1.80612 
       0.650464          1.8108         1.76994 
       0.656582         1.77952           1.735 
       0.662703         1.74623         1.70102 
       0.668861         1.71714         1.66781 
       0.675024         1.68044         1.63554 
       0.681124         1.64509          1.6045 
       0.687237         1.62026         1.57424 
       0.693381         1.59133         1.54463 
       0.699536         1.55401         1.51572 
       0.705665         1.52813         1.48765 
       0.711789         1.50361          1.4603 
       0.717957         1.47398         1.43345 
        0.72409         1.44949         1.40742 
       0.730186         1.42272         1.38222 
       0.736317         1.40288         1.35751 
       0.742472         1.37719         1.33333 
       0.748622         1.35177         1.30977 
        0.75476         1.32571         1.28685 
       0.760888         1.30277         1.26452 
       0.767043         1.28786         1.24263 
       0.773185         1.26202         1.22131 
       0.779291         1.24125         1.20061 
       0.785407         1.22169         1.18036 
       0.791564         1.20184         1.16046 
       0.797719         1.18401         1.14103 
       0.803834         1.16498         1.12217 
       0.809972         1.14548         1.10368 
       0.816124         1.12618         1.08557 
       0.822261         1.10682         1.06793 
       0.828378         1.09201         1.05073 
       0.834502         1.07655          1.0339 
       0.840667         1.05601         1.01734 
       0.846816         1.04015         1.00119 
       0.852925         1.02783        0.985496 
       0.859047          1.0119        0.970108 
       0.865192        0.995056           0.955 
       0.871341        0.979471        0.940206 
       0.877463        0.968675        0.925796 
       0.883569        0.951609        0.911727 
       0.889708        0.937388         0.89788 
       0.895864        0.923908        0.884289 
       0.902008        0.909113         0.87101 
       0.908149        0.895961        0.858014 
       0.914301         0.88006        0.845266 
       0.920448         0.86918        0.832791 
       0.926574        0.856359        0.820614 
       0.932687        0.844118        0.808709 
       0.938823        0.835633           0.797 
       0.944975        0.822714        0.785498 
       0.951105        0.811994        0.774266 
       0.957225        0.802476        0.763276 
       0.963368        0.790492        0.752463 
       0.969511        0.778038        0.741862 
       0.975621        0.766775        0.731523 
       0.981748        0.759351        0.721357 
       0.987916        0.748419        0.711322 
        0.99406         0.73766        0.701517 
        1.00019        0.729738        0.691918 
        1.00632        0.717495        0.682509 
        1.01246        0.708069        0.673263 
        1.01859        0.700307        0.664204 
        1.02471        0.690499        0.655324 
        1.03085        0.683869        0.646578 
        1.03698        0.673259        0.638011 
        1.04314        0.665304        0.629563 
        1.04929        0.655819         0.62129 
        1.05541        0.648931          0.6132 
        1.06154        0.639739        0.605235 
        1.06769        0.631006        0.597401 
        1.07382        0.624175        0.589733 
        1.07993        0.615201        0.582217 
        1.08607        0.610232        0.574803 
        1.09222        0.601146        0.567511 
        1.09836        0.595993        0.560355 
        1.10449        0.588247        0.553332 
        1.11063        0.579757        0.546422 
        1.11677        0.571969        0.539634 
         1.1229        0.566454        0.532974 
        1.12903        0.558749        0.526421 
        1.13518        0.553406        0.519973 
        1.14131        0.545945        0.513638 
        1.14745         0.53757        0.507413 
        1.15359        0.533368        0.501291 
        1.15973        0.525612        0.495268 
        1.16584         0.52182        0.489372 
        1.17197        0.515185        0.483564 
        1.17811        0.509988        0.477833 
        1.18424        0.505372        0.472213 
        1.19038        0.498216        0.466667 
        1.19652         0.49119        0.461213 
        1.20267        0.487785        0.455847 
        1.20881        0.481588        0.450568 
        1.21495        0.477458        0.445382 
        1.22108        0.471787        0.440278 
         1.2272        0.467128        0.435268 
        1.23334        0.461374        0.430324 
        1.23949        0.456325        0.425445 
        1.24562        0.451532        0.420657 
        1.25174        0.446993         0.41595 
        1.25789        0.442811        0.411301 
        1.26402         0.43658        0.406732 
        1.27014        0.432542        0.402243 
        1.27628        0.428707         0.39781 
        1.28244        0.422519        0.393435 
        1.28858        0.418996        0.389132 
        1.29471         0.41588        0.384903 
        1.30084        0.410422        0.380742 
        1.30697        0.406349        0.376636 
        1.31312        0.400808        0.372585 
        1.31925        0.397443        0.368607 
        1.32537        0.394024        0.364691 
        1.33151        0.390434        0.360819 
        1.33765        0.386386        0.357005 
        1.34378        0.381539        0.353254 
        1.34992        0.378337        0.349555 
        1.35606        0.374471        0.345902 
         1.3622        0.370809        0.342307 
        1.36833        0.366978        0.338772 
        1.37445        0.362377        0.335289 
        1.38059        0.359231        0.331845 
        1.38675        0.357554        0.328442 
        1.39288         0.35326        0.325099 
        1.39901        0.349878        0.321806 
        1.40515        0.346962         0.31855 
         1.4113        0.342642        0.315342 
        1.41742        0.339482         0.31219 
        1.42355        0.337216        0.309075 
         1.4297        0.333216        0.305994 
        1.43585        0.330553        0.302956 
        1.44198        0.327979        0.299971 
        1.44809        0.324119        0.297033 
        1.45423        0.321534        0.294123 
        1.46036        0.318163        0.291257 
        1.46649        0.316129        0.288429 
        1.47263        0.312676        0.285636 
        1.47877        0.309175        0.282882 
        1.48491        0.307041         0.28016 
        1.49104        0.303398         0.27748 
        1.49718         0.30097        0.274833 
        1.50333        0.299073        0.272216 
        1.50947        0.295848        0.269639 
         1.5156        0.293043        0.267099 
        1.52172         0.29072        0.264592 
        1.52787        0.288118        0.262113 
          1.534        0.285148        0.259669 
        1.54013        0.282569        0.257258 
        1.54627        0.280706        0.254874 
        1.55241        0.277742        0.252519 
        1.55855        0.274917        0.250198 
        1.56467        0.273834        0.247913 
         1.5708        0.270913         0.24565 
        1.57695        0.268591        0.243412 
        1.58308        0.266155        0.241207 
        1.58922        0.264109        0.239027 
        1.59535        0.261806        0.236876 
         1.6015        0.259286        0.234749 
        1.60764        0.257432        0.232648 
        1.61376        0.254723        0.230579 
        1.61989        0.252971        0.228534 
        1.62604        0.251168        0.226509 
        1.63218        0.249009         0.22451 
        1.63831        0.246961         0.22254 
        1.64444         0.24493        0.220593 
        1.65059        0.242943        0.218665 
        1.65673        0.240995        0.216762 
        1.66285        0.239395        0.214887 
        1.66898        0.237221        0.213034 
        1.67512        0.234918        0.211199 
        1.68127         0.23294        0.209384 
         1.6874        0.231675        0.207594 
        1.69353        0.229178        0.205827 
        1.69967        0.228229        0.204076 
        1.70581        0.225517        0.202346 
        1.71193        0.224019        0.200643 
        1.71806        0.221877        0.198956 
        1.72421        0.220924        0.197286 
        1.73035        0.218744        0.195636 
        1.73649        0.217404        0.194006 
        1.74262        0.215554        0.192395 
        1.74876        0.213794        0.190802 
        1.75489        0.212459         0.18923 
        1.76101        0.210234        0.187677 
        1.76715        0.208779        0.186139 
        1.77329        0.206898        0.184616 
        1.77943        0.205586         0.18311 
        1.78557        0.204398        0.181623 
        1.79171         0.20274        0.180152 
        1.79785        0.201167        0.178698 
        1.80399        0.199599        0.177259 
        1.81012        0.198281        0.175839 
        1.81625        0.196608        0.174435 
        1.82239        0.195178        0.173044 
        1.82853        0.193533        0.171669 
        1.83466        0.192432         0.17031 
        1.84078        0.190948        0.168968 
        1.84692        0.189382        0.167637 
        1.85306        0.188289         0.16632 
         1.8592         0.18656        0.165019 
        1.86533        0.185495        0.163732 
        1.87147        0.184157        0.162458 
        1.87761        0.183102        0.161197 
        1.88375        0.181399        0.159951 
        1.88988        0.180127        0.158719 
        1.89601        0.178709          0.1575 
        1.90215        0.177644        0.156293 
        1.90829        0.176156        0.155099 
        1.91442        0.175312        0.153917 
        1.92056        0.173832        0.152749 
         1.9267        0.172474        0.151592 
        1.93284        0.171375        0.150446 
        1.93897        0.170117        0.149314 
        1.94509        0.169207        0.148196 
        1.95123        0.167857        0.147087 
        1.95737        0.166859        0.145988 
        1.96349        0.165562        0.144904 
        1.96964        0.164359        0.143827 
        1.97578        0.163264        0.142761 
        1.98192        0.162411        0.141708 
        1.98805        0.161289        0.140666 
        1.99419        0.159864        0.139634 
        2.00033        0.158814        0.138612 
        2.00647        0.158126          0.1376 
         2.0126        0.156682          0.1366 
        2.01874        0.155977        0.135609 
        2.02488        0.154855        0.134627 
        2.03101        0.153845        0.133656 
        2.03714        0.152619        0.132696 
        2.04328        0.151855        0.131744 
        2.04941        0.150573        0.130802 
        2.05554        0.149856        0.129871 
        2.06167        0.149133        0.128947 
        2.06781         0.14773        0.128032 
        2.07396        0.146844        0.127124 
        2.08009        0.145862        0.126227 
        2.08622        0.145089         0.12534 
        2.09237        0.144226        0.124459 
        2.09851        0.143299        0.123587 
        2.10464        0.142466        0.122725 
        2.11077         0.14127        0.121872 
        2.11691        0.140534        0.121025 
        2.12305        0.139551        0.120186 
        2.12918        0.138878        0.119357 
        2.13531        0.137822        0.118536 
        2.14145        0.136795        0.117721 
         2.1476         0.13609        0.116913 
        2.15372        0.135526        0.116116 
        2.15985        0.134464        0.115326 
        2.16599        0.133558        0.114541 
        2.17213         0.13282        0.113764 
        2.17827        0.131878        0.112995 
         2.1844        0.131283        0.112233 
        2.19054        0.130416        0.111478 
        2.19666        0.129404        0.110732 
         2.2028        0.128731        0.109991 
        2.20893        0.128238        0.109257 
        2.21508        0.127063        0.108529 
        2.22122         0.12632        0.107807 
        2.22736        0.125843        0.107093 
        2.23349        0.124993        0.106386 
        2.23962        0.124399        0.105685 
        2.24577        0.123422         0.10499 
         2.2519         0.12282        0.104302 
        2.25802        0.122046        0.103621 
        2.26417        0.121393        0.102944 
        2.27031        0.120541        0.102273 
        2.27644        0.119872         0.10161 
        2.28257        0.119178        0.100952 
        2.28872        0.118621          0.1003 
        2.29486        0.118096        0.099653 
        2.30099        0.117164       0.0990132 
        2.30712        0.116509       0.0983788 
        2.31326        0.115664       0.0977489 
         2.3194        0.115433       0.0971249 
        2.32553        0.114607       0.0965074 
        2.33166        0.114132       0.0958956 
         2.3378        0.113388       0.0952882 
        2.34394        0.112702       0.0946859 
        2.35007        0.111983       0.0940897 
        2.35619        0.111205       0.0934994 
        2.36233        0.110808       0.0929127 
        2.36848        0.110249       0.0923299 
        2.37462        0.109416       0.0917534 
        2.38075         0.10897       0.0911823 
        2.38689        0.108403       0.0906156 
        2.39303        0.107898       0.0900539 
        2.39916        0.107133       0.0894975 
        2.40529        0.106619       0.0889458 
        2.41143        0.105971       0.0883985 
        2.41757          0.1054       0.0878555 
         2.4237        0.104947        0.087318 
        2.42983        0.104389       0.0867852 
        2.43598        0.103966       0.0862553 
        2.44211        0.103141       0.0857308 
        2.44823        0.102762       0.0852118 
        2.45437        0.102045       0.0846957 
        2.46052        0.101661       0.0841835 
        2.46665        0.101002       0.0836764 
        2.47279        0.100406       0.0831737 
        2.47892       0.0997411       0.0826748 
        2.48507       0.0993026       0.0821795 
         2.4912        0.098845       0.0816892 
