# k  (h/Mpc)    P(k)  (Mpc/h)^3    P_linear(k)  (Mpc/h)^3
     0.00783031         4039.19         4079.12 
       0.013688          4537.3         4611.98 
       0.019231         4249.47         4281.41 
      0.0249154         3621.57          3607.3 
      0.0312784         2836.28         2832.93 
      0.0375637         2240.51         2245.39 
      0.0433917         1900.38         1892.39 
      0.0492413         1683.39         1683.87 
      0.0555754         1558.47         1551.11 
      0.0619321         1425.55         1442.55 
       0.067871         1317.67         1320.49 
      0.0738098         1170.75         1169.02 
      0.0800417         1003.78         996.211 
      0.0862327         844.277          838.95 
      0.0921407          728.75         721.937 
      0.0982031         652.861         641.386 
       0.104506         596.309         593.498 
       0.110769         570.995         567.622 
       0.116806          554.94         547.666 
       0.122832         523.342         520.925 
       0.129052         486.371         481.336 
       0.135211         443.012          433.17 
       0.141259         392.767         384.713 
       0.147318         348.893         342.426 
       0.153489         318.774         310.181 
       0.159709         300.024         289.136 
       0.165845         281.958         276.823 
       0.171974         278.365         268.489 
       0.178125         268.268         259.733 
       0.184229         253.303         247.835 
        0.19034         240.662         232.201 
       0.196428         224.134         214.404 
       0.202534         203.486         196.752 
       0.208729         192.345         181.258 
       0.214876         181.682         169.435 
       0.220989         170.005         161.116 
       0.227147         166.281         155.217 
        0.23329         160.924         150.389 
       0.239377         156.681          145.36 
       0.245482         149.179         139.325 
       0.251667         141.151         132.135 
       0.257832          136.46         124.395 
       0.263955         127.101         116.916 
       0.270079         120.404         110.281 
        0.27624         114.553         104.797 
       0.282372         110.565         100.492 
        0.28843          108.82         97.0406 
       0.294538         104.385         93.9433 
       0.300721         100.122         90.7822 
        0.30691         97.8718         87.3709 
       0.313033         93.3993         83.7173 
       0.319153          90.941         79.9575 
       0.325316         86.6405          76.277 
        0.33145         83.1552         72.9333 
       0.337538         80.0923         70.0192 
       0.343633         77.6932         67.5114 
       0.349808         75.0678         65.2797 
       0.355968         72.8869         63.2257 
       0.362074            71.4         61.2374 
       0.368217         69.2402         59.1972 
       0.374374         67.3233         57.1136 
       0.380519         64.3866         55.0259 
       0.386598          62.439         53.0212 
       0.392688         60.2772         51.1392 
        0.39888         59.1106         49.3801 
       0.405048         57.5519         47.7901 
       0.411186         56.0087         46.3405 
       0.417313         54.4177         44.9767 
       0.423458         52.8319          43.655 
       0.429607         51.7785         42.3553 
       0.435692         50.8975         41.0767 
       0.441815         48.9195         39.8094 
       0.447964         47.2765         38.5776 
       0.454126         46.3909         37.3998 
       0.460267         45.8307         36.2904 
       0.466387         44.4807         35.2543 
        0.47254         43.8091         34.2752 
       0.478662          42.272         33.3473 
       0.484765         41.3936         32.4539 
       0.490885         40.1628         31.5829 
       0.497035         39.6089           30.73 
       0.503198         38.7225          29.896 
       0.509342         37.5785          29.088 
       0.515458         36.9789         28.3129 
       0.521598         36.0587         27.5691 
       0.527764         35.5091         26.8572 
       0.533884         34.8478          26.181 
           0.54         34.0347         25.5313 
       0.546137           33.02         24.9016 
       0.552299         32.3821         24.2895 
       0.558452         31.6694         23.6972 
       0.564573         31.3772         23.1249 
       0.570708         30.5155         22.5677 
       0.576825         30.1166         22.0292 
       0.582926         29.5893         21.5101 
       0.589034         28.9496         21.0089 
       0.595184          28.558         20.5231 
       0.601379         27.7908         20.0512 
       0.607522         27.2481         19.5987 
       0.613639         26.8863         19.1617 
       0.619772         26.3257          18.736 
       0.625918         25.8738         18.3212 
       0.632068          25.588         17.9182 
       0.638161         25.0385         17.5308 
         0.6443         24.6846         17.1524 
       0.650464         24.0366         16.7845 
       0.656582         23.8879         16.4305 
       0.662703         23.5196          16.087 
       0.668861         22.9237         15.7517 
       0.675024         22.6361         15.4256 
       0.681124         22.4801         15.1119 
       0.687237         22.0093         14.8061 
       0.693381         21.5652         14.5073 
       0.699536          21.408         14.2161 
       0.705665         20.9847         13.9342 
       0.711789         20.6441         13.6603 
       0.717957         20.2216          13.392 
        0.72409         20.0045         13.1326 
       0.730186         19.8887         12.8817 
       0.736317         19.4622         12.6361 
       0.742472         19.2334         12.3961 
       0.748622         18.9119         12.1626 
        0.75476         18.4591         11.9356 
       0.760888         18.4137         11.7147 
       0.767043         18.0517         11.4985 
       0.773185         17.8223         11.2882 
       0.779291         17.6062         11.0843 
       0.785407         17.3614         10.8853 
       0.791564         17.2417         10.6898 
       0.797719         16.8168         10.4993 
       0.803834         16.7585         10.3147 
       0.809972         16.4236         10.1339 
       0.816124         16.2467         9.95708 
       0.822261         16.0482         9.78498 
       0.828378         15.8883         9.61749 
       0.834502         15.7054          9.4538 
       0.840667         15.5196          9.2929 
       0.846816         15.1923         9.13622 
       0.852925         15.1365         8.98416 
       0.859047         14.9506         8.83526 
       0.865192         14.7301         8.68926 
       0.871341         14.5508         8.54649 
       0.877463         14.3608         8.40759 
       0.883569         14.2619         8.27214 
       0.889708         14.0337           8.139 
       0.895864         13.8487         8.00846 
       0.902008         13.7101         7.88107 
       0.908149         13.5053         7.75654 
       0.914301         13.4085         7.63452 
       0.920448         13.2378         7.51524 
       0.926574         13.1313         7.39893 
       0.932687         12.9326         7.28535 
       0.938823         12.7491         7.17375 
       0.944975         12.6757         7.06424 
       0.951105         12.5392         6.95741 
       0.957225          12.431         6.85299 
       0.963368         12.2366         6.75036 
       0.969511         12.1142         6.64983 
       0.975621         12.0123          6.5519 
       0.981748          11.848         6.45569 
       0.987916         11.7694         6.36081 
        0.99406         11.6047          6.2682 
        1.00019         11.5251         6.17762 
        1.00632         11.4423         6.08892 
        1.01246         11.2813         6.00184 
        1.01859         11.1742          5.9166 
        1.02471         11.0514         5.83313 
        1.03085          10.986         5.75099 
        1.03698         10.8893         5.67061 
        1.04314         10.7416         5.59143 
        1.04929          10.609         5.51395 
        1.05541         10.5429         5.43825 
        1.06154         10.4477          5.3638 
        1.06769         10.3456         5.29063 
        1.07382         10.2166         5.21907 
        1.07993         10.1309           5.149 
        1.08607         10.0591         5.07994 
        1.09222         9.94063         5.01208 
        1.09836         9.86084         4.94554 
        1.10449         9.78002         4.88029 
        1.11063         9.71732         4.81615 
        1.11677         9.64593         4.75319 
         1.1229         9.53706         4.69147 
        1.12903         9.44684         4.63079 
        1.13518         9.35748         4.57114 
        1.14131         9.29288         4.51257 
        1.14745          9.1544         4.45507 
        1.15359         9.06778         4.39856 
        1.15973         9.01666         4.34301 
        1.16584         8.92394         4.28867 
        1.17197         8.83418         4.23519 
        1.17811         8.77964         4.18245 
        1.18424         8.71421         4.13077 
        1.19038         8.67188         4.07981 
        1.19652         8.56118         4.02974 
        1.20267         8.52327          3.9805 
        1.20881         8.40287          3.9321 
        1.21495          8.3576         3.88457 
        1.22108         8.29487         3.83784 
         1.2272         8.21876         3.79199 
        1.23334         8.18076         3.74679 
        1.23949         8.10095         3.70221 
        1.24562         8.02314         3.65849 
        1.25174         7.98824         3.61554 
        1.25789         7.90595         3.57314 
        1.26402         7.84884         3.53151 
        1.27014         7.81279         3.49064 
        1.27628         7.71877          3.4503 
        1.28244         7.69559         3.41052 
        1.28858         7.60886         3.37142 
        1.29471         7.53376         3.33302 
        1.30084         7.47707         3.29525 
        1.30697         7.44595         3.25802 
        1.31312         7.38593         3.22131 
        1.31925         7.34117         3.18528 
        1.32537         7.26926         3.14984 
        1.33151         7.21774         3.11481 
        1.33765         7.17372         3.08034 
        1.34378          7.1443         3.04645 
        1.34992         7.07379         3.01306 
        1.35606         7.00511         2.98009 
         1.3622         6.95543         2.94768 
        1.36833         6.93204         2.91583 
        1.37445         6.87431         2.88446 
        1.38059         6.81153         2.85346 
        1.38675         6.78221         2.82284 
        1.39288         6.72606          2.7928 
        1.39901          6.6658          2.7632 
        1.40515         6.62748         2.73396 
         1.4113          6.5813         2.70517 
        1.41742         6.55016         2.67689 
        1.42355         6.48554         2.64897 
         1.4297         6.44296         2.62136 
        1.43585         6.41005         2.59415 
        1.44198         6.38338         2.56744 
        1.44809         6.32686         2.54115 
        1.45423         6.27956         2.51513 
        1.46036         6.23907         2.48953 
        1.46649         6.20177         2.46427 
        1.47263         6.16156         2.43934 
        1.47877         6.11082         2.41477 
        1.48491         6.09399          2.3905 
        1.49104          6.0471         2.36661 
        1.49718         6.01418         2.34304 
        1.50333         5.97273         2.31974 
        1.50947         5.93337         2.29681 
         1.5156         5.90417         2.27423 
        1.52172          5.8505         2.25195 
        1.52787         5.84144         2.22992 
          1.534         5.78598         2.20821 
        1.54013         5.76362         2.18682 
        1.54627         5.71768         2.16567 
        1.55241         5.66889          2.1448 
        1.55855         5.65487         2.12423 
        1.56467         5.63525         2.10399 
         1.5708          5.5787         2.08395 
        1.57695         5.54587         2.06415 
        1.58308         5.51123         2.04465 
        1.58922         5.48843         2.02539 
        1.59535         5.46266         2.00638 
         1.6015         5.39767         1.98759 
        1.60764          5.3763         1.96905 
        1.61376         5.35422          1.9508 
        1.61989         5.31694         1.93276 
        1.62604         5.30183         1.91491 
        1.63218         5.26622          1.8973 
        1.63831         5.23188         1.87995 
        1.64444         5.19377         1.86281 
        1.65059         5.16295         1.84584 
        1.65673         5.14897          1.8291 
        1.66285         5.11274         1.81262 
        1.66898          5.0973         1.79634 
        1.67512          5.0684         1.78022 
        1.68127         5.01394         1.76429 
         1.6874         5.00675         1.74858 
        1.69353         4.95997         1.73308 
        1.69967         4.94515         1.71773 
        1.70581         4.91379         1.70257 
        1.71193          4.8873         1.68765 
        1.71806         4.85908         1.67288 
        1.72421         4.83223         1.65826 
        1.73035         4.81838         1.64382 
        1.73649         4.79379         1.62957 
        1.74262         4.74727         1.61549 
        1.74876         4.73979         1.60157 
        1.75489         4.71716         1.58784 
        1.76101         4.67228         1.57428 
        1.76715         4.67379         1.56085 
        1.77329          4.6356         1.54757 
        1.77943         4.60029         1.53443 
        1.78557         4.60154         1.52147 
        1.79171         4.56658         1.50866 
        1.79785         4.55071         1.49599 
        1.80399         4.52133         1.48346 
        1.81012          4.4939          1.4711 
        1.81625         4.47141         1.45889 
        1.82239         4.45201         1.44679 
        1.82853         4.41634         1.43484 
        1.83466          4.3917         1.42303 
        1.84078         4.37308         1.41137 
        1.84692         4.35813         1.39982 
        1.85306         4.33627         1.38839 
         1.8592         4.31989          1.3771 
        1.86533         4.29421         1.36594 
        1.87147         4.27866          1.3549 
        1.87761         4.25487         1.34397 
        1.88375         4.23472         1.33317 
        1.88988         4.21516         1.32251 
        1.89601         4.18525         1.31195 
        1.90215         4.17021          1.3015 
        1.90829         4.15481         1.29117 
        1.91442         4.13417         1.28096 
        1.92056         4.12204         1.27086 
         1.9267         4.09629         1.26086 
        1.93284         4.07505         1.25096 
        1.93897         4.05069         1.24118 
        1.94509         4.01817         1.23154 
        1.95123         4.02012         1.22197 
        1.95737         4.00153         1.21249 
        1.96349         3.97676         1.20314 
        1.96964         3.95055         1.19386 
        1.97578         3.94032         1.18467 
        1.98192         3.92262          1.1756 
        1.98805         3.90446         1.16663 
        1.99419         3.88877         1.15774 
        2.00033         3.86365         1.14895 
        2.00647         3.85685         1.14025 
         2.0126          3.8361         1.13165 
        2.01874          3.8125         1.12313 
        2.02488         3.80547         1.11469 
        2.03101         3.78011         1.10635 
        2.03714         3.75743          1.0981 
        2.04328         3.74495         1.08993 
        2.04941         3.72645         1.08185 
        2.05554          3.7127         1.07386 
        2.06167           3.705         1.06593 
        2.06781         3.68208         1.05809 
        2.07396         3.66324         1.05031 
        2.08009         3.64545         1.04262 
        2.08622         3.64114         1.03502 
        2.09237         3.62052         1.02748 
        2.09851         3.59983         1.02002 
        2.10464         3.59072         1.01264 
        2.11077         3.56627         1.00534 
        2.11691         3.55802          0.9981 
        2.12305         3.54468        0.990929 
        2.12918         3.52515        0.983846 
        2.13531         3.51442        0.976831 
        2.14145         3.49565        0.969869 
         2.1476         3.48024        0.962966 
        2.15372         3.46526        0.956165 
        2.15985         3.45483        0.949422 
        2.16599         3.44073        0.942725 
        2.17213         3.43645          0.9361 
        2.17827         3.40859         0.92954 
         2.1844          3.4043        0.923049 
        2.19054         3.38962        0.916617 
        2.19666         3.37144        0.910256 
         2.2028         3.35097        0.903949 
        2.20893         3.34993        0.897699 
        2.21508         3.32554        0.891501 
        2.22122         3.31239        0.885359 
        2.22736         3.29575        0.879288 
        2.23349          3.2829        0.873275 
        2.23962         3.27278        0.867315 
        2.24577         3.26142        0.861406 
         2.2519         3.25891        0.855559 
        2.25802         3.22386        0.849777 
        2.26417         3.21826        0.844031 
        2.27031         3.20485        0.838333 
        2.27644         3.19847        0.832705 
        2.28257         3.18031        0.827128 
        2.28872         3.16594        0.821592 
        2.29486         3.15578        0.816108 
        2.30099         3.14758        0.810684 
        2.30712         3.12994        0.805308 
        2.31326         3.12174        0.799971 
         2.3194         3.10395        0.794685 
        2.32553         3.09654        0.789456 
        2.33166          3.0818        0.784276 
         2.3378         3.07296        0.779136 
        2.34394         3.05664         0.77404 
        2.35007         3.04825        0.768996 
        2.35619         3.04102        0.764004 
        2.36233         3.02525        0.759044 
        2.36848         3.01218        0.754118 
        2.37462         3.00509        0.749246 
        2.38075          2.9914        0.744421 
        2.38689         2.98471        0.739635 
        2.39303         2.96841        0.734892 
        2.39916         2.95969        0.730195 
        2.40529         2.94549         0.72554 
        2.41143          2.9448        0.720922 
        2.41757         2.92737        0.716342 
         2.4237         2.91881         0.71181 
        2.42983         2.90426        0.707317 
        2.43598         2.89866        0.702852 
        2.44211         2.88091        0.698432 
        2.44823         2.87111         0.69406 
        2.45437         2.86308        0.689714 
        2.46052         2.85776        0.685401 
        2.46665         2.84188        0.681132 
        2.47279         2.83112        0.676902 
        2.47892         2.82095        0.672704 
        2.48507         2.81217        0.668538 
         2.4912          2.8008        0.664415 
