# k  (h/Mpc)    Pcb(k)  (Mpc/h)^3    Pcb_linear(k)  (Mpc/h)^3
     0.00783031         15696.9         15798.1 
       0.013688         17271.6           17702 
       0.019231         16240.9         16459.5 
      0.0249154         14061.7         13971.3 
      0.0312784         11033.2         11069.4 
      0.0375637         8715.31         8792.79 
      0.0433917         7380.34         7359.72 
      0.0492413         6445.97         6466.97 
      0.0555754         5915.92         5885.64 
      0.0619321         5326.29         5456.19 
       0.067871         4986.24         5029.39 
      0.0738098         4518.13         4514.75 
      0.0800417         3945.99         3909.04 
      0.0862327         3357.41         3323.36 
      0.0921407         2924.44         2852.91 
      0.0982031         2608.74         2497.53 
       0.104506         2323.97         2261.09 
       0.110769         2193.87         2124.69 
       0.116806         2125.41         2038.77 
       0.122832         2010.92         1953.82 
       0.129052         1889.35         1837.42 
       0.135211         1784.89         1687.35 
       0.141259         1604.26         1520.72 
       0.147318         1442.88         1357.92 
       0.153489         1321.62         1217.08 
       0.159709         1247.62         1111.28 
       0.165845          1144.3         1041.41 
       0.171974          1123.7         996.391 
       0.178125         1085.52          962.76 
       0.184229         1011.74          928.38 
        0.19034         986.545         885.105 
       0.196428         944.855         831.709 
       0.202534         867.886         771.878 
       0.208729         841.521          711.64 
       0.214876         792.586         658.662 
       0.220989         741.122         616.246 
       0.227147         720.235         584.156 
        0.23329         691.294         560.369 
       0.239377         684.258         541.153 
       0.245482         648.144         522.535 
       0.251667         623.052         501.719 
       0.257832         611.087         478.161 
       0.263955         575.811         452.884 
       0.270079         551.503         427.508 
        0.27624         527.158         403.799 
       0.282372         514.758         383.306 
        0.28843         507.516         366.414 
       0.294538         481.149         352.314 
       0.300721         467.889         339.973 
        0.30691         457.966          328.43 
       0.313033         436.482         316.881 
       0.319153         429.471         304.836 
       0.325316         420.859         292.244 
        0.33145         409.158         279.722 
       0.337538          393.02         267.807 
       0.343633         381.746         256.849 
       0.349808         371.257         246.914 
       0.355968         364.074         238.134 
       0.362074         350.232         230.285 
       0.368217         347.432         222.908 
       0.374374         340.498         215.753 
       0.380519         326.126          208.64 
       0.386598         321.982          201.61 
       0.392688         312.936         194.644 
        0.39888         305.386         187.768 
       0.405048         297.987         181.281 
       0.411186         296.873         175.262 
       0.417313         291.841          169.69 
       0.423458         283.843         164.505 
       0.429607         274.993         159.618 
       0.435692          270.98         154.979 
       0.441815         265.601         150.448 
       0.447964         259.212         145.997 
       0.454126         256.009         141.628 
       0.460267         251.757           137.4 
       0.466387         245.575         133.352 
        0.47254         242.738         129.468 
       0.478662         236.809         125.797 
       0.484765         233.058         122.329 
       0.490885         230.169         119.021 
       0.497035         225.617         115.832 
       0.503198         224.454         112.745 
       0.509342         219.158         109.761 
       0.515458         215.075         106.879 
       0.521598         210.952         104.071 
       0.527764         208.514         101.341 
       0.533884         206.538         98.7272 
           0.54         203.057         96.2189 
       0.546137         198.362         93.8054 
       0.552299         196.628         91.4765 
       0.558452         193.263         89.2359 
       0.564573          192.46         87.0818 
       0.570708          187.76          84.992 
       0.576825         185.009         82.9739 
       0.582926         183.508         81.0226 
       0.589034          180.12         79.1275 
       0.595184         178.683         77.2779 
       0.601379         175.847         75.4749 
       0.607522         171.524         73.7462 
       0.613639         170.868         72.0828 
       0.619772         169.484         70.4708 
       0.625918         167.045         68.9071 
       0.632068         164.006         67.3905 
       0.638161         163.324          65.932 
         0.6443         160.894         64.5043 
       0.650464         158.492         63.1124 
       0.656582         156.874         61.7709 
       0.662703         156.083         60.4681 
       0.668861         152.547         59.1964 
       0.675024         152.145         57.9613 
       0.681124         149.921         56.7748 
       0.687237         148.843         55.6197 
       0.693381         146.021         54.4917 
       0.699536         145.418          53.393 
       0.705665         143.794         52.3291 
       0.711789         141.629         51.2951 
       0.717957         140.516         50.2818 
        0.72409         138.483         49.3015 
       0.730186         138.901         48.3535 
       0.736317         136.933         47.4254 
       0.742472         134.921         46.5185 
       0.748622         133.166         45.6364 
        0.75476          133.25         44.7793 
       0.760888         131.482         43.9457 
       0.767043         129.223         43.1302 
       0.773185         127.863         42.3371 
       0.779291         126.951         41.5685 
       0.785407         126.062         40.8179 
       0.791564         124.871         40.0811 
       0.797719          122.77         39.3629 
       0.803834         123.163         38.6669 
       0.809972         121.689         37.9852 
       0.816124         119.457         37.3186 
       0.822261         118.902         36.6698 
       0.828378         118.302         36.0384 
       0.834502         117.242         35.4215 
       0.840667         116.732          34.815 
       0.846816         114.742         34.2246 
       0.852925         114.174         33.6515 
       0.859047         112.993         33.0905 
       0.865192         112.414         32.5405 
       0.871341         111.437         32.0026 
       0.877463         110.226         31.4794 
       0.883569           110.2         30.9692 
       0.889708         109.165         30.4677 
       0.895864         107.846         29.9761 
       0.902008         106.772         29.4964 
       0.908149         105.724         29.0275 
       0.914301         105.066         28.5681 
       0.920448         105.108         28.1191 
       0.926574         103.261         27.6813 
       0.932687         103.177         27.2538 
       0.938823         102.412         26.8338 
       0.944975         101.761         26.4218 
       0.951105         100.681         26.0199 
       0.957225         100.014          25.627 
       0.963368         99.2979          25.241 
       0.969511         98.5214         24.8629 
       0.975621         97.0907         24.4946 
       0.981748         96.9311         24.1329 
       0.987916          96.222         23.7762 
        0.99406         95.6743         23.4281 
        1.00019         95.0549         23.0876 
        1.00632         94.1124         22.7543 
        1.01246         93.5936          22.427 
        1.01859         92.9596         22.1067 
        1.02471         92.4076         21.7931 
        1.03085         91.6333         21.4844 
        1.03698         90.9024         21.1825 
        1.04314          90.509          20.885 
        1.04929         90.0841          20.594 
        1.05541         89.4087         20.3097 
        1.06154          88.503           20.03 
        1.06769         87.9841         19.7552 
        1.07382          87.533         19.4865 
        1.07993         87.0877         19.2234 
        1.08607          86.671         18.9641 
        1.09222         85.7849         18.7092 
        1.09836         85.2646         18.4594 
        1.10449         84.8226         18.2144 
        1.11063         84.1349         17.9736 
        1.11677         83.8603         17.7373 
         1.1229          82.879         17.5056 
        1.12903         82.3341         17.2778 
        1.13518         81.7962         17.0539 
        1.14131         81.6141         16.8342 
        1.14745          81.092         16.6184 
        1.15359         80.3896         16.4064 
        1.15973         80.0671         16.1979 
        1.16584         79.4884         15.9941 
        1.17197         79.1029         15.7934 
        1.17811         78.5406         15.5956 
        1.18424         77.9741         15.4018 
        1.19038         77.6228         15.2107 
        1.19652          77.268         15.0229 
        1.20267         76.6491         14.8383 
        1.20881         76.0658         14.6569 
        1.21495         75.8861         14.4787 
        1.22108         75.3601         14.3036 
         1.2272         75.1122         14.1317 
        1.23334         74.6628         13.9623 
        1.23949         74.0663         13.7953 
        1.24562         73.4982         13.6315 
        1.25174         73.5567         13.4705 
        1.25789         72.8324         13.3117 
        1.26402         72.4756         13.1557 
        1.27014         71.8353         13.0026 
        1.27628         71.6447         12.8515 
        1.28244         71.4367         12.7025 
        1.28858         70.8972          12.556 
        1.29471          70.437         12.4122 
        1.30084         69.9269         12.2708 
        1.30697         69.6267         12.1314 
        1.31312         69.3811         11.9939 
        1.31925         68.7371          11.859 
        1.32537         68.4195         11.7263 
        1.33151          68.378         11.5951 
        1.33765         67.7291         11.4661 
        1.34378         67.4717         11.3392 
        1.34992         67.1204         11.2142 
        1.35606          66.869         11.0908 
         1.3622         66.4996         10.9694 
        1.36833         66.0366         10.8502 
        1.37445         65.7351         10.7328 
        1.38059         65.3228         10.6168 
        1.38675         64.9785         10.5022 
        1.39288         64.5982         10.3898 
        1.39901         64.3171          10.279 
        1.40515         63.9022         10.1697 
         1.4113         63.5933         10.0619 
        1.41742         63.3647         9.95616 
        1.42355         63.0749         9.85171 
         1.4297         62.6524         9.74845 
        1.43585         62.5652         9.64671 
        1.44198           61.92         9.54681 
        1.44809          61.568         9.44851 
        1.45423         61.5939         9.35123 
        1.46036         61.1126          9.2555 
        1.46649         60.6587         9.16107 
        1.47263         60.3182         9.06788 
        1.47877         60.1792         8.97603 
        1.48491         59.7114         8.88531 
        1.49104         59.4815         8.79604 
        1.49718         59.1262         8.70792 
        1.50333         58.9527         8.62087 
        1.50947         58.6906         8.53518 
         1.5156         58.4406         8.45079 
        1.52172         57.9373         8.36753 
        1.52787         57.7674         8.28523 
          1.534         57.4881         8.20413 
        1.54013         57.2536          8.1242 
        1.54627         56.8115         8.04519 
        1.55241         56.7808         7.96721 
        1.55855         56.1831         7.89037 
        1.56467         55.8549         7.81476 
         1.5708         55.7637         7.73992 
        1.57695         55.4172         7.66594 
        1.58308         55.2414         7.59311 
        1.58922         54.9601         7.52116 
        1.59535         54.8797         7.45018 
         1.6015         54.4524         7.38001 
        1.60764           54.22         7.31077 
        1.61376         54.0289         7.24262 
        1.61989         53.5699         7.17528 
        1.62604         53.4689         7.10864 
        1.63218         53.1209         7.04289 
        1.63831          52.968         6.97812 
        1.64444         52.7238         6.91414 
        1.65059         52.3897         6.85081 
        1.65673         52.2063         6.78834 
        1.66285         51.8324         6.72682 
        1.66898         51.5264         6.66605 
        1.67512         51.3053         6.60591 
        1.68127         51.2192         6.54645 
         1.6874         50.9419         6.48786 
        1.69353         50.6775         6.43002 
        1.69967         50.4236         6.37274 
        1.70581         50.2138         6.31619 
        1.71193         49.8948         6.26054 
        1.71806         49.7758         6.20544 
        1.72421         49.4824         6.15089 
        1.73035          49.258         6.09706 
        1.73649         49.0364         6.04388 
        1.74262         48.7859         5.99138 
        1.74876         48.6393         5.93947 
        1.75489         48.4122         5.88827 
        1.76101         48.2001          5.8377 
        1.76715         47.9195         5.78765 
        1.77329         47.6999         5.73812 
        1.77943          47.542         5.68915 
        1.78557         47.3305         5.64082 
        1.79171         46.9736         5.59304 
        1.79785         46.8655          5.5458 
        1.80399         46.6785         5.49912 
        1.81012         46.3761         5.45304 
        1.81625         46.2141          5.4075 
        1.82239         45.9028         5.36242 
        1.82853          45.824         5.31787 
        1.83466         45.5272         5.27386 
        1.84078         45.2743          5.2304 
        1.84692         45.2641         5.18736 
        1.85306         45.0606         5.14475 
         1.8592         44.7488         5.10269 
        1.86533         44.5663         5.06112 
        1.87147         44.2773         5.01996 
        1.87761         44.0492         4.97924 
        1.88375         43.9732         4.93902 
        1.88988          43.763         4.89929 
        1.89601         43.6409         4.85997 
        1.90215          43.356         4.82105 
        1.90829         43.1709         4.78257 
        1.91442         42.9126         4.74451 
        1.92056          42.763          4.7069 
         1.9267         42.5874         4.66965 
        1.93284         42.4101         4.63279 
        1.93897         42.0926         4.59639 
        1.94509         42.0325         4.56046 
        1.95123         41.8126         4.52483 
        1.95737          41.699         4.48955 
        1.96349         41.5047         4.45473 
        1.96964         41.2804         4.42018 
        1.97578         41.0599         4.38599 
        1.98192         40.8158         4.35222 
        1.98805         40.6388          4.3188 
        1.99419         40.5743         4.28574 
        2.00033         40.3298           4.253 
        2.00647         40.1471         4.22061 
         2.0126         39.9954         4.18862 
        2.01874         39.8819          4.1569 
        2.02488         39.6684         4.12549 
        2.03101         39.5039         4.09446 
        2.03714         39.3092         4.06377 
        2.04328         39.2108         4.03337 
        2.04941         38.8686         4.00329 
        2.05554         38.7438         3.97355 
        2.06167         38.5759         3.94407 
        2.06781         38.5046         3.91488 
        2.07396         38.2627         3.88594 
        2.08009         38.1525         3.85735 
        2.08622         37.9839         3.82907 
        2.09237          37.801         3.80103 
        2.09851         37.5268         3.77325 
        2.10464         37.4131          3.7458 
        2.11077         37.2869         3.71866 
        2.11691         37.0975         3.69172 
        2.12305         36.9499         3.66505 
        2.12918         36.7353         3.63871 
        2.13531         36.5702         3.61262 
        2.14145         36.4426         3.58673 
         2.1476           36.42         3.56106 
        2.15372         36.1842         3.53577 
        2.15985         35.9856          3.5107 
        2.16599         35.8486          3.4858 
        2.17213         35.7366         3.46117 
        2.17827         35.5512         3.43678 
         2.1844         35.3306         3.41264 
        2.19054         35.3519         3.38873 
        2.19666         35.1237         3.36509 
         2.2028         34.9218         3.34164 
        2.20893         34.7426         3.31841 
        2.21508         34.6484         3.29537 
        2.22122         34.4324         3.27254 
        2.22736         34.2822         3.24998 
        2.23349         34.2013         3.22763 
        2.23962         34.1071         3.20548 
        2.24577         33.9033         3.18352 
         2.2519         33.7363         3.16179 
        2.25802         33.5449          3.1403 
        2.26417         33.3777         3.11895 
        2.27031         33.2826         3.09778 
        2.27644         33.1475         3.07687 
        2.28257          33.062         3.05615 
        2.28872         32.8958         3.03558 
        2.29486         32.7242         3.01521 
        2.30099         32.6201         2.99506 
        2.30712         32.4532         2.97509 
        2.31326         32.3639         2.95526 
         2.3194         32.1808         2.93563 
        2.32553         32.0761         2.91621 
        2.33166         31.9495         2.89697 
         2.3378         31.7762         2.87788 
        2.34394         31.6254         2.85895 
        2.35007         31.5414         2.84022 
        2.35619         31.3873         2.82168 
        2.36233         31.2567         2.80326 
        2.36848         31.1335         2.78497 
        2.37462         31.0179         2.76688 
        2.38075         30.8805         2.74896 
        2.38689         30.6879         2.73119 
        2.39303         30.6107         2.71358 
        2.39916         30.5106         2.69614 
        2.40529         30.3556         2.67886 
        2.41143         30.2678         2.66171 
        2.41757         30.1205         2.64471 
         2.4237          29.974         2.62789 
        2.42983         29.8474         2.61121 
        2.43598         29.7349         2.59463 
        2.44211         29.5613         2.57823 
        2.44823         29.4819           2.562 
        2.45437         29.3571         2.54587 
        2.46052         29.2169         2.52986 
        2.46665         29.0891         2.51402 
        2.47279         28.9553         2.49832 
        2.47892         28.8585         2.48274 
        2.48507         28.7281         2.46728 
         2.4912         28.5993         2.45198 
