# k  (h/Mpc)    Pcb(k)  (Mpc/h)^3    Pcb_linear(k)  (Mpc/h)^3
     0.00783031         225.559         227.413 
       0.013688         289.288         290.211 
       0.019231         304.711          304.97 
      0.0249154         292.996         294.082 
      0.0312784          267.01         267.233 
      0.0375637         237.841         237.546 
      0.0433917         213.053         213.153 
      0.0492413         193.831         193.646 
      0.0555754         177.389         177.673 
      0.0619321         165.529         165.122 
       0.067871         154.372         154.596 
      0.0738098         143.612         143.888 
      0.0800417         131.498          131.93 
      0.0862327         119.501          119.66 
      0.0921407         108.337         108.375 
      0.0982031         97.9153         98.0478 
       0.104506         89.4385         89.2116 
       0.110769         82.6079         82.4338 
       0.116806         77.3672         77.4678 
       0.122832         73.5723         73.4989 
       0.129052         69.6951         69.8266 
       0.135211         65.9626         66.1318 
       0.141259         62.2084         62.2234 
       0.147318         58.1998          58.067 
       0.153489          53.847         53.8102 
       0.159709         49.8543         49.7926 
       0.165845          46.622         46.3318 
       0.171974         43.5517         43.4792 
       0.178125         41.2989          41.189 
       0.184229         39.5204         39.3455 
        0.19034         37.7264         37.7415 
       0.196428         36.3039         36.2079 
       0.202534         34.8585         34.6145 
       0.208729         33.0471         32.9005 
       0.214876         31.1983         31.1381 
       0.220989         29.6595         29.4061 
       0.227147         27.8525         27.7739 
        0.23329         26.4189         26.3248 
       0.239377         25.2249         25.0906 
       0.245482         24.1078         24.0381 
       0.251667         23.3036         23.1143 
       0.257832         22.4178         22.2746 
       0.263955         21.6304         21.4669 
       0.270079         20.8208         20.6502 
        0.27624         20.0665         19.8093 
       0.282372         19.2169          18.966 
        0.28843         18.3417         18.1507 
       0.294538         17.5769         17.3737 
       0.300721         16.9286         16.6533 
        0.30691         16.2058         16.0061 
       0.313033           15.65         15.4334 
       0.319153         15.0233         14.9131 
       0.325316         14.6811         14.4235 
        0.33145         14.1868         13.9532 
       0.337538         13.7203         13.4923 
       0.343633          13.234         13.0332 
       0.349808         12.8067         12.5735 
       0.355968          12.364         12.1275 
       0.362074         11.9307         11.7053 
       0.368217         11.5444          11.307 
       0.374374         11.1309         10.9362 
       0.380519         10.8274         10.5932 
       0.386598         10.5265         10.2761 
       0.392688         10.2438         9.97469 
        0.39888         9.93201          9.6799 
       0.405048         9.65629         9.39389 
       0.411186         9.38767         9.11506 
       0.417313         9.08308         8.84329 
       0.423458         8.84139         8.57866 
       0.429607         8.56323           8.324 
       0.435692          8.3201         8.08392 
       0.441815         8.10068         7.85464 
       0.447964         7.91773         7.63641 
       0.454126         7.66753         7.42873 
       0.460267         7.47132         7.23077 
       0.466387         7.26273         7.04056 
        0.47254         7.09596         6.85525 
       0.478662         6.92814          6.6761 
       0.484765         6.73666         6.50234 
       0.490885         6.56677         6.33328 
       0.497035         6.44614          6.1692 
       0.503198         6.26664         6.01105 
       0.509342         6.12125          5.8596 
       0.515458         5.96371         5.71489 
       0.521598         5.82977         5.57543 
       0.527764         5.67881          5.4406 
       0.533884         5.57282         5.31127 
           0.54          5.4395         5.18599 
       0.546137          5.3252         5.06397 
       0.552299         5.20486         4.94508 
       0.558452         5.06612         4.82992 
       0.564573         4.97222         4.71882 
       0.570708         4.86431         4.61098 
       0.576825          4.7462         4.50704 
       0.582926         4.65994         4.40689 
       0.589034         4.53093         4.30994 
       0.595184         4.44683         4.21544 
       0.601379         4.35183         4.12317 
       0.607522         4.27804         4.03437 
       0.613639         4.20792         3.94849 
       0.619772          4.0974         3.86485 
       0.625918         4.02715         3.78342 
       0.632068         3.95785         3.70425 
       0.638161          3.8672         3.62804 
         0.6443         3.78827         3.55344 
       0.650464         3.70508         3.48072 
       0.656582          3.6496         3.41065 
       0.662703         3.58082         3.34256 
       0.668861         3.52272         3.27601 
       0.675024         3.44608         3.21124 
       0.681124         3.37442         3.14888 
       0.687237         3.32586         3.08803 
       0.693381         3.26664         3.02847 
       0.699536         3.18388         2.97036 
       0.705665         3.13351         2.91403 
       0.711789         3.08418         2.85923 
       0.717957         3.02364         2.80548 
        0.72409         2.97369         2.75345 
       0.730186         2.92005         2.70308 
       0.736317         2.88617         2.65371 
       0.742472         2.83355         2.60541 
       0.748622         2.77884         2.55836 
        0.75476         2.72304         2.51257 
       0.760888          2.6794         2.46798 
       0.767043         2.64958         2.42429 
       0.773185         2.59414         2.38175 
       0.779291         2.55622         2.34048 
       0.785407         2.51474         2.30014 
       0.791564         2.47508         2.26049 
       0.797719         2.43982         2.22182 
       0.803834         2.40296          2.1843 
       0.809972         2.36408         2.14752 
       0.816124         2.32166         2.11152 
       0.822261         2.28134         2.07644 
       0.828378         2.25243         2.04228 
       0.834502         2.22408         2.00886 
       0.840667         2.17765         1.97597 
       0.846816         2.14576         1.94391 
       0.852925         2.12357         1.91278 
       0.859047         2.09111         1.88226 
       0.865192         2.05785         1.85231 
       0.871341         2.02754           1.823 
       0.877463         2.00528         1.79445 
       0.883569          1.9685          1.7666 
       0.889708         1.93845         1.73919 
       0.895864         1.91342          1.7123 
       0.902008         1.88123         1.68604 
       0.908149         1.85683         1.66035 
       0.914301         1.82166         1.63515 
       0.920448         1.80062         1.61051 
       0.926574         1.77397         1.58646 
       0.932687         1.75073         1.56295 
       0.938823         1.73412         1.53984 
       0.944975         1.70747         1.51715 
       0.951105         1.68655           1.495 
       0.957225         1.66883         1.47333 
       0.963368         1.64395         1.45202 
       0.969511         1.61865         1.43113 
       0.975621          1.5933         1.41077 
       0.981748         1.57967         1.39075 
       0.987916         1.55718           1.371 
        0.99406         1.53342         1.35171 
        1.00019         1.51923         1.33282 
        1.00632         1.49421         1.31432 
        1.01246         1.47564         1.29614 
        1.01859         1.45992         1.27834 
        1.02471          1.4391         1.26089 
        1.03085         1.42601         1.24372 
        1.03698          1.4039         1.22689 
        1.04314         1.38886         1.21031 
        1.04929         1.36887         1.19408 
        1.05541         1.35503         1.17821 
        1.06154         1.33644         1.16259 
        1.06769         1.31928         1.14723 
        1.07382         1.30534          1.1322 
        1.07993         1.28524         1.11748 
        1.08607         1.27715         1.10296 
        1.09222         1.25792         1.08868 
        1.09836         1.24868         1.07467 
        1.10449         1.23285         1.06092 
        1.11063         1.21451          1.0474 
        1.11677         1.19878         1.03413 
         1.1229         1.18689          1.0211 
        1.12903         1.17144         1.00829 
        1.13518         1.16187        0.995691 
        1.14131         1.14564        0.983314 
        1.14745         1.12638        0.971155 
        1.15359         1.11996          0.9592 
        1.15973         1.10269        0.947443 
        1.16584         1.09768        0.935935 
        1.17197         1.08288        0.924603 
        1.17811         1.07177        0.913425 
        1.18424         1.06376        0.902464 
        1.19038         1.04823        0.891653 
        1.19652         1.03435        0.881023 
        1.20267         1.02781        0.870567 
        1.20881         1.01305        0.860283 
        1.21495         1.00582        0.850182 
        1.22108         0.99454        0.840245 
         1.2272        0.985928        0.830491 
        1.23334        0.973468         0.82087 
        1.23949        0.962861        0.811379 
        1.24562         0.95379        0.802064 
        1.25174        0.944205         0.79291 
        1.25789        0.935249        0.783871 
        1.26402        0.922294        0.774989 
        1.27014        0.913577        0.766267 
        1.27628        0.907669        0.757653 
        1.28244        0.893953        0.749156 
        1.28858        0.886431          0.7408 
        1.29471        0.879773        0.732591 
        1.30084         0.86874        0.724514 
        1.30697        0.860406        0.716547 
        1.31312        0.848165        0.708688 
        1.31925        0.842665        0.700973 
        1.32537        0.835664         0.69338 
        1.33151        0.828432        0.685872 
        1.33765        0.819535         0.67848 
        1.34378        0.808842        0.671212 
        1.34992         0.80426        0.664046 
        1.35606        0.794675        0.656969 
         1.3622          0.7879        0.650007 
        1.36833        0.780066        0.643164 
        1.37445        0.770271        0.636422 
        1.38059        0.763486        0.629757 
        1.38675        0.761938        0.623172 
        1.39288        0.751301        0.616707 
        1.39901        0.744723        0.610337 
        1.40515        0.738457        0.604042 
         1.4113        0.729853        0.597839 
        1.41742         0.72326        0.591747 
        1.42355        0.720197        0.585729 
         1.4297         0.71036        0.579776 
        1.43585        0.704638        0.573909 
        1.44198        0.701231        0.568145 
        1.44809        0.691707        0.562471 
        1.45423        0.686133        0.556855 
        1.46036        0.680034        0.551324 
        1.46649        0.674758        0.545868 
        1.47263        0.667753        0.540481 
        1.47877        0.660941        0.535169 
        1.48491         0.65602         0.52992 
        1.49104         0.64893        0.524753 
        1.49718        0.644801         0.51965 
        1.50333        0.639462        0.514608 
        1.50947         0.63402        0.509643 
         1.5156        0.627716        0.504751 
        1.52172        0.622699        0.499923 
        1.52787        0.616888        0.495149 
          1.534        0.612508        0.490442 
        1.54013        0.605509        0.485802 
        1.54627        0.601579        0.481214 
        1.55241        0.595785        0.476684 
        1.55855        0.589772        0.472218 
        1.56467        0.588083        0.467822 
         1.5708        0.581318         0.46347 
        1.57695        0.577362        0.459167 
        1.58308        0.572122        0.454928 
        1.58922        0.567728         0.45074 
        1.59535        0.562603        0.446606 
         1.6015        0.558183        0.442518 
        1.60764        0.554079        0.438483 
        1.61376        0.547817         0.43451 
        1.61989        0.545043        0.430583 
        1.62604        0.540519        0.426695 
        1.63218        0.536961        0.422859 
        1.63831        0.532083        0.419078 
        1.64444        0.527554        0.415342 
        1.65059        0.523706        0.411642 
        1.65673        0.519176        0.407992 
        1.66285        0.515549        0.404397 
        1.66898        0.512029        0.400843 
        1.67512        0.506881        0.397325 
        1.68127        0.502708        0.393847 
         1.6874        0.500444        0.390417 
        1.69353        0.495492        0.387031 
        1.69967        0.492445        0.383677 
        1.70581        0.487774        0.380364 
        1.71193         0.48445        0.377103 
        1.71806        0.480274        0.373873 
        1.72421        0.477386        0.370674 
        1.73035        0.473111        0.367517 
        1.73649         0.47057        0.364397 
        1.74262        0.466724        0.361316 
        1.74876        0.462807        0.358268 
        1.75489        0.459775        0.355262 
        1.76101        0.455505        0.352291 
        1.76715        0.452459         0.34935 
        1.77329        0.448983        0.346439 
        1.77943         0.44575         0.34356 
        1.78557        0.443104        0.340718 
        1.79171        0.439678        0.337907 
        1.79785        0.436337        0.335128 
        1.80399        0.432969         0.33238 
        1.81012        0.430451        0.329667 
        1.81625        0.426889        0.326985 
        1.82239        0.424508        0.324329 
        1.82853        0.419967        0.321704 
        1.83466        0.417972        0.319111 
        1.84078        0.414472        0.316549 
        1.84692        0.412039         0.31401 
        1.85306        0.409371        0.311497 
         1.8592        0.406345        0.309015 
        1.86533        0.403912        0.306561 
        1.87147          0.4008        0.304132 
        1.87761         0.39864        0.301727 
        1.88375        0.394431        0.299351 
        1.88988        0.392489        0.297004 
        1.89601        0.389503         0.29468 
        1.90215        0.387153         0.29238 
        1.90829        0.384061        0.290105 
        1.91442        0.382002        0.287854 
        1.92056        0.378887        0.285628 
         1.9267        0.376111        0.283425 
        1.93284        0.373796        0.281243 
        1.93897        0.371522        0.279088 
        1.94509        0.369325         0.27696 
        1.95123          0.3661        0.274849 
        1.95737        0.364482        0.272759 
        1.96349        0.361651        0.270695 
        1.96964        0.358927        0.268647 
        1.97578         0.35659         0.26662 
        1.98192        0.355133        0.264617 
        1.98805        0.352685        0.262635 
        1.99419        0.349718        0.260673 
        2.00033        0.347667         0.25873 
        2.00647        0.345927        0.256807 
         2.0126        0.343111        0.254907 
        2.01874        0.341361        0.253024 
        2.02488        0.339193        0.251158 
        2.03101         0.33664        0.249314 
        2.03714        0.334493         0.24749 
        2.04328        0.332567        0.245682 
        2.04941        0.330354        0.243894 
        2.05554        0.328487        0.242125 
        2.06167        0.326754        0.240372 
        2.06781        0.323486        0.238635 
        2.07396        0.321634        0.236913 
        2.08009        0.319744        0.235211 
        2.08622        0.318136        0.233527 
        2.09237        0.316822        0.231857 
        2.09851        0.314686        0.230203 
        2.10464        0.312606        0.228567 
        2.11077        0.310213        0.226949 
        2.11691        0.308489        0.225344 
        2.12305        0.306591        0.223754 
        2.12918        0.304817        0.222183 
        2.13531        0.302881        0.220627 
        2.14145        0.300952        0.219082 
         2.1476        0.299351        0.217551 
        2.15372        0.298024        0.216041 
        2.15985          0.2957        0.214545 
        2.16599        0.293605        0.213058 
        2.17213        0.292434        0.211587 
        2.17827        0.290575         0.21013 
         2.1844        0.289095        0.208688 
        2.19054        0.287272         0.20726 
        2.19666         0.28492        0.205846 
         2.2028        0.283822        0.204445 
        2.20893         0.28248        0.203056 
        2.21508        0.280025        0.201678 
        2.22122        0.278669        0.200312 
        2.22736        0.277289        0.198962 
        2.23349        0.275603        0.197625 
        2.23962        0.274305        0.196299 
        2.24577        0.272095        0.194984 
         2.2519        0.271223        0.193683 
        2.25802        0.269153        0.192396 
        2.26417        0.267754        0.191118 
        2.27031        0.265993        0.189849 
        2.27644        0.264779        0.188596 
        2.28257        0.263105        0.187354 
        2.28872        0.261883        0.186121 
        2.29486        0.260265        0.184899 
        2.30099        0.258992        0.183691 
        2.30712        0.257589        0.182493 
        2.31326         0.25556        0.181304 
         2.3194        0.255501        0.180126 
        2.32553        0.253873         0.17896 
        2.33166        0.252332        0.177805 
         2.3378        0.250932        0.176659 
        2.34394        0.249197        0.175523 
        2.35007         0.24802        0.174398 
        2.35619        0.246355        0.173284 
        2.36233        0.244746        0.172177 
        2.36848        0.243902        0.171078 
        2.37462        0.242276        0.169991 
        2.38075        0.241531        0.168914 
        2.38689        0.239934        0.167845 
        2.39303        0.239233        0.166786 
        2.39916         0.23725        0.165738 
        2.40529        0.236164        0.164698 
        2.41143        0.235044        0.163666 
        2.41757        0.233502        0.162643 
         2.4237        0.232468         0.16163 
        2.42983        0.231117        0.160627 
        2.43598        0.230513        0.159629 
        2.44211        0.229073        0.158641 
        2.44823         0.22826        0.157663 
        2.45437        0.226299        0.156691 
        2.46052        0.225592        0.155727 
        2.46665        0.224305        0.154772 
        2.47279          0.2229        0.153826 
        2.47892        0.221692        0.152887 
        2.48507        0.220668        0.151955 
         2.4912        0.219772        0.151032 
