# k  (h/Mpc)    Pcb(k)  (Mpc/h)^3    Pcb_linear(k)  (Mpc/h)^3
     0.00783031         1383.53         1396.89 
       0.013688         1768.61         1769.61 
       0.019231         1836.71         1836.47 
      0.0249154         1733.24         1744.49 
      0.0312784         1554.74         1557.52 
      0.0375637         1364.79         1362.18 
      0.0433917         1203.96         1207.55 
      0.0492413         1088.49         1088.06 
      0.0555754         987.736         993.834 
      0.0619321         926.329         922.265 
       0.067871         858.735         862.917 
      0.0738098         797.363         801.864 
      0.0800417         725.865         732.521 
      0.0862327         657.542         660.589 
      0.0921407         593.528         594.314 
      0.0982031         531.911         534.053 
       0.104506         486.221         483.248 
       0.110769         447.683         445.202 
       0.116806         417.823         418.177 
       0.122832         398.779         397.182 
       0.129052         376.737         377.919 
       0.135211         356.956         358.209 
       0.141259         337.672          336.84 
       0.147318         316.094         313.679 
       0.153489          290.98         289.717 
       0.159709         269.365         267.063 
       0.165845         252.647         247.664 
       0.171974         234.829          231.88 
       0.178125          222.94         219.456 
       0.184229         213.769          209.68 
        0.19034         202.723         201.312 
       0.196428         196.592         193.321 
       0.202534          189.79         184.919 
       0.208729         179.653         175.739 
       0.214876         169.147         166.184 
       0.220989         161.853         156.724 
       0.227147         151.302         147.786 
        0.23329         143.753         139.868 
       0.239377         137.947         133.166 
       0.245482         130.793         127.505 
       0.251667           127.5         122.588 
       0.257832         122.928         118.158 
       0.263955         118.575         113.908 
       0.270079         114.328         109.602 
        0.27624         111.024         105.146 
       0.282372         106.432         100.653 
        0.28843         101.649         96.2917 
       0.294538         97.4873         92.1233 
       0.300721         94.6564         88.2561 
        0.30691         90.3684         84.7832 
       0.313033         87.4869         81.7197 
       0.319153         83.5593         78.9464 
       0.325316         82.2281         76.3479 
        0.33145         79.3287         73.8593 
       0.337538         77.2379         71.4263 
       0.343633         74.5511         69.0022 
       0.349808         72.3382         66.5735 
       0.355968         70.1133          64.212 
       0.362074         67.7884         61.9732 
       0.368217         65.7785         59.8569 
       0.374374         63.6554         57.8831 
       0.380519         62.0282         56.0578 
       0.386598         60.3723         54.3702 
       0.392688         59.0533           52.77 
        0.39888         57.3456         51.2085 
       0.405048         55.9874         49.6963 
       0.411186         54.6557         48.2259 
       0.417313         52.8326          46.793 
       0.423458         51.5212         45.3973 
       0.429607         50.0877         44.0534 
       0.435692         48.5666         42.7843 
       0.441815         47.7022         41.5697 
       0.447964         46.8819         40.4133 
       0.454126         45.1005          39.312 
       0.460267         44.2701         38.2623 
       0.466387         42.9948         37.2553 
        0.47254         42.3402         36.2763 
       0.478662         41.5588         35.3305 
       0.484765         40.3733         34.4141 
       0.490885         39.4395         33.5234 
       0.497035         38.9256         32.6588 
       0.503198         37.9115         31.8241 
       0.509342         36.9535          31.024 
       0.515458          36.189         30.2594 
       0.521598         35.5713         29.5221 
       0.527764         34.8093         28.8087 
       0.533884         34.2092         28.1247 
           0.54         33.5039          27.463 
       0.546137         32.9404         26.8194 
       0.552299         32.4005         26.1924 
       0.558452         31.4034          25.585 
       0.564573         30.9885         24.9991 
       0.570708         30.4714         24.4305 
       0.576825         29.7054         23.8824 
       0.582926         29.1953         23.3539 
       0.589034         28.4216         22.8417 
       0.595184         28.0534         22.3423 
       0.601379         27.5326         21.8549 
       0.607522         27.0758         21.3862 
       0.613639         26.7949         20.9332 
       0.619772         26.0973          20.492 
       0.625918         25.9512         20.0623 
       0.632068         25.5177         19.6445 
       0.638161         24.9686         19.2423 
         0.6443         24.4729         18.8487 
       0.650464           24.04         18.4651 
       0.656582         23.8823         18.0953 
       0.662703         23.4403         17.7359 
       0.668861         23.0187         17.3845 
       0.675024         22.6059         17.0424 
       0.681124         22.2261         16.7129 
       0.687237         21.8802         16.3916 
       0.693381         21.6656         16.0771 
       0.699536         21.0977         15.7705 
       0.705665         20.9751         15.4733 
       0.711789         20.5786         15.1841 
       0.717957         20.2886         14.9004 
        0.72409         19.9744         14.6257 
       0.730186         19.7142         14.3597 
       0.736317          19.508         14.0989 
       0.742472         19.1897         13.8437 
       0.748622          18.951         13.5952 
        0.75476         18.5899         13.3533 
       0.760888         18.3722         13.1178 
       0.767043          18.157         12.8871 
       0.773185         17.8114         12.6625 
       0.779291          17.706         12.4446 
       0.785407         17.4571         12.2315 
       0.791564         17.1629         12.0222 
       0.797719         16.8463         11.8179 
       0.803834         16.7808         11.6198 
       0.809972         16.6336         11.4255 
       0.816124         16.2582         11.2353 
       0.822261         16.0925           11.05 
       0.828378         15.9041         10.8694 
       0.834502          15.762         10.6928 
       0.840667         15.5277          10.519 
       0.846816         15.2649         10.3496 
       0.852925         15.1291          10.185 
       0.859047         14.9578         10.0237 
       0.865192         14.8316         9.86542 
       0.871341         14.6935         9.71046 
       0.877463         14.4463         9.55957 
       0.883569         14.2458          9.4123 
       0.889708         14.0304          9.2674 
       0.895864         13.9441         9.12521 
       0.902008         13.8159         8.98633 
       0.908149         13.6657         8.85045 
       0.914301         13.5202         8.71719 
       0.920448         13.2928         8.58682 
       0.926574         13.1663          8.4596 
       0.932687         13.0478         8.33525 
       0.938823         12.8719         8.21297 
       0.944975         12.7165         8.09289 
       0.951105         12.6144         7.97567 
       0.957225         12.5269         7.86098 
       0.963368          12.379         7.74819 
       0.969511         12.2623         7.63763 
       0.975621         12.1271         7.52984 
       0.981748         11.9942         7.42388 
       0.987916          11.903          7.3193 
        0.99406          11.727         7.21716 
        1.00019         11.5557         7.11718 
        1.00632          11.548         7.01921 
        1.01246         11.4145         6.92295 
        1.01859         11.2509         6.82868 
        1.02471         11.1798         6.73629 
        1.03085         11.0737         6.64531 
        1.03698          10.917         6.55622 
        1.04314         10.8542          6.4684 
        1.04929         10.7112          6.3824 
        1.05541            10.6         6.29833 
        1.06154         10.5208         6.21558 
        1.06769         10.4744          6.1342 
        1.07382         10.3151         6.05456 
        1.07993         10.2354         5.97652 
        1.08607         10.1569         5.89955 
        1.09222          10.065         5.82387 
        1.09836         9.95853         5.74961 
        1.10449         9.87161         5.67675 
        1.11063         9.78631         5.60508 
        1.11677         9.72703         5.53468 
         1.1229         9.65044         5.46561 
        1.12903         9.54345         5.39768 
        1.13518         9.43565         5.33085 
        1.14131         9.35313          5.2652 
        1.14745         9.26549         5.20069 
        1.15359         9.21257         5.13727 
        1.15973         9.13492         5.07488 
        1.16584         9.00905         5.01381 
        1.17197         8.95159         4.95367 
        1.17811         8.90905         4.89434 
        1.18424         8.83585         4.83616 
        1.19038         8.78911         4.77876 
        1.19652         8.69403         4.72233 
        1.20267         8.59776         4.66681 
        1.20881         8.57567         4.61221 
        1.21495         8.49878         4.55857 
        1.22108         8.40312          4.5058 
         1.2272         8.36112         4.45399 
        1.23334         8.26038         4.40289 
        1.23949         8.19754         4.35248 
        1.24562         8.16358           4.303 
        1.25174         8.08499         4.25437 
        1.25789         8.03204         4.20634 
        1.26402         7.98203         4.15916 
        1.27014         7.91404         4.11281 
        1.27628         7.83597         4.06704 
        1.28244         7.75773         4.02188 
        1.28858         7.74784         3.97748 
        1.29471         7.66319         3.93384 
        1.30084          7.5923         3.89091 
        1.30697         7.59647         3.84856 
        1.31312          7.4621         3.80678 
        1.31925         7.43046         3.76575 
        1.32537         7.37695         3.72537 
        1.33151         7.34899         3.68545 
        1.33765         7.26426         3.64614 
        1.34378         7.21248         3.60748 
        1.34992         7.17617         3.56936 
        1.35606         7.11098         3.53171 
         1.3622         7.07711         3.49467 
        1.36833          7.0236         3.45826 
        1.37445         6.97932         3.42238 
        1.38059         6.95383         3.38691 
        1.38675         6.89404         3.35186 
        1.39288         6.84771         3.31745 
        1.39901         6.77571         3.28354 
        1.40515         6.74479         3.25003 
         1.4113         6.70363           3.217 
        1.41742          6.6594         3.18456 
        1.42355          6.6005         3.15251 
         1.4297         6.55558         3.12081 
        1.43585         6.53356         3.08956 
        1.44198         6.50733         3.05885 
        1.44809         6.43839         3.02863 
        1.45423         6.39244          2.9987 
        1.46036         6.35058         2.96924 
        1.46649         6.30559         2.94016 
        1.47263         6.26007         2.91145 
        1.47877         6.21989         2.88314 
        1.48491         6.18455         2.85516 
        1.49104         6.15092         2.82762 
        1.49718          6.1142         2.80042 
        1.50333         6.07929         2.77354 
        1.50947         6.03482         2.74706 
         1.5156         5.99938         2.72098 
        1.52172         5.96706         2.69523 
        1.52787         5.93305         2.66977 
          1.534          5.8853         2.64467 
        1.54013         5.86414         2.61992 
        1.54627         5.80807         2.59545 
        1.55241         5.77854         2.57128 
        1.55855         5.75675         2.54746 
        1.56467         5.71478         2.52401 
         1.5708         5.68561         2.50079 
        1.57695         5.63584         2.47783 
        1.58308         5.60113         2.45521 
        1.58922         5.58807         2.43285 
        1.59535         5.55562         2.41079 
         1.6015         5.51419         2.38897 
        1.60764         5.47908         2.36743 
        1.61376         5.45232         2.34622 
        1.61989         5.42534         2.32525 
        1.62604         5.38438         2.30449 
        1.63218         5.37261           2.284 
        1.63831         5.33833         2.26381 
        1.64444          5.3081         2.24385 
        1.65059         5.25545         2.22409 
        1.65673         5.24837         2.20459 
        1.66285         5.20056         2.18538 
        1.66898         5.18131         2.16639 
        1.67512         5.14874         2.14759 
        1.68127         5.12174           2.129 
         1.6874         5.10389         2.11067 
        1.69353         5.05869         2.09257 
        1.69967         5.03997         2.07464 
        1.70581         5.01433         2.05693 
        1.71193         4.98887         2.03949 
        1.71806         4.96702         2.02222 
        1.72421         4.93342         2.00512 
        1.73035         4.91718         1.98823 
        1.73649         4.88448         1.97154 
        1.74262         4.85153         1.95506 
        1.74876         4.84148         1.93876 
        1.75489         4.81666         1.92268 
        1.76101         4.77551         1.90678 
        1.76715         4.76185         1.89105 
        1.77329         4.74086         1.87547 
        1.77943         4.69557         1.86007 
        1.78557         4.68956         1.84486 
        1.79171         4.65885         1.82981 
        1.79785         4.63523         1.81494 
        1.80399         4.61015         1.80023 
        1.81012         4.59389         1.78571 
        1.81625         4.56477         1.77135 
        1.82239         4.54338         1.75713 
        1.82853         4.51991         1.74308 
        1.83466         4.50815         1.72919 
        1.84078         4.48215         1.71547 
        1.84692         4.46809         1.70188 
        1.85306         4.42964         1.68842 
         1.8592         4.40613         1.67512 
        1.86533         4.39022         1.66198 
        1.87147         4.37464         1.64896 
        1.87761         4.34797         1.63608 
        1.88375         4.32645         1.62335 
        1.88988         4.30077         1.61077 
        1.89601         4.28802         1.59832 
        1.90215         4.26868         1.58598 
        1.90829         4.24027         1.57379 
        1.91442         4.22745         1.56172 
        1.92056         4.19941         1.54979 
         1.9267         4.18569         1.53798 
        1.93284         4.16762         1.52628 
        1.93897         4.14725         1.51472 
        1.94509         4.11898         1.50331 
        1.95123         4.10177         1.49199 
        1.95737           4.079         1.48078 
        1.96349         4.06815         1.46971 
        1.96964         4.05718         1.45872 
        1.97578         4.02586         1.44785 
        1.98192         4.01523          1.4371 
        1.98805          3.9986         1.42646 
        1.99419         3.97949         1.41594 
        2.00033         3.96711         1.40551 
        2.00647         3.94304         1.39519 
         2.0126         3.93032         1.38499 
        2.01874         3.90015         1.37488 
        2.02488         3.89246         1.36486 
        2.03101         3.86368         1.35496 
        2.03714         3.85229         1.34517 
        2.04328         3.83576         1.33546 
        2.04941         3.80869         1.32586 
        2.05554         3.80177         1.31636 
        2.06167         3.78926         1.30694 
        2.06781         3.77085         1.29761 
        2.07396         3.75922         1.28836 
        2.08009         3.73906         1.27922 
        2.08622         3.71733         1.27018 
        2.09237          3.7108          1.2612 
        2.09851         3.69024         1.25231 
        2.10464         3.67688         1.24353 
        2.11077         3.65818         1.23483 
        2.11691         3.64472         1.22621 
        2.12305         3.63235         1.21766 
        2.12918         3.62306         1.20922 
        2.13531          3.6037         1.20085 
        2.14145         3.58824         1.19255 
         2.1476         3.56642         1.18431 
        2.15372          3.5548          1.1762 
        2.15985         3.54287         1.16815 
        2.16599         3.52728         1.16016 
        2.17213         3.50793         1.15224 
        2.17827         3.49863         1.14441 
         2.1844         3.48203         1.13665 
        2.19054         3.47454         1.12897 
        2.19666         3.45439         1.12136 
         2.2028         3.43897         1.11382 
        2.20893         3.42851         1.10635 
        2.21508         3.40957         1.09894 
        2.22122         3.39776         1.09159 
        2.22736         3.38374         1.08432 
        2.23349         3.37704         1.07712 
        2.23962          3.3578         1.06999 
        2.24577         3.34485         1.06291 
         2.2519         3.33468         1.05591 
        2.25802         3.32178         1.04898 
        2.26417         3.30963          1.0421 
        2.27031         3.29271         1.03527 
        2.27644         3.28368         1.02852 
        2.28257         3.26644         1.02183 
        2.28872         3.25896         1.01519 
        2.29486         3.24263         1.00861 
        2.30099         3.23035          1.0021 
        2.30712         3.21477        0.995649 
        2.31326         3.20504        0.989242 
         2.3194         3.19394        0.982895 
        2.32553         3.17845        0.976614 
        2.33166         3.17235        0.970392 
         2.3378         3.15828        0.964215 
        2.34394         3.14689         0.95809 
        2.35007         3.13258        0.952027 
        2.35619         3.12699        0.946024 
        2.36233         3.11506        0.940059 
        2.36848         3.09749        0.934133 
        2.37462          3.0906        0.928271 
        2.38075         3.07716        0.922465 
        2.38689         3.06782        0.916704 
        2.39303         3.05636        0.910993 
        2.39916         3.04402        0.905337 
        2.40529         3.03288         0.89973 
        2.41143         3.02214        0.894166 
        2.41757         3.00994        0.888647 
         2.4237         3.00147        0.883185 
        2.42983          2.9776         0.87777 
        2.43598         2.98392        0.872385 
        2.44211         2.96346        0.867055 
        2.44823         2.95912        0.861782 
        2.45437         2.94331        0.856538 
        2.46052         2.93689        0.851334 
        2.46665         2.92729        0.846182 
        2.47279         2.91512        0.841074 
        2.47892         2.90665        0.836006 
        2.48507         2.89671        0.830974 
         2.4912         2.87861        0.825994 
