# k  (h/Mpc)    P(k)  (Mpc/h)^3    P_linear(k)  (Mpc/h)^3
     0.00783031         189.306         190.978 
       0.013688         226.392          228.13 
       0.019231         221.759         222.252 
      0.0249154         196.062         195.975 
      0.0312784         160.334         160.022 
      0.0375637          129.25         128.989 
      0.0433917         108.529         108.087 
      0.0492413         94.7463         94.5065 
      0.0555754         86.1523         85.8251 
      0.0619321         80.1601         80.2855 
       0.067871          75.505         75.4787 
      0.0738098         69.6033         69.5789 
      0.0800417         62.0446         61.9405 
      0.0862327         53.7451         53.6672 
      0.0921407         46.3299         46.2473 
      0.0982031          40.196         40.0177 
       0.104506          35.493         35.4361 
       0.110769         32.7074         32.6533 
       0.116806         31.2477         31.1488 
       0.122832         30.1815         30.1733 
       0.129052         29.1358         29.0994 
       0.135211         27.6198         27.5623 
       0.141259         25.5289         25.5124 
       0.147318          23.112           23.12 
       0.153489         20.7201         20.6811 
       0.159709         18.6161         18.5509 
       0.165845         16.9624         16.9578 
       0.171974         15.9718         15.8915 
       0.178125         15.2932         15.2379 
       0.184229         14.8383         14.8179 
        0.19034          14.483         14.4283 
       0.196428         13.9533           13.92 
       0.202534         13.2039         13.2243 
       0.208729         12.3871         12.3574 
       0.214876         11.4947         11.4329 
       0.220989         10.5819         10.5621 
       0.227147         9.88964         9.82112 
        0.23329          9.3278         9.25667 
       0.239377         8.92991         8.85944 
       0.245482         8.64061         8.57633 
       0.251667          8.3765         8.34171 
       0.257832          8.1582         8.09902 
       0.263955         7.84577         7.80932 
       0.270079         7.49612         7.46081 
        0.27624         7.09205         7.06985 
       0.282372         6.70117         6.67335 
        0.28843         6.36465         6.30911 
       0.294538         6.04487         5.99315 
       0.300721          5.7688         5.73469 
        0.30691         5.58358         5.53089 
       0.313033         5.41126         5.36519 
       0.319153         5.28331          5.2142 
       0.325316         5.08896         5.05797 
        0.33145         4.91777         4.88771 
       0.337538         4.73937         4.70292 
       0.343633         4.55584         4.50901 
       0.349808         4.35529         4.31479 
       0.355968         4.17077         4.13361 
       0.362074         4.02354         3.97443 
       0.368217         3.88131         3.83573 
       0.374374         3.77363         3.71615 
       0.380519         3.65212         3.60963 
       0.386598         3.54558         3.50972 
       0.392688          3.4397         3.40998 
        0.39888         3.34238         3.30506 
       0.405048         3.23688         3.19724 
       0.411186         3.12638         3.08919 
       0.417313         3.02239          2.9836 
       0.423458         2.91473         2.88358 
       0.429607         2.83398          2.7918 
       0.435692         2.75291         2.70903 
       0.441815         2.67144         2.63309 
       0.447964         2.59172         2.56236 
       0.454126         2.53248         2.49443 
       0.460267         2.47091         2.42769 
       0.466387         2.40165         2.36155 
        0.47254         2.33802         2.29516 
       0.478662         2.26917         2.22966 
       0.484765         2.20788         2.16618 
       0.490885         2.14194          2.1055 
       0.497035         2.07876         2.04797 
       0.503198         2.03141         1.99373 
       0.509342         1.97415         1.94289 
       0.515458         1.93068         1.89496 
       0.521598         1.88501         1.84865 
       0.527764         1.84463          1.8032 
       0.533884         1.78968         1.75881 
           0.54         1.74957         1.71532 
       0.546137         1.70301          1.6727 
       0.552299         1.66381         1.63111 
       0.558452         1.62338         1.59099 
       0.564573         1.58547         1.55268 
       0.570708         1.54908         1.51603 
       0.576825         1.51446         1.48116 
       0.582926         1.47736         1.44775 
       0.589034         1.44967         1.41537 
       0.595184         1.41944         1.38359 
       0.601379         1.38464         1.35234 
       0.607522         1.35256         1.32215 
       0.613639         1.32043          1.2929 
       0.619772         1.29619         1.26443 
       0.625918         1.26794         1.23676 
       0.632068         1.24098         1.20995 
       0.638161         1.21431         1.18423 
         0.6443         1.18837         1.15916 
       0.650464         1.16517         1.13482 
       0.656582         1.14349         1.11144 
       0.662703         1.11942         1.08874 
       0.668861         1.09282         1.06653 
       0.675024         1.07277         1.04488 
       0.681124         1.05826         1.02398 
       0.687237         1.03353         1.00356 
       0.693381         1.00966        0.983573 
       0.699536        0.994802        0.964092 
       0.705665        0.975554        0.945244 
       0.711789        0.953346        0.926961 
       0.717957        0.936666        0.909081 
        0.72409         0.91903        0.891804 
       0.730186         0.90529        0.875101 
       0.736317        0.885174        0.858743 
       0.742472        0.871489         0.84274 
       0.748622        0.856241        0.827145 
        0.75476        0.838529        0.811963 
       0.760888        0.826006        0.797173 
       0.767043        0.804849        0.782687 
       0.773185        0.793875        0.768588 
       0.779291        0.783356        0.754919 
       0.785407        0.768258        0.741568 
       0.791564         0.75407        0.728465 
       0.797719        0.741131        0.715693 
       0.803834        0.728359        0.703317 
       0.809972        0.716431        0.691195 
       0.816124        0.704182        0.679337 
       0.822261        0.693219        0.667793 
       0.828378        0.681001        0.656554 
       0.834502        0.669609        0.645566 
       0.840667        0.659945        0.634758 
       0.846816        0.648689        0.624229 
       0.852925        0.637094        0.614006 
       0.859047        0.627111        0.603991 
       0.865192        0.617678        0.594168 
       0.871341        0.608778        0.584558 
       0.877463        0.597371        0.575205 
       0.883569        0.588576        0.566082 
       0.889708        0.580463        0.557111 
       0.895864        0.571532        0.548313 
       0.902008        0.561498        0.539725 
       0.908149        0.554068        0.531327 
       0.914301        0.546711        0.523096 
       0.920448        0.538514        0.515048 
       0.926574        0.531313        0.507198 
       0.932687        0.523079         0.49953 
       0.938823        0.513541        0.491994 
       0.944975        0.507202        0.484597 
       0.951105        0.498089         0.47738 
       0.957225        0.491148        0.470323 
       0.963368        0.485459        0.463386 
       0.969511        0.478915        0.456589 
       0.975621        0.470974        0.449966 
       0.981748        0.462825        0.443458 
       0.987916         0.45722        0.437039 
        0.99406        0.451936        0.430772 
        1.00019        0.445078         0.42464 
        1.00632         0.44028        0.418634 
        1.01246        0.433884        0.412736 
        1.01859        0.428028        0.406962 
        1.02471        0.421078        0.401306 
        1.03085        0.414916        0.395738 
        1.03698        0.410477        0.390289 
        1.04314        0.404754        0.384919 
        1.04929        0.400538        0.379664 
        1.05541        0.393575        0.374528 
        1.06154        0.389272        0.369476 
        1.06769        0.384452        0.364509 
        1.07382        0.379326         0.35965 
        1.07993        0.374704        0.354892 
        1.08607        0.369532          0.3502 
        1.09222        0.364639        0.345589 
        1.09836        0.360375        0.341067 
        1.10449        0.355201        0.336631 
        1.11063        0.350615        0.332269 
        1.11677         0.34717        0.327987 
         1.1229        0.341687        0.323788 
        1.12903        0.338281         0.31966 
        1.13518        0.333762          0.3156 
        1.14131            0.33        0.311614 
        1.14745        0.327167        0.307699 
        1.15359        0.322093         0.30385 
        1.15973         0.31875        0.300067 
        1.16584        0.314448        0.296365 
        1.17197        0.310249         0.29272 
        1.17811        0.306453        0.289126 
        1.18424        0.303064        0.285603 
        1.19038        0.299001        0.282129 
        1.19652        0.296639        0.278714 
        1.20267        0.293186        0.275356 
        1.20881        0.288435        0.272054 
        1.21495        0.285749        0.268812 
        1.22108        0.282821        0.265624 
         1.2272        0.278928        0.262494 
        1.23334        0.275932        0.259409 
        1.23949        0.273489        0.256365 
        1.24562        0.270139        0.253379 
        1.25174          0.2673        0.250446 
        1.25789        0.263332        0.247549 
        1.26402        0.261315        0.244704 
        1.27014        0.257588        0.241911 
        1.27628         0.25537        0.239153 
        1.28244        0.252541        0.236433 
        1.28858         0.24936         0.23376 
        1.29471        0.246848        0.231133 
        1.30084         0.24407         0.22855 
        1.30697        0.242123        0.226002 
        1.31312        0.239415        0.223489 
        1.31925        0.236697        0.221023 
        1.32537        0.234159        0.218597 
        1.33151        0.231661        0.216198 
        1.33765        0.229014        0.213837 
        1.34378        0.226372        0.211516 
        1.34992         0.22489        0.209228 
        1.35606        0.221996        0.206969 
         1.3622        0.219909        0.204748 
        1.36833        0.218046        0.202565 
        1.37445        0.215856        0.200414 
        1.38059        0.213493        0.198289 
        1.38675        0.210924        0.196189 
        1.39288        0.208407        0.194128 
        1.39901        0.207101        0.192098 
        1.40515         0.20474        0.190092 
         1.4113        0.203106        0.188116 
        1.41742        0.201116        0.186175 
        1.42355        0.198133        0.184259 
         1.4297        0.197159        0.182363 
        1.43585        0.194768        0.180496 
        1.44198        0.193147        0.178661 
        1.44809        0.191067        0.176856 
        1.45423        0.189199        0.175068 
        1.46036         0.18738        0.173309 
        1.46649        0.185621        0.171574 
        1.47263         0.18321        0.169861 
        1.47877        0.182622        0.168172 
        1.48491        0.179907        0.166503 
        1.49104        0.179291        0.164861 
        1.49718        0.176992         0.16324 
        1.50333        0.175525        0.161638 
        1.50947        0.173995         0.16006 
         1.5156         0.17219        0.158507 
        1.52172        0.170787        0.156974 
        1.52787        0.168672        0.155458 
          1.534        0.167544        0.153964 
        1.54013        0.165886        0.152491 
        1.54627        0.164581        0.151035 
        1.55241         0.16305        0.149598 
        1.55855        0.161525        0.148181 
        1.56467        0.160179        0.146787 
         1.5708        0.158658        0.145407 
        1.57695        0.157258        0.144042 
        1.58308        0.155378        0.142699 
        1.58922        0.154497        0.141371 
        1.59535        0.152889        0.140061 
         1.6015         0.15184        0.138766 
        1.60764        0.150224        0.137487 
        1.61376        0.148992        0.136229 
        1.61989        0.147593        0.134985 
        1.62604        0.146363        0.133754 
        1.63218        0.145294        0.132539 
        1.63831        0.143889        0.131342 
        1.64444        0.142736         0.13016 
        1.65059        0.141219        0.128989 
        1.65673        0.140217        0.127834 
        1.66285        0.139266        0.126696 
        1.66898        0.137787        0.125572 
        1.67512        0.136611        0.124459 
        1.68127        0.135437        0.123359 
         1.6874        0.134492        0.122274 
        1.69353        0.133239        0.121204 
        1.69967        0.131864        0.120143 
        1.70581        0.131264        0.119096 
        1.71193        0.130282        0.118065 
        1.71806        0.128946        0.117045 
        1.72421        0.127788        0.116034 
        1.73035        0.126849        0.115036 
        1.73649        0.125849        0.114051 
        1.74262         0.12473        0.113078 
        1.74876        0.124034        0.112115 
        1.75489        0.122893        0.111166 
        1.76101        0.121923        0.110228 
        1.76715        0.120984        0.109299 
        1.77329        0.119858         0.10838 
        1.77943        0.118805        0.107472 
        1.78557         0.11824        0.106575 
        1.79171        0.117262        0.105688 
        1.79785        0.116132        0.104811 
        1.80399         0.11507        0.103944 
        1.81012        0.114469        0.103088 
        1.81625        0.113597        0.102243 
        1.82239        0.112899        0.101405 
        1.82853        0.111753        0.100577 
        1.83466        0.110913       0.0997597 
        1.84078        0.110111        0.098952 
        1.84692        0.109278        0.098152 
        1.85306        0.108482       0.0973598 
         1.8592        0.107695       0.0965776 
        1.86533        0.106951       0.0958045 
        1.87147        0.106015        0.095039 
        1.87761        0.105148       0.0942815 
        1.88375        0.104307       0.0935331 
        1.88988        0.103624       0.0927937 
        1.89601        0.102642       0.0920619 
        1.90215        0.101997       0.0913375 
        1.90829        0.101118       0.0906211 
        1.91442        0.100663       0.0899124 
        1.92056       0.0999011        0.089212 
         1.9267        0.099135       0.0885182 
        1.93284       0.0982228       0.0878315 
        1.93897       0.0975604       0.0871533 
        1.94509       0.0969195       0.0864838 
        1.95123       0.0962024       0.0858196 
        1.95737       0.0956577       0.0851619 
        1.96349       0.0949333       0.0845128 
        1.96964       0.0940845       0.0838686 
        1.97578       0.0935055       0.0832309 
        1.98192       0.0929281       0.0826011 
        1.98805       0.0923095       0.0819777 
        1.99419       0.0917109       0.0813608 
        2.00033       0.0908767       0.0807499 
        2.00647       0.0902993       0.0801455 
         2.0126       0.0897971       0.0795482 
        2.01874       0.0890695       0.0789562 
        2.02488       0.0884719       0.0783697 
        2.03101       0.0877747       0.0777902 
        2.03714       0.0875762       0.0772171 
        2.04328       0.0865024       0.0766492 
        2.04941       0.0861464       0.0760874 
        2.05554       0.0855997       0.0755317 
        2.06167       0.0849321       0.0749808 
        2.06781       0.0842386       0.0744353 
        2.07396       0.0837164       0.0738945 
        2.08009       0.0831682       0.0733599 
        2.08622       0.0827179       0.0728313 
        2.09237       0.0820602       0.0723068 
        2.09851        0.081514       0.0717875 
        2.10464       0.0810079       0.0712741 
        2.11077        0.080411       0.0707663 
        2.11691       0.0800499       0.0702624 
        2.12305       0.0792223       0.0697633 
        2.12918       0.0787946       0.0692703 
        2.13531       0.0783164       0.0687821 
        2.14145        0.077831       0.0682974 
         2.1476       0.0773992       0.0678168 
        2.15372       0.0768726       0.0673433 
        2.15985        0.076328       0.0668738 
        2.16599       0.0756992       0.0664075 
        2.17213       0.0754268       0.0659461 
        2.17827        0.074903       0.0654892 
         2.1844       0.0743473       0.0650371 
        2.19054       0.0739629       0.0645891 
        2.19666       0.0735142       0.0641459 
         2.2028       0.0728006       0.0637065 
        2.20893        0.072573        0.063271 
        2.21508       0.0720289       0.0628391 
        2.22122       0.0715682        0.062411 
        2.22736       0.0711227       0.0619879 
        2.23349       0.0707056       0.0615688 
        2.23962       0.0703089       0.0611533 
        2.24577       0.0698929       0.0607413 
         2.2519       0.0693512       0.0603336 
        2.25802       0.0689674       0.0599304 
        2.26417       0.0686093       0.0595297 
        2.27031       0.0681001       0.0591324 
        2.27644       0.0678953       0.0587398 
        2.28257       0.0672842       0.0583508 
        2.28872       0.0669075       0.0579646 
        2.29486       0.0665783       0.0575819 
        2.30099       0.0660948       0.0572036 
        2.30712       0.0657746       0.0568284 
        2.31326        0.065246        0.056456 
         2.3194       0.0649121       0.0560871 
        2.32553       0.0646001       0.0557222 
        2.33166       0.0640843       0.0553606 
         2.3378       0.0637384       0.0550018 
        2.34394       0.0634172        0.054646 
        2.35007        0.063058       0.0542939 
        2.35619        0.062815       0.0539454 
        2.36233       0.0622888        0.053599 
        2.36848       0.0619052        0.053255 
        2.37462       0.0616361       0.0529148 
        2.38075       0.0612556       0.0525778 
        2.38689       0.0609546       0.0522435 
        2.39303       0.0606316       0.0519121 
        2.39916       0.0601568        0.051584 
        2.40529       0.0597945       0.0512587 
        2.41143       0.0593964       0.0509361 
        2.41757       0.0591511        0.050616 
         2.4237       0.0587998       0.0502993 
        2.42983       0.0584963       0.0499853 
        2.43598       0.0581398       0.0496732 
        2.44211        0.057716       0.0493642 
        2.44823       0.0574978       0.0490586 
        2.45437       0.0571612       0.0487547 
        2.46052       0.0568475       0.0484532 
        2.46665       0.0565266       0.0481547 
        2.47279       0.0562497       0.0478589 
        2.47892       0.0560526       0.0475653 
        2.48507       0.0555798        0.047274 
         2.4912        0.055346       0.0469856 
