# k  (h/Mpc)    P(k)  (Mpc/h)^3    P_linear(k)  (Mpc/h)^3
     0.00783031         10793.7         10962.4 
       0.013688         14023.3           13943 
       0.019231         14556.4         14563.6 
      0.0249154         13639.8           13921 
      0.0312784         12362.1         12514.7 
      0.0375637         10984.4         11027.1 
      0.0433917         9646.84         9849.88 
      0.0492413         8837.85         8942.25 
      0.0555754         7950.31         8221.82 
      0.0619321         7618.45         7658.05 
       0.067871         6942.79          7169.1 
      0.0738098          6435.7         6651.18 
      0.0800417         5797.39         6060.77 
      0.0862327         5285.11         5457.37 
      0.0921407         4835.06         4914.48 
      0.0982031         4345.25         4434.14 
       0.104506         4075.82          4040.3 
       0.110769         3778.87         3751.17 
       0.116806          3550.1         3544.52 
       0.122832          3392.3         3375.86 
       0.129052          3160.5         3208.73 
       0.135211         2997.34         3028.73 
       0.141259         2859.37         2832.76 
       0.147318         2688.93         2625.83 
       0.153489         2467.18         2420.37 
       0.159709         2331.51         2235.12 
       0.165845         2240.89          2083.7 
       0.171974         2112.83         1964.99 
       0.178125         2014.14         1872.57 
       0.184229         1937.38         1797.11 
        0.19034         1825.62          1726.9 
       0.196428         1793.35         1654.01 
       0.202534         1728.87         1574.26 
       0.208729         1647.43          1487.7 
       0.214876         1570.43          1400.8 
       0.220989         1520.09         1319.02 
       0.227147         1447.58         1245.86 
        0.23329          1392.2         1184.17 
       0.239377         1370.14         1133.62 
       0.245482          1284.8         1090.86 
       0.251667         1277.67         1052.01 
       0.257832         1230.07         1014.36 
       0.263955         1190.62         975.785 
       0.270079         1150.79         935.393 
        0.27624         1138.52         893.799 
       0.282372         1089.52         853.054 
        0.28843         1077.06         815.206 
       0.294538          1024.4         780.669 
       0.300721         1020.93         749.886 
        0.30691         977.628          722.85 
       0.313033         959.743         698.832 
       0.319153         940.103         676.356 
       0.325316         910.165         654.234 
        0.33145         888.467         632.106 
       0.337538         876.518         609.947 
       0.343633         852.956         587.857 
       0.349808         825.181         566.143 
       0.355968         820.469          545.64 
       0.362074         809.398         526.857 
       0.368217         786.271         509.541 
       0.374374         755.082         493.629 
       0.380519         753.774          478.84 
       0.386598         735.499         464.882 
       0.392688         733.106          451.29 
        0.39888         711.659         437.658 
       0.405048         700.665         424.247 
       0.411186             690         411.185 
       0.417313         676.626         398.564 
       0.423458         665.863         386.484 
       0.429607         654.779         375.091 
       0.435692         640.641         364.483 
       0.441815         636.807          354.42 
       0.447964         623.357         344.832 
       0.454126          612.01         335.603 
       0.460267         601.278          326.67 
       0.466387         594.866         317.991 
        0.47254          585.15         309.473 
       0.478662         583.246         301.213 
       0.484765         566.252         293.244 
       0.490885         561.794         285.568 
       0.497035         551.185          278.19 
       0.503198         545.077         271.121 
       0.509342         540.301         264.379 
       0.515458         536.251         257.941 
       0.521598         524.519         251.706 
       0.527764         514.006         245.631 
       0.533884         512.882         239.762 
           0.54         506.247         234.061 
       0.546137         504.168         228.507 
       0.552299         494.975         223.102 
       0.558452         492.553         217.883 
       0.564573         484.942         212.868 
       0.570708         478.628         208.023 
       0.576825         467.609         203.367 
       0.582926         467.461         198.879 
       0.589034           463.3         194.525 
       0.595184         458.914         190.266 
       0.601379          453.49         186.095 
       0.607522         446.903         182.076 
       0.613639         446.072         178.189 
       0.619772         434.668         174.405 
       0.625918         433.902         170.726 
       0.632068         427.768         167.153 
       0.638161         426.228         163.717 
         0.6443         418.327         160.358 
       0.650464          415.94         157.086 
       0.656582         414.573         153.932 
       0.662703         411.757         150.866 
       0.668861         404.463         147.866 
       0.675024         401.163         144.944 
       0.681124          398.87         142.128 
       0.687237         394.954          139.38 
       0.693381         389.835          136.69 
       0.699536         385.619         134.067 
       0.705665         383.525         131.526 
       0.711789         380.514         129.055 
       0.717957         377.392         126.633 
        0.72409         374.242         124.288 
       0.730186          370.38         122.018 
       0.736317         367.075         119.793 
       0.742472         365.795         117.615 
       0.748622         361.766         115.493 
        0.75476         358.174         113.428 
       0.760888         354.155         111.416 
       0.767043         354.701         109.445 
       0.773185          349.89         107.525 
       0.779291         345.028         105.664 
       0.785407         343.851         103.843 
       0.791564         340.012         102.055 
       0.797719          337.72         100.311 
       0.803834         335.263         98.6189 
       0.809972         333.497         96.9602 
       0.816124         333.498         95.3365 
       0.822261         328.029         93.7547 
       0.828378         326.257         92.2138 
       0.834502         324.571         90.7064 
       0.840667         320.382         89.2232 
       0.846816         319.077         87.7775 
       0.852925         316.713         86.3731 
       0.859047         315.211         84.9967 
       0.865192         312.101          83.646 
       0.871341           309.6          82.324 
       0.877463         307.725         81.0367 
       0.883569         306.102         79.7804 
       0.889708         303.376         78.5445 
       0.895864         299.946         77.3318 
       0.902008         299.179         76.1474 
       0.908149         297.558         74.9887 
       0.914301          293.93         73.8524 
       0.920448         291.865         72.7408 
       0.926574         289.539         71.6562 
       0.932687         289.884         70.5961 
       0.938823         286.286         69.5538 
       0.944975         285.254         68.5302 
       0.951105         283.134          67.531 
       0.957225         280.849         66.5536 
       0.963368         277.553         65.5923 
       0.969511         276.349           64.65 
       0.975621         274.016         63.7314 
       0.981748         274.355         62.8284 
       0.987916         271.545         61.9373 
        0.99406         268.115          61.067 
        1.00019         268.301         60.2151 
        1.00632         266.227         59.3803 
        1.01246         264.039         58.5602 
        1.01859         264.051          57.757 
        1.02471         260.725         56.9699 
        1.03085         258.263         56.1948 
        1.03698         257.517         55.4359 
        1.04314         255.295         54.6878 
        1.04929         253.521         53.9554 
        1.05541         253.383         53.2394 
        1.06154         250.279         52.5347 
        1.06769         249.737         51.8417 
        1.07382         248.132         51.1636 
        1.07993          246.07         50.4992 
        1.08607         245.342          49.844 
        1.09222         243.674         49.1997 
        1.09836         241.554         48.5677 
        1.10449         239.285         47.9475 
        1.11063         237.416         47.3376 
        1.11677         237.211         46.7386 
         1.1229         235.435          46.151 
        1.12903         233.928          45.573 
        1.13518         232.608         45.0045 
        1.14131         230.861         44.4461 
        1.14745         230.504         43.8974 
        1.15359         228.402          43.358 
        1.15973         227.542         42.8275 
        1.16584         225.187         42.3082 
        1.17197          224.86         41.7969 
        1.17811          222.97         41.2925 
        1.18424         221.678         40.7979 
        1.19038         220.919         40.3099 
        1.19652         219.343         39.8302 
        1.20267         218.653         39.3584 
        1.20881         216.575         38.8942 
        1.21495         215.432         38.4384 
        1.22108         214.491         37.9899 
         1.2272         212.717         37.5497 
        1.23334         211.685         37.1154 
        1.23949         210.414          36.687 
        1.24562         209.437         36.2666 
        1.25174          207.05         35.8534 
        1.25789         206.021         35.4453 
        1.26402         205.126         35.0444 
        1.27014         203.735         34.6507 
        1.27628         202.747         34.2619 
        1.28244         202.387         33.8783 
        1.28858         200.424         33.5011 
        1.29471         198.626         33.1305 
        1.30084         197.945         32.7659 
        1.30697         196.623         32.4063 
        1.31312         195.464         32.0515 
        1.31925         194.871         31.7032 
        1.32537         193.643         31.3605 
        1.33151         191.915         31.0215 
        1.33765         191.102         30.6879 
        1.34378         190.103         30.3598 
        1.34992         189.194         30.0362 
        1.35606         188.673         29.7168 
         1.3622         187.178         29.4025 
        1.36833         185.479         29.0936 
        1.37445         184.393         28.7892 
        1.38059         183.495         28.4883 
        1.38675         182.561          28.191 
        1.39288         181.534         27.8992 
        1.39901          181.39         27.6116 
        1.40515         179.665         27.3274 
         1.4113         178.191         27.0474 
        1.41742         177.572         26.7723 
        1.42355          176.17         26.5006 
         1.4297         175.368         26.2318 
        1.43585         173.956         25.9668 
        1.44198         173.432         25.7066 
        1.44809         172.585         25.4504 
        1.45423         171.238         25.1967 
        1.46036         170.547          24.947 
        1.46649         169.439         24.7006 
        1.47263         168.517         24.4573 
        1.47877         167.723         24.2174 
        1.48491         166.144         23.9803 
        1.49104         165.924         23.7469 
        1.49718         164.048         23.5165 
        1.50333         163.606         23.2887 
        1.50947         162.964         23.0645 
         1.5156         161.703         22.8435 
        1.52172         160.783         22.6255 
        1.52787         159.753         22.4098 
          1.534         159.196         22.1973 
        1.54013         157.887         21.9877 
        1.54627         157.363         21.7804 
        1.55241         156.176         21.5758 
        1.55855         155.439         21.3741 
        1.56467         154.625         21.1756 
         1.5708         153.719          20.979 
        1.57695         152.781         20.7846 
        1.58308         152.218         20.5931 
        1.58922          151.34          20.404 
        1.59535         150.141         20.2172 
         1.6015         149.755         20.0326 
        1.60764         148.732         19.8503 
        1.61376         147.953         19.6709 
        1.61989         146.937         19.4935 
        1.62604         146.325         19.3179 
        1.63218         145.513         19.1445 
        1.63831         144.508         18.9738 
        1.64444         144.068          18.805 
        1.65059         143.291         18.6378 
        1.65673         142.009         18.4729 
        1.66285         141.805         18.3105 
        1.66898         140.866         18.1499 
        1.67512         140.277          17.991 
        1.68127         139.091         17.8338 
         1.6874         137.895         17.6789 
        1.69353         137.733         17.5259 
        1.69967         136.925         17.3743 
        1.70581          136.13         17.2246 
        1.71193         135.348         17.0772 
        1.71806          134.74         16.9313 
        1.72421         133.938         16.7867 
        1.73035         133.422          16.644 
        1.73649         132.631          16.503 
        1.74262         131.797         16.3638 
        1.74876         131.367         16.2261 
        1.75489         130.076         16.0902 
        1.76101         129.674          15.956 
        1.76715         128.765          15.823 
        1.77329         128.554         15.6915 
        1.77943         127.422         15.5614 
        1.78557         126.776         15.4329 
        1.79171         126.104         15.3059 
        1.79785          125.38         15.1803 
        1.80399         124.729         15.0561 
        1.81012         124.107         14.9335 
        1.81625         123.338         14.8123 
        1.82239         123.024         14.6922 
        1.82853         122.391         14.5736 
        1.83466          121.46         14.4564 
        1.84078         121.036         14.3406 
        1.84692         120.074         14.2258 
        1.85306         119.574         14.1122 
         1.8592         118.738         14.0001 
        1.86533         118.084         13.8892 
        1.87147         117.336         13.7793 
        1.87761         117.032         13.6706 
        1.88375         115.976         13.5632 
        1.88988         115.465         13.4571 
        1.89601          114.79         13.3521 
        1.90215         114.386         13.2481 
        1.90829         113.696         13.1452 
        1.91442         113.252         13.0435 
        1.92056         112.526         12.9429 
         1.9267         112.054         12.8433 
        1.93284         111.437         12.7446 
        1.93897         110.734         12.6472 
        1.94509         110.384          12.551 
        1.95123         109.699         12.4555 
        1.95737         109.137          12.361 
        1.96349         108.495         12.2677 
        1.96964         107.646         12.1751 
        1.97578         107.298         12.0835 
        1.98192         106.799         11.9929 
        1.98805         105.838         11.9033 
        1.99419         105.545         11.8146 
        2.00033         105.049         11.7267 
        2.00647         104.434         11.6398 
         2.0126          103.86         11.5538 
        2.01874         103.235         11.4687 
        2.02488         102.769         11.3843 
        2.03101         102.148         11.3009 
        2.03714          101.58         11.2184 
        2.04328         101.125         11.1367 
        2.04941         100.525         11.0558 
        2.05554         99.9577         10.9758 
        2.06167         99.4941         10.8965 
        2.06781         99.0531         10.8179 
        2.07396         98.3526         10.7401 
        2.08009         97.8439         10.6631 
        2.08622          97.532         10.5869 
        2.09237          96.744         10.5114 
        2.09851         96.5043         10.4366 
        2.10464         95.7729         10.3626 
        2.11077         95.4729         10.2894 
        2.11691         95.0373         10.2168 
        2.12305         94.3366         10.1449 
        2.12918          93.782         10.0739 
        2.13531         93.5254         10.0035 
        2.14145         92.5906         9.93361 
         2.1476         92.3378         9.86432 
        2.15372         91.9024         9.79605 
        2.15985         91.4289         9.72835 
        2.16599         91.0602          9.6611 
        2.17213         90.3719         9.59456 
        2.17827         90.0865         9.52866 
         2.1844          89.438         9.46344 
        2.19054         89.2477          9.3988 
        2.19666         88.6257         9.33487 
         2.2028         88.3478         9.27146 
        2.20893         87.6632         9.20862 
        2.21508         87.1219         9.14629 
        2.22122         86.8416         9.08451 
        2.22736         86.3152         9.02343 
        2.23349         86.0396         8.96293 
        2.23962         85.4118         8.90295 
        2.24577         84.9897         8.84347 
         2.2519          84.762         8.78461 
        2.25802         84.0762         8.72638 
        2.26417         83.6467         8.66852 
        2.27031         83.2917         8.61113 
        2.27644         82.8736         8.55443 
        2.28257         82.2754         8.49824 
        2.28872         81.9204         8.44245 
        2.29486         81.5441         8.38717 
        2.30099         81.0685         8.33249 
        2.30712         80.7213         8.27829 
        2.31326         80.3724         8.22447 
         2.3194         79.8998         8.17116 
        2.32553         79.4579         8.11842 
        2.33166         78.9669         8.06616 
         2.3378         78.5937         8.01429 
        2.34394         78.2902         7.96286 
        2.35007         77.7198         7.91195 
        2.35619         77.3042         7.86155 
        2.36233         76.9743         7.81147 
        2.36848         76.6038         7.76172 
        2.37462         76.2066         7.71251 
        2.38075         75.9739         7.66378 
        2.38689         75.4125         7.61542 
        2.39303         75.1237         7.56749 
        2.39916         74.6888         7.52002 
        2.40529         74.4341         7.47296 
        2.41143         73.9302         7.42627 
        2.41757         73.6545         7.37996 
         2.4237          73.332         7.33412 
        2.42983         72.8358         7.28869 
        2.43598         72.5321         7.24351 
        2.44211         72.1398         7.19879 
        2.44823         71.8063         7.15456 
        2.45437         71.3519         7.11057 
        2.46052         70.9654         7.06691 
        2.46665         70.6633          7.0237 
        2.47279         70.2831         6.98086 
        2.47892         69.9574         6.93835 
        2.48507         69.5016         6.89616 
         2.4912         69.2695          6.8544 
