# k  (h/Mpc)    Pcb(k)  (Mpc/h)^3    Pcb_linear(k)  (Mpc/h)^3
     0.00783031         15214.3         15436.9 
       0.013688         19516.2         19345.1 
       0.019231         19831.2         19814.7 
      0.0249154         18125.7         18543.7 
      0.0312784         16081.6         16303.1 
      0.0375637         14064.4         14113.4 
      0.0433917         12190.3         12472.1 
      0.0492413         11123.6         11261.9 
      0.0555754         9944.67         10332.8 
      0.0619321         9551.89         9606.49 
       0.067871          8635.3         8956.38 
      0.0738098         7957.06         8249.33 
      0.0800417         7094.51         7441.29 
      0.0862327          6423.5         6630.89 
      0.0921407         5860.44         5924.38 
      0.0982031         5249.75         5323.18 
       0.104506         4944.17         4851.35 
       0.110769         4593.42         4518.02 
       0.116806         4333.35         4281.74 
       0.122832         4132.14         4080.29 
       0.129052         3831.54         3866.37 
       0.135211         3620.57         3626.65 
       0.141259         3449.93         3366.09 
       0.147318         3239.15          3098.4 
       0.153489         2965.05         2843.17 
       0.159709         2806.87         2623.45 
       0.165845         2710.57         2451.68 
       0.171974         2566.36          2321.1 
       0.178125         2447.73         2219.13 
       0.184229         2346.09          2131.5 
        0.19034         2221.52          2043.9 
       0.196428         2174.67         1948.88 
       0.202534         2088.06         1844.75 
       0.208729         1992.89         1734.81 
       0.214876         1910.84         1628.91 
       0.220989         1846.74         1533.51 
       0.227147         1770.26         1451.38 
        0.23329         1703.64         1383.77 
       0.239377         1680.13         1328.17 
       0.245482         1578.14         1279.41 
       0.251667         1570.66         1232.58 
       0.257832         1509.43         1185.17 
       0.263955         1459.94         1135.99 
       0.270079         1411.22         1085.37 
        0.27624         1395.42          1034.9 
       0.282372         1337.46         987.291 
        0.28843          1331.6         944.486 
       0.294538          1266.8         906.212 
       0.300721         1260.31         872.183 
        0.30691          1212.1          841.67 
       0.313033          1188.8         813.613 
       0.319153         1170.62         786.404 
       0.325316          1132.2         759.124 
        0.33145         1107.67         731.868 
       0.337538          1089.1         705.079 
       0.343633         1065.58         679.055 
       0.349808         1030.81         654.126 
       0.355968         1024.03         631.043 
       0.362074         1014.56         610.018 
       0.368217         983.159         590.532 
       0.374374         947.085         572.267 
       0.380519         949.266         554.914 
       0.386598         923.272         538.247 
       0.392688         920.076         521.878 
        0.39888         894.105         505.565 
       0.405048         883.371         489.724 
       0.411186         871.306         474.545 
       0.417313          853.22         460.115 
       0.423458         839.146         446.418 
       0.429607         828.514         433.502 
       0.435692         811.676         421.413 
       0.441815         805.722         409.804 
       0.447964         789.106         398.594 
       0.454126         782.051         387.725 
       0.460267         763.669         377.187 
       0.466387         754.804         366.976 
        0.47254         749.363         357.035 
       0.478662         742.706         347.501 
       0.484765         721.855         338.368 
       0.490885         717.519         329.594 
       0.497035         702.847          321.16 
       0.503198         698.577         313.057 
       0.509342         691.367         305.278 
       0.515458         687.804         297.795 
       0.521598         671.285         290.522 
       0.527764         658.852         283.441 
       0.533884         657.654         276.619 
           0.54         650.638         270.013 
       0.546137          645.74           263.6 
       0.552299         636.833         257.385 
       0.558452         632.656           251.4 
       0.564573         624.431          245.65 
       0.570708         617.702         240.078 
       0.576825         601.114         234.702 
       0.582926         604.034         229.508 
       0.589034         598.399         224.465 
       0.595184         592.783         219.535 
       0.601379         584.793         214.714 
       0.607522          576.74         210.073 
       0.613639         577.111         205.588 
       0.619772         564.266         201.228 
       0.625918         561.581         196.993 
       0.632068         554.316         192.883 
       0.638161          552.43         188.932 
         0.6443         542.715         185.065 
       0.650464         540.896         181.293 
       0.656582         537.128         177.652 
       0.662703         534.901          174.11 
       0.668861         525.868         170.645 
       0.675024          521.87         167.272 
       0.681124          518.51         164.026 
       0.687237         514.263         160.861 
       0.693381          507.87         157.767 
       0.699536         500.125          154.75 
       0.705665         499.533         151.826 
       0.711789         496.706         148.981 
       0.717957         492.293         146.191 
        0.72409         489.761         143.488 
       0.730186         482.831         140.871 
       0.736317         479.758         138.306 
       0.742472         477.645         135.796 
       0.748622         472.227         133.351 
        0.75476         465.846         130.972 
       0.760888         461.744         128.656 
       0.767043         462.168         126.387 
       0.773185         457.303         124.179 
       0.779291         452.423         122.036 
       0.785407          449.57         119.941 
       0.791564         444.555         117.883 
       0.797719         442.557         115.875 
       0.803834         438.243         113.927 
       0.809972         437.024         112.017 
       0.816124         435.944         110.147 
       0.822261         429.799         108.325 
       0.828378         427.385         106.551 
       0.834502         423.196         104.815 
       0.840667         419.914         103.107 
       0.846816         418.167         101.442 
       0.852925         414.945          99.825 
       0.859047         413.508         98.2402 
       0.865192          408.53          96.685 
       0.871341         405.276         95.1627 
       0.877463         404.796         93.6806 
       0.883569         401.176         92.2341 
       0.889708         398.439          90.811 
       0.895864         396.474         89.4146 
       0.902008         393.344         88.0508 
       0.908149         389.243         86.7166 
       0.914301         386.688         85.4081 
       0.920448         384.739         84.1281 
       0.926574         379.124         82.8792 
       0.932687         379.415         81.6584 
       0.938823         375.537         80.4582 
       0.944975         375.655         79.2795 
       0.951105         371.229          78.129 
       0.957225         368.941         77.0034 
       0.963368         364.919         75.8964 
       0.969511         363.917         74.8114 
       0.975621         361.474         73.7536 
       0.981748         360.064         72.7138 
       0.987916          357.88         71.6877 
        0.99406         352.088         70.6854 
        1.00019         351.274         69.7044 
        1.00632         349.681         68.7431 
        1.01246         346.872         67.7987 
        1.01859         347.407         66.8737 
        1.02471         342.146         65.9672 
        1.03085         340.605         65.0745 
        1.03698         339.458         64.2004 
        1.04314         336.355         63.3388 
        1.04929         333.183         62.4951 
        1.05541          334.15         61.6703 
        1.06154         328.574         60.8585 
        1.06769         327.698         60.0603 
        1.07382         325.553          59.279 
        1.07993         323.645         58.5136 
        1.08607         322.756         57.7586 
        1.09222         319.716         57.0163 
        1.09836         317.777          56.288 
        1.10449         314.866         55.5734 
        1.11063         311.869         54.8705 
        1.11677         312.125         54.1801 
         1.1229          309.94         53.5029 
        1.12903         307.787         52.8368 
        1.13518         305.093         52.1815 
        1.14131         303.609         51.5379 
        1.14745         302.334         50.9055 
        1.15359         300.155         50.2837 
        1.15973         298.294         49.6722 
        1.16584         296.174         49.0736 
        1.17197          296.06         48.4841 
        1.17811         292.526         47.9026 
        1.18424         290.481         47.3324 
        1.19038         289.683         46.7699 
        1.19652         287.405         46.2168 
        1.20267         286.671         45.6728 
        1.20881         284.608         45.1377 
        1.21495         282.426         44.6121 
        1.22108         280.939          44.095 
         1.2272         279.196         43.5873 
        1.23334         277.771         43.0866 
        1.23949         275.822         42.5926 
        1.24562         274.829         42.1077 
        1.25174         272.678         41.6312 
        1.25789         270.567         41.1606 
        1.26402         268.757         40.6982 
        1.27014         267.232         40.2441 
        1.27628         265.878         39.7956 
        1.28244         265.527         39.3531 
        1.28858         262.805          38.918 
        1.29471         261.104         38.4904 
        1.30084         259.616         38.0698 
        1.30697         258.265         37.6548 
        1.31312         255.726         37.2455 
        1.31925         255.135         36.8435 
        1.32537         254.201          36.448 
        1.33151         251.737         36.0568 
        1.33765         249.961         35.6717 
        1.34378         249.263          35.293 
        1.34992         247.826         34.9196 
        1.35606         247.388         34.5508 
         1.3622         245.153          34.188 
        1.36833         243.055         33.8314 
        1.37445         242.147           33.48 
        1.38059         240.081         33.1326 
        1.38675         239.286         32.7893 
        1.39288         237.862         32.4523 
        1.39901         237.097         32.1202 
        1.40515          235.17          31.792 
         1.4113         233.977         31.4686 
        1.41742         232.217          31.151 
        1.42355         231.089         30.8371 
         1.4297         229.252         30.5267 
        1.43585         228.237         30.2207 
        1.44198         227.246         29.9201 
        1.44809         225.962         29.6241 
        1.45423         224.631         29.3311 
        1.46036         223.418         29.0426 
        1.46649         221.758         28.7579 
        1.47263         220.478         28.4768 
        1.47877         219.161         28.1997 
        1.48491         217.393         27.9258 
        1.49104         216.834         27.6561 
        1.49718         214.967         27.3898 
        1.50333         214.305         27.1266 
        1.50947         213.006         26.8675 
         1.5156         211.142         26.6121 
        1.52172         210.397         26.3601 
        1.52787         208.739         26.1108 
          1.534          208.29         25.8651 
        1.54013         206.555         25.6228 
        1.54627         205.544         25.3832 
        1.55241         204.336         25.1467 
        1.55855         202.946         24.9135 
        1.56467         201.759         24.6839 
         1.5708         201.244         24.4566 
        1.57695         199.842         24.2318 
        1.58308         198.748         24.0104 
        1.58922         197.079         23.7915 
        1.59535         195.641         23.5756 
         1.6015         195.273          23.362 
        1.60764         193.946         23.1512 
        1.61376         192.862         22.9435 
        1.61989         191.929         22.7383 
        1.62604         190.627         22.5351 
        1.63218         189.793         22.3346 
        1.63831           188.4          22.137 
        1.64444         187.641         21.9417 
        1.65059         186.419         21.7483 
        1.65673         185.179         21.5574 
        1.66285         184.154         21.3694 
        1.66898         183.038         21.1836 
        1.67512          182.74         20.9996 
        1.68127         180.776         20.8177 
         1.6874         179.954         20.6384 
        1.69353         179.021         20.4612 
        1.69967         177.635         20.2858 
        1.70581         176.993         20.1125 
        1.71193         175.664         19.9419 
        1.71806         175.172         19.7729 
        1.72421         173.899         19.6055 
        1.73035         173.253         19.4403 
        1.73649         172.253          19.277 
        1.74262           171.1         19.1158 
        1.74876         170.178         18.9563 
        1.75489         169.192         18.7989 
        1.76101         167.853         18.6434 
        1.76715         167.593         18.4895 
        1.77329          166.53         18.3371 
        1.77943         165.672         18.1863 
        1.78557         164.732         18.0375 
        1.79171         163.899         17.8904 
        1.79785         162.694         17.7448 
        1.80399         161.791         17.6009 
        1.81012         160.897         17.4589 
        1.81625         160.359         17.3184 
        1.82239         159.192         17.1793 
        1.82853         158.663         17.0418 
        1.83466         157.448         16.9059 
        1.84078         156.867         16.7717 
        1.84692         155.296         16.6387 
        1.85306         155.182          16.507 
         1.8592         154.066         16.3769 
        1.86533         153.288         16.2483 
        1.87147         152.112          16.121 
        1.87761         151.432          15.995 
        1.88375         150.312         15.8704 
        1.88988         149.425         15.7474 
        1.89601         149.056         15.6255 
        1.90215         147.963         15.5049 
        1.90829         147.267         15.3856 
        1.91442         146.476         15.2676 
        1.92056          145.66         15.1509 
         1.9267          144.96         15.0354 
        1.93284         143.914         14.9209 
        1.93897           143.3         14.8079 
        1.94509         142.565         14.6963 
        1.95123         141.963         14.5856 
        1.95737         141.206         14.4759 
        1.96349          140.33         14.3676 
        1.96964         139.269         14.2602 
        1.97578         138.542         14.1538 
        1.98192         138.074         14.0487 
        1.98805         137.127         13.9447 
        1.99419         136.418         13.8417 
        2.00033         135.667         13.7397 
        2.00647         135.098         13.6388 
         2.0126         133.929          13.539 
        2.01874         133.423         13.4402 
        2.02488         133.052         13.3422 
        2.03101         131.724         13.2454 
        2.03714         131.348         13.1496 
        2.04328         130.455         13.0547 
        2.04941         129.916         12.9608 
        2.05554         129.023         12.8679 
        2.06167         128.655         12.7758 
        2.06781         127.835         12.6845 
        2.07396         127.018         12.5941 
        2.08009         126.503         12.5046 
        2.08622         125.599         12.4162 
        2.09237         125.003         12.3284 
        2.09851         124.375         12.2415 
        2.10464         123.939         12.1556 
        2.11077         123.223         12.0706 
        2.11691         122.631         11.9862 
        2.12305         121.643         11.9026 
        2.12918         121.006           11.82 
        2.13531         120.493         11.7382 
        2.14145         119.677          11.657 
         2.1476         118.812         11.5765 
        2.15372         118.627         11.4972 
        2.15985         118.118         11.4185 
        2.16599         117.162         11.3403 
        2.17213         116.571         11.2629 
        2.17827         116.043         11.1863 
         2.1844         115.202         11.1105 
        2.19054         114.856         11.0353 
        2.19666         114.201          10.961 
         2.2028         113.443         10.8873 
        2.20893         113.106         10.8142 
        2.21508         112.347         10.7417 
        2.22122         111.761         10.6698 
        2.22736         111.265         10.5988 
        2.23349         110.675         10.5284 
        2.23962         110.009         10.4587 
        2.24577         109.498         10.3895 
         2.2519         109.141          10.321 
        2.25802         108.107         10.2532 
        2.26417         107.776         10.1859 
        2.27031         107.054         10.1191 
        2.27644         106.594         10.0532 
        2.28257         105.886         9.98777 
        2.28872         105.588         9.92285 
        2.29486         104.863         9.85851 
        2.30099         104.387         9.79488 
        2.30712         103.841         9.73179 
        2.31326         103.204         9.66914 
         2.3194         102.662         9.60709 
        2.32553         102.231         9.54569 
        2.33166         101.668         9.48485 
         2.3378         101.246         9.42446 
        2.34394         100.727         9.36458 
        2.35007         100.087          9.3053 
        2.35619         99.6915         9.24662 
        2.36233         99.0802          9.1883 
        2.36848         98.5113         9.13037 
        2.37462         98.1524         9.07306 
        2.38075         97.4874          9.0163 
        2.38689         97.0587         8.95998 
        2.39303         96.3248         8.90415 
        2.39916         96.1323         8.84885 
        2.40529         95.7407         8.79404 
        2.41143         94.9989         8.73964 
        2.41757         94.6234         8.68569 
         2.4237         94.0774         8.63229 
        2.42983          93.498         8.57935 
        2.43598         93.0053         8.52671 
        2.44211         92.8587          8.4746 
        2.44823          92.271         8.42305 
        2.45437         91.4883         8.37178 
        2.46052         91.0356          8.3209 
        2.46665         90.7929         8.27054 
        2.47279          90.194         8.22061 
        2.47892         89.8543         8.17106 
        2.48507         89.3611         8.12187 
         2.4912         89.0275         8.07319 
