# k  (h/Mpc)    Pcb(k)  (Mpc/h)^3    Pcb_linear(k)  (Mpc/h)^3
     0.00783031         326.503         329.366 
       0.013688         412.436          413.65 
       0.019231         426.955         427.236 
      0.0249154         402.984         404.543 
      0.0312784          360.91         361.107 
      0.0375637          317.83         317.293 
      0.0433917         283.429         283.566 
      0.0492413         258.091         257.873 
      0.0555754          236.69         237.211 
      0.0619321         220.818         220.283 
       0.067871          204.56         204.938 
      0.0738098         188.131         188.574 
      0.0800417         169.775         170.401 
      0.0862327         152.394         152.608 
      0.0921407         137.305         137.317 
      0.0982031         124.168         124.352 
       0.104506         114.381          114.06 
       0.110769         106.728         106.528 
       0.116806         100.669         100.867 
       0.122832         95.8438         95.7884 
       0.129052          90.133         90.3632 
       0.135211         84.2238         84.4774 
       0.141259         78.3447         78.3398 
       0.147318         72.4796         72.2573 
       0.153489         66.7049         66.6113 
       0.159709         61.9406         61.8215 
       0.165845         58.4807         58.0662 
       0.171974         55.2189         55.1302 
       0.178125         52.8365         52.7081 
       0.184229         50.7176          50.503 
        0.19034         48.1851         48.2461 
       0.196428         45.9619         45.8366 
       0.202534         43.6497         43.2888 
       0.208729         40.9382         40.7013 
       0.214876          38.404         38.2905 
       0.220989         36.5509         36.1684 
       0.227147         34.4874         34.3563 
        0.23329         32.9882         32.8457 
       0.239377         31.7494         31.5604 
       0.245482          30.463         30.3806 
       0.251667          29.456         29.2079 
       0.257832         28.2078         28.0112 
       0.263955         27.0195         26.7894 
       0.270079         25.8203         25.5652 
        0.27624         24.7612         24.3801 
       0.282372         23.6652         23.2889 
        0.28843         22.6144         22.3221 
       0.294538         21.7521          21.458 
       0.300721         21.0658          20.678 
        0.30691         20.2432         19.9596 
       0.313033         19.5775         19.2805 
       0.319153         18.7576         18.6107 
       0.325316         18.2965         17.9378 
        0.33145         17.5988         17.2733 
       0.337538          16.963         16.6317 
       0.343633         16.3144           16.02 
       0.349808         15.7793         15.4427 
       0.355968         15.2548         14.9116 
       0.362074         14.7497         14.4268 
       0.368217         14.3041         13.9719 
       0.374374          13.813         13.5389 
       0.380519         13.4482         13.1215 
       0.386598         13.0627         12.7173 
       0.392688         12.6981         12.3207 
        0.39888         12.2814          11.928 
       0.405048          11.923         11.5508 
       0.411186         11.5801         11.1932 
       0.417313          11.197         10.8557 
       0.423458         10.9044         10.5362 
       0.429607         10.5711         10.2341 
       0.435692         10.2794         9.94938 
       0.441815         10.0164         9.67374 
       0.447964         9.79598          9.4058 
       0.454126         9.47499         9.14515 
       0.460267         9.22915         8.89261 
       0.466387         8.95788         8.64885 
        0.47254         8.75041         8.41281 
       0.478662         8.54325         8.18762 
       0.484765         8.30136         7.97259 
       0.490885         8.09417          7.7662 
       0.497035         7.95154         7.56744 
       0.503198         7.73153         7.37589 
       0.509342         7.55356         7.19131 
       0.515458         7.35594         7.01323 
       0.521598         7.19208         6.83992 
       0.527764         7.00353         6.67128 
       0.533884         6.87213          6.5092 
           0.54         6.70529         6.35259 
       0.546137         6.56302         6.20087 
       0.552299         6.41607         6.05404 
       0.558452         6.23964         5.91271 
       0.564573         6.12895         5.77685 
       0.570708         5.99639         5.64503 
       0.576825         5.84864         5.51762 
       0.582926         5.74272         5.39436 
       0.589034         5.57966         5.27464 
       0.595184         5.47754         5.15769 
       0.601379         5.35827         5.04346 
       0.607522         5.26965         4.93359 
       0.613639         5.18351         4.82751 
       0.619772          5.0449          4.7244 
       0.625918         4.96274         4.62425 
       0.632068         4.87848         4.52707 
       0.638161         4.76323         4.43361 
         0.6443         4.66587         4.34215 
       0.650464         4.56221         4.25291 
       0.656582         4.49822         4.16676 
       0.662703          4.4125         4.08295 
       0.668861         4.33958         4.00095 
       0.675024         4.24423         3.92116 
       0.681124          4.1574         3.84439 
       0.687237         4.09647         3.76958 
       0.693381         4.02392         3.69646 
       0.699536         3.91991         3.62518 
       0.705665         3.85882         3.55611 
       0.711789         3.79817         3.48891 
       0.717957         3.72339           3.423 
        0.72409         3.66062         3.35914 
       0.730186         3.59684         3.29731 
       0.736317         3.55609         3.23669 
       0.742472         3.49177         3.17739 
       0.748622           3.424         3.11963 
        0.75476         3.35244         3.06345 
       0.760888         3.30095         3.00875 
       0.767043         3.26355         2.95518 
       0.773185          3.1943         2.90304 
       0.779291         3.15037         2.85247 
       0.785407         3.09784         2.80304 
       0.791564         3.04924         2.75447 
       0.797719         3.00538         2.70709 
       0.803834         2.96164         2.66113 
       0.809972         2.91472         2.61607 
       0.816124         2.86062         2.57197 
       0.822261         2.81014         2.52901 
       0.828378         2.77499         2.48717 
       0.834502         2.74147         2.44624 
       0.840667         2.68358         2.40598 
       0.846816         2.64364         2.36674 
       0.852925         2.61696         2.32863 
       0.859047         2.57688         2.29128 
       0.865192         2.53747         2.25464 
       0.871341          2.5011         2.21878 
       0.877463         2.47191         2.18387 
       0.883569         2.42617          2.1498 
       0.889708         2.38916         2.11629 
       0.895864         2.35826         2.08341 
       0.902008         2.31972         2.05131 
       0.908149         2.29024          2.0199 
       0.914301         2.24663         1.98911 
       0.920448         2.22002         1.95898 
       0.926574         2.18725         1.92959 
       0.932687         2.15967         1.90087 
       0.938823          2.1382         1.87264 
       0.944975         2.10611         1.84491 
       0.951105         2.08018         1.81785 
       0.957225         2.06036         1.79138 
       0.963368         2.02906         1.76535 
       0.969511         1.99772         1.73984 
       0.975621         1.96646         1.71497 
       0.981748         1.94924         1.69052 
       0.987916         1.92157          1.6664 
        0.99406         1.89167         1.64284 
        1.00019         1.87388         1.61979 
        1.00632          1.8445          1.5972 
        1.01246         1.82206         1.57501 
        1.01859          1.8023         1.55328 
        1.02471         1.77672         1.53199 
        1.03085         1.75942         1.51103 
        1.03698         1.73302          1.4905 
        1.04314         1.71469         1.47027 
        1.04929         1.69048         1.45046 
        1.05541         1.67311          1.4311 
        1.06154         1.65072         1.41205 
        1.06769         1.63089         1.39331 
        1.07382         1.61229         1.37498 
        1.07993         1.58756         1.35703 
        1.08607          1.5778         1.33932 
        1.09222          1.5546         1.32191 
        1.09836         1.54323         1.30483 
        1.10449         1.52398         1.28807 
        1.11063         1.50097          1.2716 
        1.11677         1.48246         1.25541 
         1.1229         1.46692         1.23954 
        1.12903         1.44827         1.22393 
        1.13518         1.43672         1.20858 
        1.14131         1.41612          1.1935 
        1.14745         1.39237         1.17868 
        1.15359         1.38484         1.16412 
        1.15973         1.36294         1.14979 
        1.16584         1.35803         1.13578 
        1.17197          1.3394         1.12197 
        1.17811         1.32586         1.10836 
        1.18424         1.31601         1.09501 
        1.19038         1.29666         1.08184 
        1.19652         1.28071          1.0689 
        1.20267         1.27204         1.05616 
        1.20881         1.25328         1.04364 
        1.21495         1.24478         1.03134 
        1.22108         1.23117         1.01924 
         1.2272         1.22096         1.00736 
        1.23334         1.20495        0.995649 
        1.23949         1.19181        0.984094 
        1.24562         1.18154        0.972755 
        1.25174         1.16907        0.961613 
        1.25789         1.15808        0.950611 
        1.26402          1.1419        0.939801 
        1.27014         1.13105        0.929186 
        1.27628         1.12489        0.918704 
        1.28244         1.10763        0.908364 
        1.28858         1.09849        0.898196 
        1.29471         1.08936        0.888208 
        1.30084         1.07616        0.878381 
        1.30697         1.06633        0.868689 
        1.31312         1.05103        0.859129 
        1.31925         1.04496        0.849743 
        1.32537         1.03591        0.840507 
        1.33151          1.0271        0.831376 
        1.33765         1.01575        0.822387 
        1.34378         1.00292        0.813548 
        1.34992        0.997704        0.804833 
        1.35606         0.98517        0.796228 
         1.3622        0.977643        0.787764 
        1.36833        0.967668        0.779443 
        1.37445        0.955835        0.771247 
        1.38059        0.947547        0.763144 
        1.38675        0.945775        0.755139 
        1.39288        0.932042         0.74728 
        1.39901        0.923941        0.739537 
        1.40515        0.916194        0.731886 
         1.4113        0.906103        0.724347 
        1.41742        0.898098        0.716943 
        1.42355        0.894702        0.709628 
         1.4297         0.88213        0.702394 
        1.43585        0.875223        0.695264 
        1.44198        0.871163         0.68826 
        1.44809        0.858893        0.681366 
        1.45423        0.852349        0.674541 
        1.46036        0.845099        0.667822 
        1.46649        0.837844        0.661192 
        1.47263        0.829472        0.654646 
        1.47877        0.821477        0.648193 
        1.48491        0.814991        0.641816 
        1.49104        0.806767        0.635538 
        1.49718        0.802062         0.62934 
        1.50333        0.794438        0.623214 
        1.50947         0.78853        0.617183 
         1.5156        0.780821        0.611241 
        1.52172         0.77429        0.605376 
        1.52787        0.767056        0.599578 
          1.534        0.762289        0.593862 
        1.54013        0.753098        0.588227 
        1.54627        0.747709        0.582654 
        1.55241        0.741082        0.577154 
        1.55855        0.734306        0.571732 
        1.56467        0.731307        0.566394 
         1.5708        0.722839         0.56111 
        1.57695        0.718876        0.555886 
        1.58308        0.712304         0.55074 
        1.58922        0.706588        0.545655 
        1.59535         0.70067        0.540637 
         1.6015        0.695217        0.535675 
        1.60764        0.690201        0.530778 
        1.61376         0.68255        0.525955 
        1.61989           0.679        0.521189 
        1.62604        0.673207        0.516471 
        1.63218        0.669203        0.511814 
        1.63831        0.662734        0.507226 
        1.64444        0.657222        0.502692 
        1.65059        0.652533        0.498203 
        1.65673        0.647152        0.493774 
        1.66285        0.642125        0.489411 
        1.66898        0.638488        0.485099 
        1.67512        0.631717        0.480831 
        1.68127        0.626922         0.47661 
         1.6874        0.624054        0.472449 
        1.69353        0.617868        0.468341 
        1.69967        0.613792        0.464271 
        1.70581        0.608803        0.460252 
        1.71193        0.604384        0.456296 
        1.71806        0.599715        0.452377 
        1.72421        0.595534        0.448497 
        1.73035        0.590358        0.444667 
        1.73649        0.587444        0.440882 
        1.74262        0.582755        0.437144 
        1.74876        0.577683        0.433447 
        1.75489        0.573593        0.429801 
        1.76101        0.568576        0.426197 
        1.76715        0.565055         0.42263 
        1.77329        0.561011          0.4191 
        1.77943        0.556678        0.415608 
        1.78557        0.553027        0.412161 
        1.79171        0.549352        0.408753 
        1.79785        0.545212        0.405383 
        1.80399         0.54109        0.402051 
        1.81012        0.537851        0.398761 
        1.81625        0.533527         0.39551 
        1.82239        0.530699         0.39229 
        1.82853        0.524735        0.389107 
        1.83466        0.522431        0.385962 
        1.84078         0.51806        0.382856 
        1.84692        0.515453        0.379779 
        1.85306        0.511815        0.376732 
         1.8592        0.508405        0.373723 
        1.86533        0.505113        0.370749 
        1.87147        0.501346        0.367803 
        1.87761        0.498634        0.364889 
        1.88375        0.493253        0.362009 
        1.88988        0.491247        0.359164 
        1.89601        0.487327        0.356347 
        1.90215        0.484548        0.353559 
        1.90829        0.480705        0.350802 
        1.91442        0.477798        0.348074 
        1.92056        0.474346        0.345377 
         1.9267        0.470972        0.342706 
        1.93284        0.468102        0.340062 
        1.93897        0.465313        0.337451 
        1.94509        0.462369        0.334872 
        1.95123         0.45846        0.332315 
        1.95737        0.456385        0.329782 
        1.96349        0.452748        0.327281 
        1.96964         0.44977          0.3248 
        1.97578        0.446767        0.322343 
        1.98192        0.445225        0.319917 
        1.98805        0.441771        0.317515 
        1.99419        0.438477        0.315138 
        2.00033        0.436261        0.312784 
        2.00647        0.433328        0.310454 
         2.0126         0.43023        0.308152 
        2.01874        0.427943         0.30587 
        2.02488        0.425487         0.30361 
        2.03101        0.422067        0.301376 
        2.03714        0.419213        0.299166 
        2.04328          0.4172        0.296977 
        2.04941        0.414535        0.294811 
        2.05554        0.411829        0.292668 
        2.06167        0.409724        0.290544 
        2.06781        0.405734         0.28844 
        2.07396        0.403411        0.286354 
        2.08009        0.401253        0.284293 
        2.08622        0.399054        0.282254 
        2.09237        0.397762        0.280231 
        2.09851        0.394993        0.278227 
        2.10464        0.392436        0.276247 
        2.11077        0.389614        0.274288 
        2.11691          0.3872        0.272343 
        2.12305         0.38499        0.270418 
        2.12918        0.382641        0.268515 
        2.13531        0.380317        0.266631 
        2.14145        0.378242        0.264761 
         2.1476        0.375988        0.262906 
        2.15372        0.374486        0.261078 
        2.15985        0.371465        0.259266 
        2.16599        0.368867        0.257466 
        2.17213        0.367355        0.255685 
        2.17827        0.365552        0.253921 
         2.1844        0.363544        0.252175 
        2.19054        0.361203        0.250445 
        2.19666         0.35841        0.248734 
         2.2028        0.357129        0.247037 
        2.20893        0.355138        0.245355 
        2.21508        0.352343        0.243687 
        2.22122        0.350349        0.242034 
        2.22736        0.348627          0.2404 
        2.23349        0.347041        0.238781 
        2.23962        0.345194        0.237176 
        2.24577        0.342225        0.235585 
         2.2519        0.341302         0.23401 
        2.25802        0.338753        0.232452 
        2.26417        0.336853        0.230904 
        2.27031        0.334773        0.229369 
        2.27644        0.333489        0.227852 
        2.28257        0.331288        0.226349 
        2.28872        0.329681        0.224857 
        2.29486         0.32757        0.223378 
        2.30099        0.326019        0.221916 
        2.30712        0.324539        0.220466 
        2.31326        0.322058        0.219026 
         2.3194        0.321877        0.217601 
        2.32553        0.319898         0.21619 
        2.33166        0.317953        0.214792 
         2.3378        0.316358        0.213405 
        2.34394         0.31371         0.21203 
        2.35007        0.312298        0.210668 
        2.35619        0.310579        0.209321 
        2.36233          0.3084        0.207982 
        2.36848        0.307485        0.206652 
        2.37462        0.305509        0.205336 
        2.38075        0.304626        0.204033 
        2.38689        0.302461         0.20274 
        2.39303         0.30155        0.201459 
        2.39916        0.299135         0.20019 
        2.40529        0.297707        0.198932 
        2.41143        0.296526        0.197683 
        2.41757        0.294681        0.196445 
         2.4237        0.293239         0.19522 
        2.42983        0.291825        0.194006 
        2.43598        0.290833        0.192798 
        2.44211        0.289154        0.191603 
        2.44823        0.288052        0.190421 
        2.45437        0.285574        0.189245 
        2.46052         0.28495        0.188078 
        2.46665        0.283167        0.186923 
        2.47279        0.281489        0.185779 
        2.47892        0.280104        0.184643 
        2.48507        0.278919        0.183515 
         2.4912        0.277644        0.182399 
