# k  (h/Mpc)    Pcb(k)  (Mpc/h)^3    Pcb_linear(k)  (Mpc/h)^3
     0.00783031         7260.66         7298.26 
       0.013688         9010.38         9187.71 
       0.019231            9385         9485.76 
      0.0249154         8949.82         8938.73 
      0.0312784         7822.59         7874.64 
      0.0375637         6689.82          6770.8 
      0.0433917          5886.3         5902.31 
      0.0492413         5195.09         5241.91 
      0.0555754          4734.4         4742.36 
      0.0619321         4280.61         4393.08 
       0.067871         4071.69         4127.76 
      0.0738098          3826.9         3862.55 
      0.0800417         3528.39         3551.51 
      0.0862327         3174.69         3209.52 
      0.0921407         2855.51          2875.8 
      0.0982031         2571.99         2557.31 
       0.104506         2271.01         2279.02 
       0.110769         2075.35          2068.2 
       0.116806         1964.48         1923.52 
       0.122832          1841.4         1822.25 
       0.129052         1762.48          1742.7 
       0.135211         1708.59         1668.86 
       0.141259         1604.27         1587.14 
       0.147318         1490.75          1490.7 
       0.153489         1397.25         1380.62 
       0.159709         1314.76         1266.73 
       0.165845         1189.51         1161.97 
       0.171974         1142.64         1072.84 
       0.178125         1083.05         1002.47 
       0.184229         1005.83         950.513 
        0.19034         983.694         911.896 
       0.196428          953.88         880.641 
       0.202534         897.629         850.477 
       0.208729         882.227         816.563 
       0.214876         847.012          777.77 
       0.220989         791.078         734.991 
       0.227147         768.208         690.444 
        0.23329         733.771         647.917 
       0.239377         714.444         610.421 
       0.245482         675.313         578.948 
       0.251667         647.461         553.356 
       0.257832         639.632         532.898 
       0.263955         606.446          515.66 
       0.270079         586.958         499.442 
        0.27624         563.322         482.537 
       0.282372         550.726         464.325 
        0.28843         545.747         444.981 
       0.294538         517.469         424.855 
       0.300721          499.41         404.884 
        0.30691         490.238          386.32 
       0.313033         468.029         370.006 
       0.319153         459.592         355.935 
       0.325316         449.407         343.762 
        0.33145         438.741          333.08 
       0.337538          423.52         323.226 
       0.343633         410.981         313.534 
       0.349808         400.343         303.489 
       0.355968         392.096         293.159 
       0.362074         380.637         282.721 
       0.368217         376.355         272.342 
       0.374374         367.823         262.371 
       0.380519         352.782          253.12 
       0.386598         347.847         244.797 
       0.392688         339.448         237.247 
        0.39888         331.086         230.262 
       0.405048         324.966         223.776 
       0.411186         322.417         217.571 
       0.417313         316.549         211.481 
       0.423458         307.942         205.373 
       0.429607         300.468         199.265 
       0.435692         295.172         193.303 
       0.441815         289.685         187.464 
       0.447964         282.195         181.859 
       0.454126         278.043         176.577 
       0.460267         274.378         171.656 
       0.466387         269.039         167.062 
        0.47254         265.626         162.711 
       0.478662         258.142         158.576 
       0.484765         255.083         154.575 
       0.490885         251.576         150.643 
       0.497035         248.023         146.763 
       0.503198         245.528         142.945 
       0.509342         238.966         139.226 
       0.515458         236.075         135.642 
       0.521598         230.894         132.194 
       0.527764         228.265         128.888 
       0.533884         227.514         125.756 
           0.54         222.439         122.767 
       0.546137         217.549         119.892 
       0.552299         215.974         117.107 
       0.558452         212.238         114.403 
       0.564573         210.844         111.776 
       0.570708         206.191         109.204 
       0.576825         203.366         106.707 
       0.582926          201.24         104.286 
       0.589034         198.392         101.936 
       0.595184         196.828         99.6467 
       0.601379         192.877         97.4226 
       0.607522          189.42         95.2993 
       0.613639         188.073         93.2603 
       0.619772          186.17         91.2826 
       0.625918         184.523         89.3584 
       0.632068         180.522          87.483 
       0.638161         178.804         85.6719 
         0.6443         177.773         83.8944 
       0.650464         174.467         82.1583 
       0.656582         173.414         80.4831 
       0.662703         171.712         78.8547 
       0.668861         168.331         77.2634 
       0.675024         168.289         75.7166 
       0.681124         165.732           74.23 
       0.687237         163.558         72.7829 
       0.693381         162.158           71.37 
       0.699536         160.271         69.9937 
       0.705665         158.409         68.6601 
       0.711789         156.577          67.362 
       0.717957         154.842         66.0873 
        0.72409         153.575          64.851 
       0.730186         153.351         63.6528 
       0.736317         150.728         62.4778 
       0.742472         148.756         61.3282 
       0.748622         146.549         60.2094 
        0.75476         147.005          59.122 
       0.760888           145.4         58.0644 
       0.767043         142.946         57.0296 
       0.773185         141.514         56.0227 
       0.779291         139.855         55.0463 
       0.785407         138.783         54.0919 
       0.791564         137.902         53.1539 
       0.797719         136.083         52.2382 
       0.803834         135.833         51.3497 
       0.809972         134.834         50.4786 
       0.816124         132.912         49.6257 
       0.822261         131.612         48.7949 
       0.828378         131.419         47.9857 
       0.834502         129.364         47.1945 
       0.840667         128.849         46.4162 
       0.846816         127.618          45.658 
       0.852925         126.246         44.9217 
       0.859047         125.321         44.2004 
       0.865192         124.353         43.4926 
       0.871341         122.998         42.8001 
       0.877463         122.117         42.1258 
       0.883569         121.938         41.4679 
       0.889708         120.828         40.8207 
       0.895864         119.687         40.1857 
       0.902008         118.567         39.5655 
       0.908149         117.057         38.9589 
       0.914301         117.084         38.3641 
       0.920448         116.531         37.7823 
       0.926574          114.42         37.2147 
       0.932687         114.306           36.66 
       0.938823         113.409         36.1147 
       0.944975         112.185         35.5793 
       0.951105         111.256         35.0567 
       0.957225         111.117         34.5456 
       0.963368         109.846          34.043 
       0.969511         109.044         33.5505 
       0.975621         108.075         33.0704 
       0.981748         107.254         32.5985 
       0.987916         106.598         32.1329 
        0.99406         106.179         31.6782 
        1.00019         104.981         31.2333 
        1.00632         104.324         30.7974 
        1.01246         103.676         30.3692 
        1.01859         103.183         29.9498 
        1.02471          102.33          29.539 
        1.03085         101.398         29.1344 
        1.03698         100.771         28.7384 
        1.04314         100.089          28.348 
        1.04929         99.7043         27.9659 
        1.05541         98.9816         27.5924 
        1.06154         98.3466         27.2248 
        1.06769         97.5209         26.8634 
        1.07382         96.7286         26.5098 
        1.07993         96.3883         26.1633 
        1.08607         95.5855         25.8217 
        1.09222         95.2595         25.4858 
        1.09836         94.2885         25.1563 
        1.10449         93.7995          24.833 
        1.11063         93.1943         24.5152 
        1.11677         92.5703          24.203 
         1.1229         91.8805         23.8968 
        1.12903         91.5641         23.5956 
        1.13518         91.0586         23.2994 
        1.14131         90.3645         23.0085 
        1.14745         89.8219         22.7227 
        1.15359         88.7803         22.4418 
        1.15973         88.6614         22.1655 
        1.16584           88.07         21.8951 
        1.17197         87.4944         21.6288 
        1.17811         86.8749         21.3662 
        1.18424            86.2         21.1087 
        1.19038         86.1292         20.8548 
        1.19652         85.4868         20.6051 
        1.20267         84.8744         20.3595 
        1.20881         84.3864          20.118 
        1.21495         83.9208         19.8808 
        1.22108         83.5726         19.6475 
         1.2272         82.7442         19.4185 
        1.23334         82.5503         19.1927 
        1.23949         81.9871         18.9699 
        1.24562         81.3319         18.7513 
        1.25174         80.8866         18.5364 
        1.25789         80.7991         18.3243 
        1.26402         80.1402         18.1159 
        1.27014         79.7747         17.9113 
        1.27628         79.0383         17.7092 
        1.28244         78.8958         17.5099 
        1.28858         78.3141         17.3139 
        1.29471         77.8585         17.1213 
        1.30084         77.2189         16.9319 
        1.30697         77.2462          16.745 
        1.31312         76.5913         16.5607 
        1.31925         76.1136         16.3798 
        1.32537         75.7215         16.2018 
        1.33151          75.481         16.0257 
        1.33765         74.9297         15.8524 
        1.34378         74.5981          15.682 
        1.34992         74.2539          15.514 
        1.35606         73.7244         15.3481 
         1.3622         73.4618          15.185 
        1.36833         72.8718         15.0246 
        1.37445         72.3231         14.8666 
        1.38059         72.1825         14.7104 
        1.38675         71.4485          14.556 
        1.39288         71.4596         14.4045 
        1.39901         70.7726         14.2553 
        1.40515         70.5431         14.1078 
         1.4113         70.2823         13.9625 
        1.41742          69.801         13.8198 
        1.42355         69.4959         13.6788 
         1.4297         69.0719         13.5393 
        1.43585         68.6391         13.4019 
        1.44198         68.2935         13.2669 
        1.44809         67.8543          13.134 
        1.45423         67.5926         13.0025 
        1.46036          67.133         12.8729 
        1.46649         66.9042         12.7452 
        1.47263         66.5596          12.619 
        1.47877         66.3052         12.4946 
        1.48491         65.8895         12.3718 
        1.49104         65.3679         12.2508 
        1.49718         65.1591         12.1313 
        1.50333         64.8174         12.0133 
        1.50947         64.5671         11.8971 
         1.5156         64.3061         11.7826 
        1.52172         63.8022         11.6695 
        1.52787         63.4205         11.5578 
          1.534         63.1854         11.4477 
        1.54013         63.0024         11.3391 
        1.54627         62.4044         11.2317 
        1.55241         62.1329         11.1257 
        1.55855         61.9278         11.0212 
        1.56467         61.3848         10.9183 
         1.5708         61.2991         10.8165 
        1.57695         60.9133         10.7158 
        1.58308         60.5911         10.6167 
        1.58922         60.3172         10.5187 
        1.59535         60.1557          10.422 
         1.6015         60.0105         10.3264 
        1.60764           59.59          10.232 
        1.61376         59.2144         10.1391 
        1.61989           58.77         10.0472 
        1.62604         58.5982         9.95629 
        1.63218         58.3004         9.86656 
        1.63831         58.1274         9.77814 
        1.64444         57.8451         9.69077 
        1.65059         57.5027         9.60426 
        1.65673         57.1099         9.51891 
        1.66285         56.9276         9.43483 
        1.66898         56.4569         9.35174 
        1.67512         56.3572         9.26949 
        1.68127         56.1001         9.18815 
         1.6874         55.7345         9.10798 
        1.69353         55.5482         9.02881 
        1.69967         55.3167          8.9504 
        1.70581          54.952         8.87295 
        1.71193         54.7202         8.79671 
        1.71806         54.4101         8.72121 
        1.72421         54.2412         8.64645 
        1.73035         53.9681         8.57264 
        1.73649         53.5996         8.49972 
        1.74262         53.2294          8.4277 
        1.74876         53.1957         8.35647 
        1.75489         52.8056         8.28621 
        1.76101         52.5727         8.21678 
        1.76715         52.5329         8.14806 
        1.77329         51.9801         8.08003 
        1.77943         51.9675         8.01275 
        1.78557         51.7129         7.94634 
        1.79171         51.4289         7.88067 
        1.79785         51.1695         7.81572 
        1.80399         50.8996         7.75153 
        1.81012         50.6919         7.68814 
        1.81625         50.3911         7.62549 
        1.82239         50.1677         7.56345 
        1.82853         49.9579         7.50213 
        1.83466         49.7219         7.44154 
        1.84078         49.4908         7.38169 
        1.84692         49.2379         7.32241 
        1.85306         48.9866          7.2637 
         1.8592         48.8352         7.20573 
        1.86533         48.5451         7.14842 
        1.87147         48.3171         7.09167 
        1.87761         48.0548         7.03551 
        1.88375         47.8675         6.98003 
        1.88988         47.6898         6.92521 
        1.89601         47.4003         6.87094 
        1.90215         47.1608         6.81721 
        1.90829         47.0009         6.76409 
        1.91442         46.7175         6.71152 
        1.92056          46.553         6.65956 
         1.9267         46.3926          6.6081 
        1.93284         46.1373         6.55715 
        1.93897         45.9686         6.50684 
        1.94509         45.5947         6.45716 
        1.95123         45.4519         6.40788 
        1.95737         45.1848         6.35907 
        1.96349         45.0941          6.3109 
        1.96964         44.8118         6.26309 
        1.97578         44.6219         6.21575 
        1.98192         44.3808           6.169 
        1.98805         44.1889         6.12272 
        1.99419         44.0124         6.07692 
        2.00033         43.8539         6.03157 
        2.00647         43.6746         5.98668 
         2.0126         43.3825         5.94234 
        2.01874         43.2129         5.89837 
        2.02488         42.9729         5.85481 
        2.03101         42.8376         5.81177 
        2.03714         42.6127          5.7692 
        2.04328         42.4503         5.72701 
        2.04941         42.2146         5.68528 
        2.05554         42.0935         5.64399 
        2.06167         41.9171         5.60306 
        2.06781         41.6135         5.56252 
        2.07396         41.4493         5.52233 
        2.08009         41.3099         5.48261 
        2.08622         41.1136         5.44332 
        2.09237         40.9164         5.40434 
        2.09851         40.7275         5.36574 
        2.10464          40.543         5.32757 
        2.11077         40.3895         5.28983 
        2.11691         40.0989         5.25237 
        2.12305         39.9141         5.21526 
        2.12918         39.8067         5.17861 
        2.13531          39.653          5.1423 
        2.14145         39.4506         5.10626 
         2.1476         39.2716         5.07053 
        2.15372         39.1789         5.03531 
        2.15985         38.8672          5.0004 
        2.16599         38.7127         4.96571 
        2.17213         38.5558         4.93139 
        2.17827         38.3631         4.89741 
         2.1844         38.1859         4.86377 
        2.19054         38.0314         4.83044 
        2.19666         37.8179         4.79746 
         2.2028          37.643         4.76477 
        2.20893         37.5149         4.73237 
        2.21508         37.3651         4.70023 
        2.22122         37.1832         4.66837 
        2.22736         36.9363         4.63688 
        2.23349         36.8561         4.60569 
        2.23962          36.676         4.57477 
        2.24577         36.5183          4.5441 
         2.2519         36.2979         4.51376 
        2.25802         36.2042         4.48374 
        2.26417         36.0058         4.45392 
        2.27031         35.8741         4.42433 
        2.27644            35.8         4.39511 
        2.28257         35.4602         4.36614 
        2.28872         35.4795         4.33739 
        2.29486         35.2541          4.3089 
        2.30099         35.0414         4.28072 
        2.30712         34.9615         4.25278 
        2.31326         34.7567         4.22505 
         2.3194         34.5772         4.19757 
        2.32553         34.4692         4.17039 
        2.33166         34.2853         4.14346 
         2.3378         34.1521         4.11673 
        2.34394         33.9966         4.09023 
        2.35007          33.877           4.064 
        2.35619         33.7665         4.03803 
        2.36233         33.5212         4.01223 
        2.36848         33.4324          3.9866 
        2.37462         33.2864         3.96124 
        2.38075         33.1322         3.93613 
        2.38689         33.0063         3.91122 
        2.39303         32.9025         3.88653 
        2.39916         32.6219         3.86207 
        2.40529         32.5167         3.83783 
        2.41143         32.4035         3.81378 
        2.41757         32.3043         3.78992 
         2.4237         32.1413         3.76631 
        2.42983         31.9836         3.74291 
        2.43598         31.8624         3.71964 
        2.44211         31.7266         3.69661 
        2.44823         31.5277         3.67382 
        2.45437         31.4905         3.65117 
        2.46052         31.2785         3.62868 
        2.46665         31.1493         3.60643 
        2.47279         30.9452         3.58437 
        2.47892         30.8897         3.56248 
        2.48507         30.7674         3.54075 
         2.4912           30.65         3.51924 
