#  k  (h/Mpc)          P(k)  (Mpc/h)^3     P_linear(k) (Mpc/h)^3
     0.00783031         18024.3         18133.3 
       0.013688         19923.4         20461.5 
       0.019231         18804.6           19085 
      0.0249154         16360.2         16254.9 
      0.0312784           12932         12991.8 
      0.0375637         10374.8         10490.6 
      0.0433917         8959.97         8953.43 
      0.0492413         7952.72         7999.86 
      0.0555754         7340.85         7332.86 
      0.0619321          6561.7         6750.96 
       0.067871         6051.51            6126 
      0.0738098         5407.24         5402.59 
      0.0800417         4676.64         4621.22 
      0.0862327         3991.19          3935.9 
      0.0921407         3533.22         3435.76 
      0.0982031         3227.18         3090.39 
       0.104506         2936.96         2873.25 
       0.110769         2800.23         2734.18 
       0.116806         2699.37         2608.76 
       0.122832         2517.53         2450.74 
       0.129052         2316.71         2243.81 
       0.135211         2163.91         2015.36 
       0.141259         1936.01         1800.61 
       0.147318         1755.72         1621.56 
       0.153489         1635.74         1488.05 
       0.159709         1575.11         1398.95 
       0.165845         1462.33         1340.22 
       0.171974          1438.8         1291.18 
       0.178125         1385.95         1235.67 
       0.184229         1274.18         1166.87 
        0.19034         1232.18         1086.36 
       0.196428         1174.27         1002.92 
       0.202534         1080.63         925.699 
       0.208729          1053.5         860.908 
       0.214876         998.283         812.038 
       0.220989         944.395         776.055 
       0.227147         920.943         747.178 
        0.23329          885.77         720.001 
       0.239377         876.551         690.618 
       0.245482         828.168         657.291 
       0.251667         793.745         620.896 
       0.257832         775.777         584.783 
       0.263955         733.117         551.873 
       0.270079          705.14         523.693 
        0.27624         675.691         500.355 
       0.282372         663.255         481.097 
        0.28843         653.105         464.298 
       0.294538         620.178          447.91 
       0.300721         604.794         430.806 
        0.30691         590.104         412.832 
       0.313033         562.971         394.712 
       0.319153         554.206         377.053 
       0.325316         544.489         360.564 
        0.33145         529.786         345.874 
       0.337538         509.547         333.032 
       0.343633         495.979         321.557 
       0.349808         483.636         310.804 
       0.355968          474.26         300.459 
       0.362074         455.805         290.233 
       0.368217         452.922         279.937 
       0.374374         445.102         269.714 
       0.380519         426.505         259.854 
       0.386598         421.838         250.671 
       0.392688         410.523         242.135 
        0.39888         400.386          234.15 
       0.405048         390.894         226.782 
       0.411186         390.164         219.845 
       0.417313         384.295         213.174 
       0.423458         373.851          206.65 
       0.429607          361.93         200.234 
       0.435692         356.998         194.043 
       0.441815         350.215         188.039 
       0.447964         342.639         182.288 
       0.454126         338.642         176.825 
       0.460267         332.768         171.691 
       0.466387         325.033         166.848 
        0.47254         321.311         162.191 
       0.478662          314.24         157.718 
       0.484765          309.21         153.399 
       0.490885         306.339         149.196 
       0.497035         299.191         145.095 
       0.503198         298.382         141.122 
       0.509342         291.809         137.315 
       0.515458         286.018         133.688 
       0.521598         282.118         130.205 
       0.527764         277.615         126.847 
       0.533884         274.807         123.636 
           0.54         271.186         120.539 
       0.546137         265.198         117.533 
       0.552299         263.521         114.611 
       0.558452         259.027         111.783 
       0.564573         257.645         109.057 
       0.570708         252.367         106.415 
       0.576825         248.119         103.873 
       0.582926         246.817         101.428 
       0.589034         241.953         99.0659 
       0.595184         240.295         96.7681 
       0.601379         236.359          94.528 
       0.607522         230.885         92.3743 
       0.613639         230.228          90.293 
       0.619772         229.092         88.2686 
       0.625918         224.506         86.3016 
       0.632068         222.138         84.3941 
       0.638161         220.613         82.5631 
         0.6443          216.99         80.7752 
       0.650464          214.52          79.035 
       0.656582          212.08         77.3592 
       0.662703         211.281         75.7318 
       0.668861         206.518         74.1416 
       0.675024         205.832         72.5954 
       0.681124         202.617         71.1086 
       0.687237         201.597         69.6604 
       0.693381         197.868         68.2459 
       0.699536         197.342         66.8685 
       0.705665         194.856         65.5355 
       0.711789         192.204         64.2405 
       0.717957          190.97         62.9719 
        0.72409         188.152         61.7449 
       0.730186         188.902         60.5581 
       0.736317         185.891         59.3962 
       0.742472         183.767         58.2604 
       0.748622         181.824         57.1553 
        0.75476         181.291         56.0813 
       0.760888         178.895         55.0364 
       0.767043          176.21          54.014 
       0.773185         174.544         53.0197 
       0.779291         173.295         52.0562 
       0.785407          171.99         51.1153 
       0.791564         170.642         50.1919 
       0.797719         167.751         49.2918 
       0.803834         168.232         48.4196 
       0.809972         165.946         47.5655 
       0.816124         163.342         46.7302 
       0.822261         162.424         45.9173 
       0.828378          161.66         45.1263 
       0.834502         159.853         44.3533 
       0.840667         159.629         43.5935 
       0.846816         156.621         42.8537 
       0.852925         156.419         42.1357 
       0.859047         154.566         41.4328 
       0.865192          153.97         40.7436 
       0.871341         152.468         40.0698 
       0.877463         150.915         39.4142 
       0.883569          150.64          38.775 
       0.889708         149.357         38.1468 
       0.895864         147.309         37.5309 
       0.902008         146.144         36.9299 
       0.908149         144.781         36.3424 
       0.914301          143.73         35.7668 
       0.920448         143.373         35.2043 
       0.926574         141.539         34.6558 
       0.932687         141.341         34.1202 
       0.938823         139.983         33.5939 
       0.944975         139.517         33.0776 
       0.951105         137.787          32.574 
       0.957225         136.739         32.0818 
       0.963368         136.405          31.598 
       0.969511         134.743         31.1242 
       0.975621         132.839         30.6626 
       0.981748         132.796         30.2093 
       0.987916          131.99         29.7622 
        0.99406         130.875         29.3259 
        1.00019         130.247         28.8992 
        1.00632         129.082         28.4814 
        1.01246         128.212         28.0712 
        1.01859         127.018         27.6698 
        1.02471         126.138         27.2767 
        1.03085         125.358         26.8899 
        1.03698         124.637         26.5114 
        1.04314         124.112         26.1387 
        1.04929         123.272         25.7739 
        1.05541         122.745         25.4176 
        1.06154         121.374         25.0672 
        1.06769         120.655         24.7228 
        1.07382         119.749         24.3861 
        1.07993         118.996         24.0564 
        1.08607         118.824         23.7315 
        1.09222         117.384         23.4122 
        1.09836         116.756         23.0992 
        1.10449         116.177         22.7923 
        1.11063         114.966         22.4906 
        1.11677         114.563         22.1945 
         1.1229         113.662         21.9043 
        1.12903         112.579         21.6189 
        1.13518         111.998         21.3385 
        1.14131          111.76         21.0631 
        1.14745         110.624         20.7928 
        1.15359         110.045         20.5272 
        1.15973         109.462         20.2661 
        1.16584         108.654         20.0107 
        1.17197         108.182         19.7594 
        1.17811         107.261         19.5115 
        1.18424         106.605         19.2687 
        1.19038         106.028         19.0292 
        1.19652         105.215          18.794 
        1.20267         104.446         18.5627 
        1.20881         103.792         18.3353 
        1.21495         103.668         18.1121 
        1.22108         102.706         17.8926 
         1.2272         102.447         17.6773 
        1.23334         101.573          17.465 
        1.23949         101.013         17.2557 
        1.24562         100.211         17.0504 
        1.25174         100.165         16.8488 
        1.25789         99.2041         16.6498 
        1.26402         98.6828         16.4544 
        1.27014         97.8939         16.2626 
        1.27628         97.6404         16.0732 
        1.28244         96.9818         15.8866 
        1.28858         96.4452         15.7031 
        1.29471         95.6915         15.5229 
        1.30084         95.0986         15.3457 
        1.30697         94.4633         15.1711 
        1.31312         94.1483         14.9989 
        1.31925         93.1814         14.8299 
        1.32537         92.8415         14.6637 
        1.33151         92.5357         14.4994 
        1.33765         91.8716         14.3377 
        1.34378         91.5817         14.1788 
        1.34992         90.8521         14.0223 
        1.35606         90.5588         13.8677 
         1.3622         90.0532         13.7157 
        1.36833         89.3542         13.5664 
        1.37445         89.0096         13.4194 
        1.38059         88.3596         13.2741 
        1.38675         87.9522         13.1306 
        1.39288         87.3898         12.9898 
        1.39901         86.8507         12.8511 
        1.40515         86.4347         12.7141 
         1.4113         85.9236         12.5792 
        1.41742         85.7175         12.4467 
        1.42355         85.1088         12.3159 
         1.4297         84.5471         12.1866 
        1.43585          84.218         12.0591 
        1.44198         83.6006          11.934 
        1.44809         83.1445         11.8109 
        1.45423         82.9542         11.6891 
        1.46036         82.1597         11.5692 
        1.46649         81.7496         11.4509 
        1.47263         81.2313         11.3342 
        1.47877         81.0234         11.2192 
        1.48491         80.4506         11.1056 
        1.49104         79.9615         10.9938 
        1.49718         79.5171         10.8834 
        1.50333         79.0479         10.7744 
        1.50947         78.9533         10.6671 
         1.5156         78.3036         10.5614 
        1.52172          77.697         10.4571 
        1.52787          77.551         10.3541 
          1.534          77.112         10.2525 
        1.54013         76.6266         10.1524 
        1.54627         76.2155         10.0535 
        1.55241         76.0157         9.95585 
        1.55855         75.2983         9.85964 
        1.56467         74.9168         9.76497 
         1.5708         74.3357         9.67127 
        1.57695         74.1922         9.57866 
        1.58308         73.7805         9.48747 
        1.58922         73.4522          9.3974 
        1.59535         73.2612         9.30853 
         1.6015         72.5725         9.22069 
        1.60764         72.2097         9.13401 
        1.61376         72.1212         9.04869 
        1.61989         71.5596         8.96439 
        1.62604         71.2576         8.88097 
        1.63218          70.699         8.79866 
        1.63831         70.4592         8.71758 
        1.64444         70.0035         8.63749 
        1.65059         69.6157         8.55821 
        1.65673         69.4794         8.48002 
        1.66285         69.0648         8.40301 
        1.66898         68.4532         8.32694 
        1.67512         68.0748         8.25165 
        1.68127         67.8945         8.17723 
         1.6874         67.6117         8.10389 
        1.69353         67.1355         8.03148 
        1.69967         66.7525         7.95979 
        1.70581          66.477           7.889 
        1.71193         66.1324         7.81934 
        1.71806         65.7355         7.75036 
        1.72421         65.3882         7.68209 
        1.73035         65.0311          7.6147 
        1.73649         64.7875         7.54814 
        1.74262         64.4066         7.48243 
        1.74876         63.9757         7.41745 
        1.75489         63.8695         7.35337 
        1.76101         63.5667         7.29007 
        1.76715          63.115         7.22743 
        1.77329         62.7881         7.16544 
        1.77943         62.4636         7.10415 
        1.78557         62.2635         7.04367 
        1.79171         61.7906         6.98388 
        1.79785         61.5685         6.92477 
        1.80399         61.2779         6.86635 
        1.81012         60.8393         6.80868 
        1.81625         60.5991          6.7517 
        1.82239         60.1496         6.69529 
        1.82853         60.0239         6.63954 
        1.83466         59.6846         6.58448 
        1.84078         59.2845          6.5301 
        1.84692         59.1263         6.47624 
        1.85306         59.0141         6.42292 
         1.8592         58.5989         6.37029 
        1.86533         58.1904         6.31827 
        1.87147         57.8784         6.26677 
        1.87761         57.4667         6.21582 
        1.88375         57.3573          6.1655 
        1.88988         57.0586         6.11579 
        1.89601         56.8582         6.06659 
        1.90215         56.5555          6.0179 
        1.90829         56.1169         5.96976 
        1.91442         55.7927         5.92214 
        1.92056         55.6302         5.87509 
         1.9267         55.3464         5.82849 
        1.93284         55.1839         5.78238 
        1.93897         54.7603         5.73684 
        1.94509         54.5727         5.69189 
        1.95123         54.2349         5.64731 
        1.95737         54.0168         5.60318 
        1.96349         53.8614         5.55962 
        1.96964         53.5188          5.5164 
        1.97578         53.1128         5.47362 
        1.98192         52.8149         5.43138 
        1.98805         52.6081         5.38958 
        1.99419         52.5609         5.34822 
        2.00033         52.1391         5.30726 
        2.00647         51.8156         5.26675 
         2.0126         51.7268         5.22673 
        2.01874         51.5288         5.18706 
        2.02488         51.2037         5.14776 
        2.03101         50.8474         5.10895 
        2.03714         50.6604         5.07056 
        2.04328         50.5048         5.03253 
        2.04941         50.1653         4.99492 
        2.05554         49.8315         4.95772 
        2.06167         49.6333         4.92085 
        2.06781         49.4491         4.88434 
        2.07396         49.1115         4.84815 
        2.08009         48.9763         4.81239 
        2.08622         48.6151         4.77703 
        2.09237         48.4656         4.74196 
        2.09851         48.1605         4.70723 
        2.10464         47.8897          4.6729 
        2.11077          47.763         4.63895 
        2.11691         47.5357         4.60527 
        2.12305         47.2189         4.57192 
        2.12918         46.9718         4.53897 
        2.13531         46.8359         4.50635 
        2.14145         46.5155         4.47397 
         2.1476         46.4831         4.44187 
        2.15372         46.0771         4.41025 
        2.15985         45.9203          4.3789 
        2.16599         45.7403         4.34776 
        2.17213         45.5246         4.31696 
        2.17827         45.1618         4.28647 
         2.1844         44.9873         4.25629 
        2.19054         44.8884          4.2264 
        2.19666         44.6113         4.19683 
         2.2028         44.4088         4.16752 
        2.20893         44.0906         4.13847 
        2.21508         43.9871         4.10967 
        2.22122         43.6295         4.08113 
        2.22736         43.4837         4.05292 
        2.23349         43.3193         4.02498 
        2.23962         43.1699         3.99729 
        2.24577         42.9052         3.96984 
         2.2519         42.6544         3.94267 
        2.25802         42.4723         3.91581 
        2.26417         42.3173         3.88912 
        2.27031         42.1187         3.86265 
        2.27644         41.7996         3.83651 
        2.28257         41.7033         3.81061 
        2.28872         41.4348          3.7849 
        2.29486         41.2575         3.75943 
        2.30099          41.048         3.73424 
        2.30712         40.8567         3.70927 
        2.31326         40.6579         3.68449 
         2.3194         40.4814         3.65995 
        2.32553         40.2731         3.63567 
        2.33166         40.1381         3.61163 
         2.3378         39.8759         3.58776 
        2.34394         39.7535         3.56411 
        2.35007         39.5463          3.5407 
        2.35619         39.3368         3.51752 
        2.36233         39.1992          3.4945 
        2.36848         38.9494         3.47164 
        2.37462         38.7904         3.44903 
        2.38075         38.5364         3.42664 
        2.38689         38.3919         3.40443 
        2.39303         38.2818         3.38242 
        2.39916         38.0874         3.36063 
        2.40529         37.9386         3.33903 
        2.41143         37.7728          3.3176 
        2.41757         37.5398         3.29635 
         2.4237         37.3752         3.27533 
        2.42983         37.2303         3.25449 
        2.43598         37.0627         3.23378 
        2.44211         36.8249         3.21328 
        2.44823          36.688           3.193 
        2.45437         36.4652         3.17284 
        2.46052         36.3162         3.15284 
        2.46665         36.1367         3.13304 
        2.47279         35.9465         3.11342 
        2.47892         35.7979         3.09396 
        2.48507         35.6446         3.07464 
         2.4912          35.451         3.05552 
