# k  (h/Mpc)    Pcb(k)  (Mpc/h)^3    Pcb_linear(k)  (Mpc/h)^3
     0.00783031         1066.06         1075.53 
       0.013688         1390.61         1391.69 
       0.019231         1478.94         1479.14 
      0.0249154         1432.55         1441.43 
      0.0312784         1320.16          1322.9 
      0.0375637         1185.57         1184.09 
      0.0433917         1062.65         1066.13 
      0.0492413          969.54         969.593 
      0.0555754         884.501          889.69 
      0.0619321         830.773         827.676 
       0.067871         773.677         777.296 
      0.0738098         723.273         727.306 
      0.0800417         665.553          671.61 
      0.0862327         610.155         613.392 
      0.0921407          556.73         558.242 
      0.0982031         503.382         506.018 
       0.104506         461.437          459.72 
       0.110769         424.597         423.149 
       0.116806         395.091           396.1 
       0.122832         375.922         375.043 
       0.129052         355.288         356.732 
       0.135211         337.766         339.396 
       0.141259          321.54         321.466 
       0.147318         303.536         302.108 
       0.153489         281.811         281.524 
       0.159709          262.27         261.148 
       0.165845         246.397         242.718 
       0.171974          228.72         226.876 
       0.178125         216.243         213.845 
       0.184229         206.608         203.455 
        0.19034         195.727         194.877 
       0.196428          189.78         187.282 
       0.202534         183.761          179.84 
       0.208729         174.945         171.961 
       0.214876         165.648         163.682 
       0.220989         159.269         155.188 
       0.227147          149.14         146.759 
        0.23329         141.685         138.896 
       0.239377         135.615         131.944 
       0.245482         128.414         125.923 
       0.251667         124.793         120.722 
       0.257832         120.167         116.223 
       0.263955         116.035         112.155 
       0.270079         112.178         108.231 
        0.27624         109.219         104.254 
       0.282372         104.992         100.202 
        0.28843         100.508         96.1517 
       0.294538         96.5457         92.1229 
       0.300721         93.6335         88.2344 
        0.30691         89.3331         84.6355 
       0.313033         86.3514         81.4176 
       0.319153         82.4086         78.5323 
       0.325316         81.0463         75.9037 
        0.33145         78.2694         73.4802 
       0.337538         76.2401         71.1831 
       0.343633         73.7369         68.9265 
       0.349808         71.6584         66.6564 
       0.355968         69.4883         64.4045 
       0.362074         67.2404         62.2147 
       0.368217         65.2633         60.0873 
       0.374374         63.0925         58.0667 
       0.380519         61.4397         56.1819 
       0.386598         59.7813         54.4481 
       0.392688         58.4409         52.8321 
        0.39888          56.767         51.2857 
       0.405048         55.4565         49.8166 
       0.411186          54.188         48.4028 
       0.417313         52.3849         47.0225 
       0.423458         51.1361         45.6664 
       0.429607         49.7092         44.3414 
       0.435692         48.2293         43.0692 
       0.441815         47.3328         41.8387 
       0.447964         46.5141         40.6608 
       0.454126         44.7888         39.5392 
       0.460267         43.9143         38.4789 
       0.466387         42.6526         37.4733 
        0.47254         42.0135         36.5041 
       0.478662         41.2238         35.5732 
       0.484765         40.0923         34.6734 
       0.490885         39.1544         33.7957 
       0.497035         38.6493         32.9364 
       0.503198         37.6595         32.1005 
       0.509342         36.7201         31.2948 
       0.515458          35.948         30.5217 
       0.521598         35.3254         29.7749 
       0.527764         34.5573         29.0544 
       0.533884         33.9574         28.3674 
           0.54         33.2774         27.7062 
       0.546137         32.7031         27.0645 
       0.552299         32.1634         26.4399 
       0.558452         31.1771         25.8345 
       0.564573         30.7864         25.2495 
       0.570708         30.2648         24.6797 
       0.576825         29.4917         24.1281 
       0.582926           29.01         23.5946 
       0.589034         28.2251         23.0773 
       0.595184         27.8521         22.5736 
       0.601379         27.3389         22.0829 
       0.607522         26.9036         21.6118 
       0.613639         26.6201         21.1568 
       0.619772         25.9311         20.7138 
       0.625918         25.7715         20.2826 
       0.632068         25.3389         19.8632 
       0.638161         24.7931         19.4591 
         0.6443         24.2988         19.0631 
       0.650464         23.8657         18.6764 
       0.656582         23.7009         18.3032 
       0.662703         23.2718         17.9403 
       0.668861         22.8598         17.5855 
       0.675024          22.445         17.2405 
       0.681124         22.0713         16.9087 
       0.687237         21.7372         16.5851 
       0.693381         21.5113         16.2686 
       0.699536         20.9447         15.9597 
       0.705665         20.7986         15.6601 
       0.711789         20.4319         15.3683 
       0.717957         20.1397          15.082 
        0.72409         19.8236         14.8045 
       0.730186         19.5701         14.5359 
       0.736317         19.3689         14.2725 
       0.742472         19.0585         14.0149 
       0.748622         18.8031          13.764 
        0.75476         18.4349         13.5198 
       0.760888         18.2408          13.282 
       0.767043         18.0242          13.049 
       0.773185         17.6763         12.8221 
       0.779291         17.5627         12.6019 
       0.785407         17.3063         12.3866 
       0.791564         17.0187          12.175 
       0.797719         16.7341         11.9685 
       0.803834          16.643         11.7681 
       0.809972         16.4975         11.5716 
       0.816124         16.1328         11.3793 
       0.822261         15.9665         11.1918 
       0.828378         15.7735         11.0092 
       0.834502         15.6294         10.8306 
       0.840667         15.3942         10.6548 
       0.846816         15.1418         10.4835 
       0.852925         15.0081          10.317 
       0.859047         14.8341         10.1538 
       0.865192         14.7128         9.99357 
       0.871341          14.569         9.83675 
       0.877463         14.3357         9.68403 
       0.883569         14.1258         9.53496 
       0.889708         13.9123         9.38828 
       0.895864         13.8361         9.24433 
       0.902008          13.694         9.10372 
       0.908149         13.5453         8.96613 
       0.914301         13.3863         8.83119 
       0.920448         13.1719         8.69917 
       0.926574          13.042         8.57033 
       0.932687         12.9348         8.44439 
       0.938823         12.7593         8.32055 
       0.944975         12.6011         8.19892 
       0.951105         12.5033         8.08018 
       0.957225         12.4208         7.96401 
       0.963368         12.2664         7.84975 
       0.969511         12.1498         7.73774 
       0.975621         12.0094         7.62853 
       0.981748          11.884         7.52116 
       0.987916         11.7874          7.4152 
        0.99406         11.6118         7.31169 
        1.00019         11.4441         7.21037 
        1.00632         11.4372         7.11108 
        1.01246         11.3063         7.01352 
        1.01859         11.1485         6.91796 
        1.02471         11.0672         6.82431 
        1.03085         10.9666         6.73208 
        1.03698          10.814         6.64176 
        1.04314          10.747         6.55272 
        1.04929         10.6038         6.46553 
        1.05541         10.4982         6.38029 
        1.06154         10.4143         6.29638 
        1.06769         10.3694         6.21387 
        1.07382         10.2096         6.13311 
        1.07993         10.1273         6.05397 
        1.08607         10.0549         5.97592 
        1.09222         9.96124         5.89916 
        1.09836         9.86267         5.82386 
        1.10449         9.77034         5.74995 
        1.11063         9.69293         5.67726 
        1.11677         9.62358         5.60585 
         1.1229         9.54357          5.5358 
        1.12903         9.44615          5.4669 
        1.13518         9.34256         5.39911 
        1.14131         9.24984         5.33251 
        1.14745         9.15972         5.26708 
        1.15359         9.11105         5.20275 
        1.15973         9.03421         5.13946 
        1.16584         8.91799         5.07752 
        1.17197         8.85743         5.01651 
        1.17811         8.80757         4.95633 
        1.18424         8.74401         4.89731 
        1.19038         8.68914         4.83908 
        1.19652         8.60187         4.78183 
        1.20267         8.50208         4.72551 
        1.20881         8.47541         4.67012 
        1.21495         8.40053          4.6157 
        1.22108          8.3093         4.56216 
         1.2272         8.27377          4.5096 
        1.23334         8.16791         4.45776 
        1.23949         8.10782         4.40661 
        1.24562         8.07438          4.3564 
        1.25174         7.98742         4.30706 
        1.25789          7.9372         4.25833 
        1.26402          7.8827         4.21045 
        1.27014         7.81429         4.16343 
        1.27628         7.75132         4.11698 
        1.28244         7.66702         4.07115 
        1.28858         7.65177         4.02609 
        1.29471         7.57308         3.98181 
        1.30084         7.50326         3.93824 
        1.30697         7.50815         3.89526 
        1.31312         7.36984         3.85286 
        1.31925         7.34636         3.81123 
        1.32537          7.2902         3.77026 
        1.33151         7.26167         3.72974 
        1.33765         7.17323         3.68985 
        1.34378         7.12195         3.65062 
        1.34992         7.09129         3.61193 
        1.35606         7.02343         3.57372 
         1.3622         6.99121         3.53614 
        1.36833         6.94075         3.49918 
        1.37445         6.89551         3.46278 
        1.38059          6.8658         3.42678 
        1.38675         6.80995         3.39121 
        1.39288         6.75739         3.35629 
        1.39901         6.69251         3.32188 
        1.40515           6.661         3.28787 
         1.4113         6.62001         3.25435 
        1.41742         6.57687         3.22143 
        1.42355         6.52167         3.18891 
         1.4297          6.4699         3.15674 
        1.43585         6.45168         3.12502 
        1.44198         6.42512         3.09387 
        1.44809         6.35218          3.0632 
        1.45423          6.3092         3.03283 
        1.46036         6.26909         3.00293 
        1.46649         6.21936         2.97343 
        1.47263         6.17873         2.94429 
        1.47877         6.13541         2.91557 
        1.48491         6.10091         2.88718 
        1.49104          6.0718         2.85923 
        1.49718          6.0314         2.83163 
        1.50333         5.99628         2.80435 
        1.50947         5.95592         2.77749 
         1.5156         5.91943         2.75102 
        1.52172          5.8882          2.7249 
        1.52787         5.85308         2.69907 
          1.534         5.80748          2.6736 
        1.54013         5.78474         2.64849 
        1.54627         5.72866         2.62365 
        1.55241         5.69919         2.59913 
        1.55855         5.67806         2.57496 
        1.56467         5.63759         2.55117 
         1.5708          5.6036          2.5276 
        1.57695         5.55882          2.5043 
        1.58308         5.52512         2.48135 
        1.58922         5.51088         2.45867 
        1.59535         5.47664         2.43628 
         1.6015         5.43966         2.41414 
        1.60764         5.40607         2.39229 
        1.61376         5.37545         2.37077 
        1.61989         5.34927         2.34949 
        1.62604         5.30937         2.32843 
        1.63218         5.29634         2.30764 
        1.63831         5.26121         2.28716 
        1.64444         5.23004         2.26691 
        1.65059         5.18481         2.24686 
        1.65673         5.17061         2.22708 
        1.66285         5.12729         2.20759 
        1.66898         5.11019         2.18833 
        1.67512         5.07382         2.16926 
        1.68127         5.04887          2.1504 
         1.6874         5.02918         2.13181 
        1.69353         4.98448         2.11345 
        1.69967         4.96699         2.09526 
        1.70581         4.94279          2.0773 
        1.71193         4.91819         2.05961 
        1.71806         4.89399         2.04209 
        1.72421         4.86274         2.02475 
        1.73035         4.84453         2.00762 
        1.73649          4.8114          1.9907 
        1.74262         4.77879         1.97398 
        1.74876         4.77282         1.95745 
        1.75489         4.74493         1.94114 
        1.76101         4.70572         1.92502 
        1.76715         4.68968         1.90906 
        1.77329         4.66853         1.89327 
        1.77943         4.62635         1.87764 
        1.78557         4.61961         1.86222 
        1.79171         4.58868         1.84696 
        1.79785         4.56486         1.83188 
        1.80399         4.54338         1.81697 
        1.81012         4.52759         1.80224 
        1.81625         4.49474         1.78768 
        1.82239         4.47321         1.77326 
        1.82853         4.45123         1.75901 
        1.83466         4.44067         1.74493 
        1.84078         4.41296         1.73101 
        1.84692         4.39741         1.71723 
        1.85306         4.36175         1.70358 
         1.8592         4.33957          1.6901 
        1.86533         4.32311         1.67677 
        1.87147         4.30755         1.66357 
        1.87761         4.28318         1.65051 
        1.88375         4.25764         1.63761 
        1.88988         4.23505         1.62485 
        1.89601         4.22237         1.61223 
        1.90215         4.19995         1.59973 
        1.90829         4.17469         1.58737 
        1.91442         4.16171         1.57513 
        1.92056         4.13334         1.56304 
         1.9267         4.12284         1.55106 
        1.93284         4.10275          1.5392 
        1.93897         4.08164         1.52749 
        1.94509         4.05126         1.51593 
        1.95123          4.0359         1.50445 
        1.95737         4.01508         1.49309 
        1.96349         4.00305         1.48187 
        1.96964         3.99317         1.47074 
        1.97578         3.96475         1.45971 
        1.98192         3.95167         1.44882 
        1.98805         3.93393         1.43804 
        1.99419         3.91528         1.42737 
        2.00033         3.90505         1.41681 
        2.00647         3.88014         1.40635 
         2.0126          3.8669         1.39601 
        2.01874         3.83727         1.38577 
        2.02488         3.82844         1.37562 
        2.03101         3.80268         1.36559 
        2.03714         3.78873         1.35567 
        2.04328         3.77444         1.34583 
        2.04941         3.74686          1.3361 
        2.05554          3.7417         1.32648 
        2.06167          3.7254         1.31694 
        2.06781         3.71151         1.30748 
        2.07396         3.69836         1.29811 
        2.08009         3.67751         1.28885 
        2.08622         3.65561         1.27969 
        2.09237         3.65218          1.2706 
        2.09851         3.63037         1.26159 
        2.10464         3.61628         1.25269 
        2.11077         3.59936         1.24388 
        2.11691         3.58552         1.23514 
        2.12305         3.57323         1.22649 
        2.12918         3.56299         1.21793 
        2.13531         3.54388         1.20946 
        2.14145         3.52834         1.20105 
         2.1476         3.50862         1.19271 
        2.15372         3.49674         1.18449 
        2.15985         3.48189         1.17634 
        2.16599         3.46839         1.16824 
        2.17213         3.45043         1.16023 
        2.17827         3.43914          1.1523 
         2.1844         3.42499         1.14444 
        2.19054         3.41623         1.13666 
        2.19666         3.39727         1.12896 
         2.2028         3.38177         1.12133 
        2.20893         3.37062         1.11376 
        2.21508         3.35309         1.10625 
        2.22122         3.34021         1.09881 
        2.22736         3.32539         1.09145 
        2.23349          3.3194         1.08417 
        2.23962         3.30029         1.07694 
        2.24577         3.28754         1.06978 
         2.2519         3.27703         1.06269 
        2.25802          3.2663         1.05567 
        2.26417         3.25221          1.0487 
        2.27031         3.23706         1.04179 
        2.27644         3.22827         1.03496 
        2.28257         3.21082         1.02819 
        2.28872         3.20178         1.02147 
        2.29486         3.18908         1.01481 
        2.30099         3.17563         1.00822 
        2.30712         3.15947         1.00169 
        2.31326         3.15179        0.995202 
         2.3194          3.1383        0.988778 
        2.32553         3.12445        0.982422 
        2.33166         3.11654        0.976124 
         2.3378         3.10366        0.969873 
        2.34394         3.09233        0.963675 
        2.35007         3.07827        0.957539 
        2.35619         3.07385        0.951465 
        2.36233         3.06024        0.945429 
        2.36848         3.04501        0.939433 
        2.37462         3.03629        0.933501 
        2.38075         3.02378        0.927627 
        2.38689         3.01324        0.921798 
        2.39303         3.00354         0.91602 
        2.39916         2.99086        0.910298 
        2.40529         2.97915        0.904625 
        2.41143          2.9691        0.898996 
        2.41757         2.95706        0.893412 
         2.4237         2.94766        0.887887 
        2.42983         2.92696        0.882408 
        2.43598         2.93186        0.876961 
        2.44211         2.91238         0.87157 
        2.44823         2.90742        0.866235 
        2.45437         2.89288        0.860931 
        2.46052          2.8833        0.855667 
        2.46665         2.87602        0.850455 
        2.47279         2.86398        0.845289 
        2.47892         2.85472        0.840163 
        2.48507         2.84662        0.835074 
         2.4912         2.82898        0.830037 
