# k  (h/Mpc)    P(k)  (Mpc/h)^3    P_linear(k)  (Mpc/h)^3
     0.00783031         15358.4         15592.8 
       0.013688         18866.3         18702.8 
       0.019231         18471.4         18429.1 
      0.0249154         16204.3         16533.3 
      0.0312784         13703.5         13832.6 
      0.0375637         11466.8         11436.5 
      0.0433917         9640.57            9773 
      0.0492413         8614.75         8643.81 
      0.0555754         7657.87          7863.9 
      0.0619321         7346.62         7311.38 
       0.067871         6659.78         6820.17 
      0.0738098          6111.8         6253.98 
      0.0800417         5400.18         5569.83 
      0.0862327         4794.77         4863.29 
      0.0921407         4286.84         4246.06 
      0.0982031         3762.55         3732.59 
       0.104506         3494.73         3350.81 
       0.110769         3231.92         3106.86 
       0.116806          3058.3         2956.74 
       0.122832         2931.69         2839.92 
       0.129052         2730.93         2708.68 
       0.135211         2577.26          2542.6 
       0.141259         2439.52         2344.45 
       0.147318         2264.62         2130.12 
       0.153489          2049.9         1922.24 
       0.159709         1917.23         1745.91 
       0.165845         1829.36         1614.93 
       0.171974         1729.37          1524.5 
       0.178125         1651.01         1462.88 
       0.184229         1585.56         1415.01 
        0.19034         1497.25         1365.69 
       0.196428         1464.63         1305.76 
       0.202534         1405.79         1232.73 
       0.208729         1329.73         1150.08 
       0.214876         1262.78         1067.85 
       0.220989         1212.15         993.923 
       0.227147         1156.08          932.58 
        0.23329         1108.23         885.633 
       0.239377         1087.34         850.732 
       0.245482         1018.06         822.799 
       0.251667         1012.06         796.573 
       0.257832         971.563         768.349 
       0.263955         938.622          736.41 
       0.270079         902.398         701.013 
        0.27624         890.187         664.043 
       0.282372         852.314         628.704 
        0.28843         838.686         597.396 
       0.294538         795.054         570.671 
       0.300721         790.453         548.411 
        0.30691         756.958         529.819 
       0.313033         741.905         513.399 
       0.319153         724.105         497.373 
       0.325316         701.629         480.517 
        0.33145         683.017         462.718 
       0.337538         671.085         444.361 
       0.343633         652.681          426.09 
       0.349808         629.035         408.507 
       0.355968         624.264         392.593 
       0.362074         615.858         378.608 
       0.368217         597.262          366.24 
       0.374374          571.97         355.083 
       0.380519         571.122         344.623 
       0.386598         555.007         334.498 
       0.392688          552.41         324.242 
        0.39888         535.875         313.671 
       0.405048         526.224         303.152 
       0.411186         518.197         292.919 
       0.417313         507.596         283.217 
       0.423458         497.392         274.186 
       0.429607         490.208         265.852 
       0.435692         478.267         258.262 
       0.441815         473.774         251.123 
       0.447964         463.619         244.256 
       0.454126         455.451         237.535 
       0.460267         445.888         230.938 
       0.466387         440.616         224.427 
        0.47254         433.881         217.987 
       0.478662         431.641         211.781 
       0.484765         416.615         205.873 
       0.490885         413.127         200.249 
       0.497035         405.134         194.903 
       0.503198         400.586         189.847 
       0.509342          397.47         185.046 
       0.515458         393.311         180.438 
       0.521598         383.079         175.928 
       0.527764         377.138         171.502 
       0.533884         374.602         167.216 
           0.54          369.44         163.045 
       0.546137         367.533         158.982 
       0.552299         360.391         155.045 
       0.558452          358.41         151.274 
       0.564573         353.352         147.688 
       0.570708         347.319         144.241 
       0.576825          339.79         140.927 
       0.582926         338.438         137.723 
       0.589034         335.257         134.602 
       0.595184         332.293         131.546 
       0.601379         327.016         128.554 
       0.607522         322.498         125.672 
       0.613639         321.002         122.886 
       0.619772         314.117         120.177 
       0.625918         312.934         117.547 
       0.632068         307.704         115.001 
       0.638161         306.446         112.564 
         0.6443         301.381         110.187 
       0.650464         298.633         107.875 
       0.656582         296.021         105.645 
       0.662703         295.314         103.475 
       0.668861         290.178         101.347 
       0.675024         286.981         99.2729 
       0.681124         284.847         97.2751 
       0.687237         282.022          95.328 
       0.693381         277.754         93.4268 
       0.699536         274.896         91.5777 
       0.705665         272.742         89.7899 
       0.711789         271.202          88.054 
       0.717957         269.193         86.3536 
        0.72409         266.637          84.708 
       0.730186         263.295         83.1147 
       0.736317          260.66         81.5525 
       0.742472         259.002         80.0235 
       0.748622         256.689         78.5342 
        0.75476         253.957         77.0856 
       0.760888         251.154         75.6757 
       0.767043         251.227         74.2957 
       0.773185         248.251         72.9535 
       0.779291         244.094          71.653 
       0.785407         243.622         70.3829 
       0.791564         240.703         69.1362 
       0.797719         238.225         67.9207 
       0.803834         236.342         66.7425 
       0.809972         235.587         65.5882 
       0.816124         234.724         64.4587 
       0.822261         232.076         63.3589 
       0.828378         229.857          62.288 
       0.834502         228.454          61.241 
       0.840667         226.099         60.2113 
       0.846816         224.572         59.2082 
       0.852925         223.421         58.2344 
       0.859047           221.5         57.2805 
       0.865192         218.714         56.3449 
       0.871341         217.117         55.4298 
       0.877463         216.067         54.5392 
       0.883569         215.161         53.6705 
       0.889708         212.591         52.8165 
       0.895864          210.72         51.9789 
       0.902008         209.432         51.1613 
       0.908149         208.453         50.3619 
       0.914301         205.714         49.5784 
       0.920448         204.655         48.8123 
       0.926574         202.879         48.0652 
       0.932687         202.917         47.3353 
       0.938823         200.364          46.618 
       0.944975         199.316          45.914 
       0.951105         198.132         45.2272 
       0.957225         196.624         44.5556 
       0.963368         193.917         43.8953 
       0.969511         193.243         43.2485 
       0.975621         191.424         42.6183 
       0.981748          191.32          41.999 
       0.987916         189.572         41.3882 
        0.99406         187.573         40.7918 
        1.00019         187.384         40.2084 
        1.00632         185.738          39.637 
        1.01246         184.377         39.0758 
        1.01859         184.336         38.5265 
        1.02471         181.529         37.9884 
        1.03085         180.189         37.4587 
        1.03698          179.33         36.9404 
        1.04314         177.654         36.4296 
        1.04929         176.808         35.9298 
        1.05541         176.695         35.4413 
        1.06154         174.491         34.9607 
        1.06769         174.251         34.4884 
        1.07382         172.678         34.0263 
        1.07993         171.333         33.5738 
        1.08607         170.859         33.1277 
        1.09222         169.732         32.6893 
        1.09836         168.377         32.2593 
        1.10449         166.591         31.8376 
        1.11063         165.339          31.423 
        1.11677         164.955         31.0159 
         1.1229         163.645         30.6168 
        1.12903         162.962         30.2243 
        1.13518         161.942         29.8385 
        1.14131           160.4         29.4596 
        1.14745          160.35         29.0875 
        1.15359         158.973         28.7218 
        1.15973         157.832         28.3622 
        1.16584         156.627         28.0104 
        1.17197         156.252         27.6641 
        1.17811         154.839         27.3226 
        1.18424         154.138         26.9879 
        1.19038         153.757         26.6578 
        1.19652         152.384         26.3334 
        1.20267         151.752         26.0143 
        1.20881         150.508         25.7007 
        1.21495         149.646         25.3927 
        1.22108         148.694         25.0898 
         1.2272         147.575         24.7925 
        1.23334         147.193         24.4994 
        1.23949         146.016         24.2103 
        1.24562         145.206         23.9267 
        1.25174         144.315         23.6481 
        1.25789         143.356         23.3731 
        1.26402         142.058         23.1029 
        1.27014         141.129         22.8377 
        1.27628         140.819         22.5758 
        1.28244         140.537         22.3176 
        1.28858         139.197         22.0637 
        1.29471         137.975         21.8144 
        1.30084         137.791         21.5691 
        1.30697         136.363         21.3273 
        1.31312          135.75         21.0888 
        1.31925           134.9         20.8547 
        1.32537         134.468         20.6244 
        1.33151         133.206         20.3968 
        1.33765         132.464         20.1727 
        1.34378         131.968         19.9525 
        1.34992         131.451         19.7354 
        1.35606         131.091          19.521 
         1.3622         129.645         19.3103 
        1.36833         128.704         19.1031 
        1.37445         128.233         18.8991 
        1.38059         127.324         18.6975 
        1.38675         126.786         18.4983 
        1.39288         126.244         18.3028 
        1.39901         125.868         18.1102 
        1.40515         124.496           17.92 
         1.4113         123.983         17.7325 
        1.41742         123.111         17.5485 
        1.42355         122.483         17.3667 
         1.4297          121.89          17.187 
        1.43585         121.012         17.0099 
        1.44198         120.486         16.8359 
        1.44809         119.958         16.6647 
        1.45423         119.356         16.4953 
        1.46036         118.465         16.3285 
        1.46649         117.642          16.164 
        1.47263         116.971         16.0016 
        1.47877         116.458         15.8415 
        1.48491         115.357         15.6833 
        1.49104         115.319         15.5276 
        1.49718          114.35          15.374 
        1.50333         113.801         15.2221 
        1.50947         113.267         15.0727 
         1.5156         112.593         14.9254 
        1.52172         111.912         14.7801 
        1.52787         111.194         14.6365 
          1.534          110.75         14.4949 
        1.54013         110.142         14.3554 
        1.54627         109.602         14.2174 
        1.55241         108.736         14.0813 
        1.55855         108.099         13.9471 
        1.56467         107.771          13.815 
         1.5708         106.874         13.6843 
        1.57695         106.604          13.555 
        1.58308         105.988         13.4278 
        1.58922          105.63          13.302 
        1.59535         104.844          13.178 
         1.6015          104.44         13.0553 
        1.60764         103.791         12.9343 
        1.61376         103.296         12.8151 
        1.61989         102.629         12.6973 
        1.62604         102.049         12.5807 
        1.63218         101.836         12.4657 
        1.63831           100.9         12.3524 
        1.64444         100.489         12.2405 
        1.65059         99.9677         12.1296 
        1.65673         99.1855         12.0203 
        1.66285         98.8914         11.9126 
        1.66898         98.4614         11.8062 
        1.67512         97.8125         11.7009 
        1.68127         97.3156         11.5968 
         1.6874         96.5592         11.4941 
        1.69353         96.2519         11.3928 
        1.69967         95.9044         11.2925 
        1.70581         95.2112         11.1934 
        1.71193         94.7562         11.0958 
        1.71806         94.3361         10.9993 
        1.72421         93.6153         10.9037 
        1.73035         93.4106         10.8093 
        1.73649         92.8327          10.716 
        1.74262         92.1502          10.624 
        1.74876         91.8944         10.5329 
        1.75489         91.2077         10.4431 
        1.76101         90.6656         10.3544 
        1.76715         90.1484         10.2666 
        1.77329         89.9235         10.1797 
        1.77943         89.1475         10.0938 
        1.78557         88.9933         10.0089 
        1.79171          88.135         9.92509 
        1.79785         87.7855         9.84217 
        1.80399         87.2799         9.76022 
        1.81012         86.9423         9.67931 
        1.81625         86.5353         9.59935 
        1.82239         86.1316         9.52017 
        1.82853         85.6298         9.44193 
        1.83466         85.0714         9.36464 
        1.84078          84.731         9.28829 
        1.84692         84.2569         9.21267 
        1.85306         83.8241          9.1378 
         1.8592         83.5046         9.06388 
        1.86533         82.8775         8.99082 
        1.87147         82.4608         8.91847 
        1.87761         82.0859         8.84689 
        1.88375         81.5377         8.77618 
        1.88988         81.2471         8.70632 
        1.89601         80.7458         8.63717 
        1.90215         80.2517         8.56872 
        1.90829          79.917         8.50105 
        1.91442         79.5398          8.4341 
        1.92056         79.0019         8.36793 
         1.9267           78.73          8.3024 
        1.93284         78.2774         8.23753 
        1.93897         77.9003         8.17347 
        1.94509         77.5769         8.11024 
        1.95123          77.143         8.04751 
        1.95737         76.6137          7.9854 
        1.96349         76.2268         7.92411 
        1.96964         75.7881         7.86328 
        1.97578          75.413         7.80306 
        1.98192          75.329          7.7436 
        1.98805         74.5965         7.68474 
        1.99419         74.3766          7.6265 
        2.00033         74.0998         7.56883 
        2.00647         73.5977         7.51176 
         2.0126         73.2494         7.45539 
        2.01874         72.6465          7.3995 
        2.02488         72.4619         7.34414 
        2.03101         71.9726         7.28944 
        2.03714         71.4781         7.23535 
        2.04328         71.3081         7.18175 
        2.04941         70.9631         7.12874 
        2.05554         70.6478         7.07629 
        2.06167         70.2636         7.02431 
        2.06781         69.7424         6.97283 
        2.07396         69.4334          6.9218 
        2.08009         69.1936         6.87137 
        2.08622         68.7929         6.82149 
        2.09237         68.4762         6.77202 
        2.09851         68.2075         6.72302 
        2.10464         67.7453         6.67459 
        2.11077         67.4404         6.62669 
        2.11691          67.147         6.57916 
        2.12305           66.67         6.53209 
        2.12918         66.3537         6.48559 
        2.13531         66.0461         6.43955 
        2.14145         65.6327         6.39384 
         2.1476         65.2522         6.34852 
        2.15372         65.1046         6.30386 
        2.15985         64.6673         6.25959 
        2.16599         64.3377         6.21562 
        2.17213         64.0535         6.17212 
        2.17827         63.6767         6.12904 
         2.1844         63.3477         6.08641 
        2.19054         63.1937         6.04417 
        2.19666         62.7756         6.00239 
         2.2028         62.6132         5.96097 
        2.20893          62.133         5.91992 
        2.21508          61.907          5.8792 
        2.22122         61.5419         5.83886 
        2.22736         61.2685         5.79898 
        2.23349         60.8944         5.75947 
        2.23962         60.5861         5.72032 
        2.24577         60.2811         5.68149 
         2.2519         60.0476         5.64308 
        2.25802         59.7668         5.60509 
        2.26417         59.3723         5.56733 
        2.27031         59.1289         5.52989 
        2.27644         58.8189          5.4929 
        2.28257         58.5514         5.45626 
        2.28872         58.2261         5.41987 
        2.29486         57.7865         5.38383 
        2.30099         57.4809         5.34818 
        2.30712         57.3721         5.31285 
        2.31326         57.0669         5.27777 
         2.3194         56.7805         5.24303 
        2.32553         56.4845         5.20865 
        2.33166         56.1482          5.1746 
         2.3378          55.854         5.14081 
        2.34394         55.5616         5.10731 
        2.35007         55.3338         5.07415 
        2.35619         55.1128         5.04132 
        2.36233         54.8159         5.00871 
        2.36848         54.5734         4.97632 
        2.37462         54.1634         4.94428 
        2.38075         54.0648         4.91256 
        2.38689         53.7374         4.88109 
        2.39303         53.4135         4.84989 
        2.39916          53.191           4.819 
        2.40529         52.9884         4.78839 
        2.41143         52.7057         4.75801 
        2.41757         52.3989         4.72789 
         2.4237         52.2298         4.69808 
        2.42983         51.8908         4.66853 
        2.43598         51.5846         4.63916 
        2.44211         51.3751         4.61008 
        2.44823         51.1602         4.58132 
        2.45437         50.8608         4.55273 
        2.46052         50.6569         4.52436 
        2.46665         50.4684         4.49627 
        2.47279          50.066         4.46844 
        2.47892         49.9371         4.44082 
        2.48507         49.6468         4.41341 
         2.4912         49.3984         4.38628 
