# k  (h/Mpc)    Pcb(k)  (Mpc/h)^3    Pcb_linear(k)  (Mpc/h)^3
     0.00783031         20145.5         20455.2 
       0.013688         24833.6         24562.6 
       0.019231         24278.4         24215.8 
      0.0249154         21226.4         21731.5 
      0.0312784         17966.8         18185.5 
      0.0375637         15063.8         15037.6 
      0.0433917         12632.3         12851.4 
      0.0492413         11307.6         11367.3 
      0.0555754         10011.8         10342.2 
      0.0619321         9642.45         9615.93 
       0.067871         8705.05         8970.16 
      0.0738098         7993.98         8225.68 
      0.0800417         7056.69         7325.99 
      0.0862327         6283.14         6396.78 
      0.0921407         5645.89         5585.01 
      0.0982031         4964.83         4909.68 
       0.104506         4630.46         4407.55 
       0.110769         4283.36          4086.7 
       0.116806         4062.02         3889.26 
       0.122832         3882.63         3735.62 
       0.129052         3607.19         3563.02 
       0.135211         3405.37         3344.57 
       0.141259         3237.61         3083.93 
       0.147318         3019.03            2802 
       0.153489         2738.98         2528.56 
       0.159709         2571.02         2296.62 
       0.165845         2467.22         2124.34 
       0.171974         2338.75         2005.39 
       0.178125         2229.55         1924.33 
       0.184229         2132.03         1861.37 
        0.19034         2027.26         1796.49 
       0.196428         1978.83         1717.67 
       0.202534         1895.81          1621.6 
       0.208729         1802.01         1512.87 
       0.214876         1726.33          1404.7 
       0.220989         1658.94         1307.46 
       0.227147         1591.02         1226.77 
        0.23329         1526.61         1165.02 
       0.239377         1502.26         1119.11 
       0.245482         1410.96         1082.36 
       0.251667         1403.45         1047.86 
       0.257832         1345.83         1010.74 
       0.263955         1299.91         968.724 
       0.270079         1253.25         922.157 
        0.27624         1236.38         873.526 
       0.282372         1185.37         827.041 
        0.28843         1177.19         785.863 
       0.294538         1117.81         750.702 
       0.300721         1109.42         721.418 
        0.30691         1068.17         696.963 
       0.313033         1045.93         675.363 
       0.319153         1027.71         654.282 
       0.325316         994.699         632.109 
        0.33145         971.865         608.693 
       0.337538         951.856         584.545 
       0.343633         932.397         560.511 
       0.349808         899.794         537.381 
       0.355968          892.69         516.446 
       0.362074         884.285         498.054 
       0.368217         855.302         481.778 
       0.374374         823.856         467.104 
       0.380519         825.066         453.343 
       0.386598         799.824         440.023 
       0.392688         796.512         426.536 
        0.39888         773.093         412.627 
       0.405048          763.88         398.791 
       0.411186         753.012         385.328 
       0.417313         737.159         372.568 
       0.423458         722.382         360.686 
       0.429607         714.903         349.724 
       0.435692         698.689         339.739 
       0.441815         691.506         330.347 
       0.447964         677.981         321.315 
       0.454126          672.26         312.473 
       0.460267         654.623         303.795 
       0.466387         646.388         295.229 
        0.47254         643.785         286.758 
       0.478662         635.539         278.595 
       0.484765          615.94         270.822 
       0.490885         611.686         263.424 
       0.497035         599.443         256.393 
       0.503198         595.307          249.74 
       0.509342         589.702         243.426 
       0.515458         585.645         237.363 
       0.521598         569.902          231.43 
       0.527764          561.65         225.608 
       0.533884         558.039          219.97 
           0.54         552.371         214.482 
       0.546137         547.176         209.138 
       0.552299         539.929         203.959 
       0.558452          535.25         198.999 
       0.564573         529.028         194.282 
       0.570708           522.2         189.746 
       0.576825         509.395         185.387 
       0.582926         510.409         181.172 
       0.589034         504.814         177.067 
       0.595184         500.727         173.046 
       0.601379         492.533         169.111 
       0.607522          485.86         165.319 
       0.613639         484.622         161.654 
       0.619772         476.303          158.09 
       0.625918         473.073         154.631 
       0.632068         466.068         151.283 
       0.638161         463.686         148.076 
         0.6443          456.86         144.949 
       0.650464         454.409         141.907 
       0.656582         449.092         138.975 
       0.662703         448.334         136.119 
       0.668861         441.307         133.321 
       0.675024         437.505         130.592 
       0.681124         433.738         127.964 
       0.687237         430.439         125.403 
       0.693381         424.051         122.902 
       0.699536         417.932         120.469 
       0.705665         416.858         118.117 
       0.711789         415.176         115.834 
       0.717957         411.148         113.597 
        0.72409         409.015         111.432 
       0.730186         402.859         109.336 
       0.736317         400.336         107.281 
       0.742472         397.296          105.27 
       0.748622         393.462         103.311 
        0.75476         387.863         101.405 
       0.760888         384.285         99.5503 
       0.767043          384.23          97.735 
       0.773185         380.644         95.9694 
       0.779291         375.998         94.2585 
       0.785407         374.114         92.5878 
       0.791564         369.937         90.9477 
       0.797719         368.092         89.3488 
       0.803834         363.067         87.7988 
       0.809972         362.724         86.2804 
       0.816124          361.19         84.7946 
       0.822261         356.834         83.3478 
       0.828378          354.56         81.9391 
       0.834502         350.216         80.5617 
       0.840667         348.045         79.2072 
       0.846816         346.584         77.8877 
       0.852925         344.344         76.6066 
       0.859047         341.833         75.3518 
       0.865192         337.594         74.1211 
       0.871341         334.839         72.9172 
       0.877463          334.96         71.7456 
       0.883569         331.476         70.6029 
       0.889708         328.885         69.4794 
       0.895864         328.343         68.3776 
       0.902008         324.861         67.3021 
       0.908149         320.861         66.2505 
       0.914301         319.056         65.2198 
       0.920448         317.333          64.212 
       0.926574         313.126         63.2292 
       0.932687         312.654          62.269 
       0.938823         309.488         61.3255 
       0.944975         309.433         60.3994 
       0.951105           306.3         59.4958 
       0.957225         304.341         58.6123 
       0.963368         300.232         57.7438 
       0.969511         299.668         56.8929 
       0.975621          297.93         56.0638 
       0.981748         295.756         55.2492 
       0.987916         294.385         54.4456 
        0.99406         290.571         53.6611 
        1.00019         288.786         52.8937 
        1.00632         287.837         52.1419 
        1.01246         285.297         51.4038 
        1.01859         285.336         50.6811 
        1.02471         280.982         49.9733 
        1.03085         280.034         49.2765 
        1.03698         278.409         48.5946 
        1.04314         276.302         47.9227 
        1.04929         274.025         47.2652 
        1.05541          274.26         46.6226 
        1.06154         269.811         45.9904 
        1.06769         269.384         45.3691 
        1.07382         267.019         44.7613 
        1.07993         265.772          44.166 
        1.08607          265.08         43.5791 
        1.09222          261.91         43.0023 
        1.09836         260.084         42.4367 
        1.10449         258.354          41.882 
        1.11063           255.9         41.3365 
        1.11677         255.774          40.801 
         1.1229         253.266          40.276 
        1.12903         252.158         39.7598 
        1.13518         250.087         39.2522 
        1.14131         248.575         38.7537 
        1.14745         247.913         38.2642 
        1.15359         245.909         37.7832 
        1.15973         244.052         37.3101 
        1.16584          242.39         36.8474 
        1.17197          242.47         36.3918 
        1.17811         239.227         35.9426 
        1.18424         237.883         35.5022 
        1.19038         237.201          35.068 
        1.19652         234.899         34.6412 
        1.20267         234.714         34.2216 
        1.20881         232.392         33.8089 
        1.21495         231.053         33.4038 
        1.22108         229.544         33.0053 
         1.2272         228.258         32.6143 
        1.23334          227.57         32.2287 
        1.23949         224.777         31.8484 
        1.24562         224.127         31.4753 
        1.25174         223.226         31.1088 
        1.25789         221.571          30.747 
        1.26402         219.395         30.3916 
        1.27014         218.406         30.0427 
        1.27628         216.759         29.6982 
        1.28244         216.746         29.3585 
        1.28858         214.632         29.0246 
        1.29471         213.805         28.6966 
        1.30084         211.726         28.3739 
        1.30697           210.8         28.0558 
        1.31312         208.954         27.7421 
        1.31925          207.54         27.4341 
        1.32537         207.375         27.1312 
        1.33151          205.44         26.8317 
        1.33765          203.85          26.537 
        1.34378         203.285         26.2473 
        1.34992         202.202         25.9617 
        1.35606         201.635         25.6797 
         1.3622          199.24         25.4024 
        1.36833         198.263         25.1299 
        1.37445           197.2         24.8616 
        1.38059          195.77         24.5963 
        1.38675         195.051         24.3343 
        1.39288             194         24.0771 
        1.39901         192.599         23.8238 
        1.40515         191.528         23.5735 
         1.4113         190.463          23.327 
        1.41742          189.05         23.0849 
        1.42355         188.142         22.8457 
         1.4297         186.659         22.6093 
        1.43585         185.711         22.3763 
        1.44198         185.383         22.1475 
        1.44809          183.78         21.9222 
        1.45423         182.999         21.6993 
        1.46036         181.602         21.4799 
        1.46649         180.619         21.2635 
        1.47263         179.763         21.0499 
        1.47877           178.3         20.8393 
        1.48491         176.716         20.6312 
        1.49104         176.468         20.4264 
        1.49718         174.764         20.2243 
        1.50333          174.22         20.0246 
        1.50947         172.883         19.8279 
         1.5156         171.896         19.6342 
        1.52172         171.254         19.4431 
        1.52787          169.57         19.2541 
          1.534         169.348         19.0679 
        1.54013         167.965         18.8844 
        1.54627         167.038         18.7029 
        1.55241         165.912         18.5238 
        1.55855         164.776         18.3472 
        1.56467         163.861         18.1735 
         1.5708         162.945         18.0015 
        1.57695         162.545         17.8315 
        1.58308         161.282         17.6641 
        1.58922         160.323         17.4987 
        1.59535          159.21         17.3355 
         1.6015         158.334         17.1741 
        1.60764         157.677         17.0149 
        1.61376         156.792         16.8581 
        1.61989         155.866         16.7032 
        1.62604          154.71         16.5498 
        1.63218          154.18         16.3985 
        1.63831         152.824         16.2495 
        1.64444         152.125         16.1022 
        1.65059         151.389         15.9564 
        1.65673         150.544         15.8125 
        1.66285         149.426         15.6709 
        1.66898         148.837         15.5309 
        1.67512         147.894         15.3924 
        1.68127         146.842         15.2554 
         1.6874         146.281         15.1204 
        1.69353         145.245         14.9871 
        1.69967         144.228         14.8551 
        1.70581          143.56         14.7248 
        1.71193         142.572         14.5965 
        1.71806          142.05         14.4694 
        1.72421         141.264         14.3436 
        1.73035         140.595         14.2195 
        1.73649          139.62         14.0968 
        1.74262         138.913         13.9757 
        1.74876         137.781          13.856 
        1.75489         137.303         13.7378 
        1.76101         136.077         13.6211 
        1.76715         135.874         13.5056 
        1.77329         134.797         13.3913 
        1.77943         134.399         13.2782 
        1.78557         133.666         13.1667 
        1.79171         132.724         13.0563 
        1.79785         131.967         12.9473 
        1.80399         131.337         12.8395 
        1.81012          130.67          12.733 
        1.81625         130.058         12.6278 
        1.82239         129.146         12.5237 
        1.82853         128.386         12.4208 
        1.83466         127.823         12.3191 
        1.84078         126.935         12.2186 
        1.84692         126.015         12.1192 
        1.85306         125.885         12.0207 
         1.8592         124.874         11.9234 
        1.86533         124.494         11.8273 
        1.87147         123.411         11.7322 
        1.87761         122.561          11.638 
        1.88375         122.086          11.545 
        1.88988         120.999         11.4531 
        1.89601         120.773         11.3621 
        1.90215         120.127         11.2721 
        1.90829         119.236          11.183 
        1.91442          118.91          11.095 
        1.92056         117.993         11.0079 
         1.9267         117.386         10.9217 
        1.93284          116.55         10.8364 
        1.93897         116.125         10.7521 
        1.94509         115.748         10.6689 
        1.95123         115.039         10.5864 
        1.95737         114.233         10.5047 
        1.96349         113.743         10.4241 
        1.96964         112.872         10.3441 
        1.97578         112.136         10.2648 
        1.98192         111.619         10.1866 
        1.98805         111.242         10.1092 
        1.99419         110.434         10.0326 
        2.00033         109.959         9.95671 
        2.00647         109.341         9.88164 
         2.0126          108.58         9.80748 
        2.01874         108.026         9.73396 
        2.02488         107.746         9.66113 
        2.03101         106.734         9.58918 
        2.03714         106.438         9.51803 
        2.04328         105.585         9.44752 
        2.04941         105.199         9.37777 
        2.05554         104.444         9.30879 
        2.06167          104.12          9.2404 
        2.06781         103.213         9.17268 
        2.07396         103.125         9.10555 
        2.08009         102.284         9.03921 
        2.08622         101.511          8.9736 
        2.09237         101.334         8.90851 
        2.09851         100.603         8.84406 
        2.10464         100.174         8.78035 
        2.11077         99.4993         8.71734 
        2.11691         99.0369         8.65481 
        2.12305          98.724         8.59289 
        2.12918         98.0157         8.53173 
        2.13531         97.2933         8.47115 
        2.14145           96.91         8.41102 
         2.1476         96.3218          8.3514 
        2.15372         95.9113         8.29266 
        2.15985         95.2656         8.23443 
        2.16599         94.7487         8.17658 
        2.17213         94.3433         8.11935 
        2.17827         93.6734         8.06268 
         2.1844         93.1865         8.00661 
        2.19054         92.8491         7.95104 
        2.19666         92.3469         7.89608 
         2.2028         91.7715         7.84159 
        2.20893         91.3696         7.78758 
        2.21508         90.7807         7.73403 
        2.22122         90.4058         7.68095 
        2.22736         89.7693         7.62849 
        2.23349         89.4824         7.57652 
        2.23962         89.0574         7.52502 
        2.24577         88.3991         7.47394 
         2.2519         88.0662         7.42341 
        2.25802         87.4367         7.37343 
        2.26417         87.1596         7.32376 
        2.27031         86.5744         7.27451 
        2.27644         86.0393         7.22586 
        2.28257         85.7454         7.17765 
        2.28872         85.3193         7.12978 
        2.29486         84.7827         7.08237 
        2.30099         84.1525         7.03548 
        2.30712         83.8134         6.98899 
        2.31326         83.3636         6.94285 
         2.3194          82.907         6.89714 
        2.32553         82.5646         6.85193 
        2.33166         82.0766         6.80713 
         2.3378         81.6384         6.76268 
        2.34394         81.3259         6.71861 
        2.35007         80.8858         6.67499 
        2.35619         80.4388         6.63181 
        2.36233         79.9484         6.58891 
        2.36848         79.5038          6.5463 
        2.37462         79.2131         6.50415 
        2.38075         78.6599         6.46242 
        2.38689         78.2195         6.42101 
        2.39303         77.8715         6.37998 
        2.39916          77.451         6.33935 
        2.40529         77.2696         6.29907 
        2.41143         76.6853         6.25911 
        2.41757          76.266         6.21948 
         2.4237         75.9367         6.18027 
        2.42983         75.5292          6.1414 
        2.43598          75.052         6.10276 
        2.44211         74.7909         6.06451 
        2.44823         74.3546         6.02668 
        2.45437         73.9359         5.98907 
        2.46052           73.56         5.95174 
        2.46665         73.2496          5.9148 
        2.47279         72.7429         5.87818 
        2.47892         72.3826         5.84185 
        2.48507         72.0632         5.80579 
         2.4912         71.7679          5.7701 
