# k  (h/Mpc)    P(k)  (Mpc/h)^3    P_linear(k)  (Mpc/h)^3
     0.00783031         1102.49         1114.79 
       0.013688         1411.08         1414.23 
       0.019231         1449.91         1450.67 
      0.0249154         1339.26         1347.59 
      0.0312784         1163.94         1165.29 
      0.0375637         990.982         988.362 
      0.0433917          857.46         858.604 
      0.0492413          768.23         767.165 
      0.0555754         699.637         702.774 
      0.0619321         660.679         657.853 
       0.067871         616.786          619.19 
      0.0738098         572.106         574.764 
      0.0800417         515.934         519.709 
      0.0862327         459.265         460.629 
      0.0921407         406.981         406.811 
      0.0982031         359.442         360.064 
       0.104506         326.065         323.711 
       0.110769         301.443         299.551 
       0.116806         284.602         284.612 
       0.122832         274.816          273.81 
       0.129052         262.084         262.832 
       0.135211         248.422         249.293 
       0.141259         233.128         232.648 
       0.147318         215.299          213.75 
       0.153489         195.438         194.405 
       0.159709         178.679         177.056 
       0.165845         166.582         163.451 
       0.171974         155.443         153.637 
       0.178125         148.918         146.911 
       0.184229         144.273         142.087 
        0.19034         138.249         137.714 
       0.196428         134.236          132.71 
       0.202534         129.062         126.504 
       0.208729          121.14         119.113 
       0.214876         112.888         111.304 
       0.220989         106.729         103.851 
       0.227147         99.3123         97.3129 
        0.23329         94.2413         92.0862 
       0.239377         90.6914         88.1527 
       0.245482         86.7982         85.1454 
       0.251667         85.0319         82.5873 
       0.257832         82.3192         80.0606 
       0.263955         79.4808         77.2619 
       0.270079         76.3512         74.0653 
        0.27624         73.5482         70.5537 
       0.282372         70.0513         67.0006 
        0.28843         66.4881         63.6826 
       0.294538         63.5563         60.7304 
       0.300721         61.5919         58.2201 
        0.30691         59.0149         56.1596 
       0.313033          57.304         54.4347 
       0.319153         54.9794         52.8655 
       0.325316         54.2034         51.2864 
        0.33145         52.2951         49.6299 
       0.337538         50.7077          47.873 
       0.343633         48.7472         46.0528 
       0.349808         47.1192         44.2209 
       0.355968          45.489         42.4955 
       0.362074          43.886         40.9448 
       0.368217          42.547         39.5659 
       0.374374         41.1755         38.3518 
       0.380519         40.2043          37.257 
       0.386598         39.1874         36.2385 
       0.392688         38.3261         35.2327 
        0.39888          37.181         34.1927 
       0.405048           36.23         33.1397 
       0.411186         35.2592         32.0842 
       0.417313         34.0224         31.0522 
       0.423458         33.1077         30.0685 
       0.429607         32.1335         29.1505 
       0.435692         31.1865         28.3147 
       0.441815         30.5498         27.5428 
       0.447964         30.0126         26.8179 
       0.454126         28.9383         26.1231 
       0.460267         28.3694         25.4483 
       0.466387         27.5249         24.7827 
        0.47254         27.0454          24.115 
       0.478662         26.4994         23.4598 
       0.484765         25.7078         22.8246 
       0.490885         25.0839         22.2123 
       0.497035         24.7306         21.6265 
       0.503198         24.0666          21.073 
       0.509342         23.4772         20.5533 
       0.515458         22.9456         20.0606 
       0.521598         22.5247         19.5836 
       0.527764         22.0076         19.1174 
       0.533884         21.6292         18.6654 
           0.54         21.1513         18.2228 
       0.546137          20.761         17.7872 
       0.552299         20.3784         17.3608 
       0.558452         19.7552         16.9492 
       0.564573         19.4804         16.5565 
       0.570708         19.1146         16.1798 
       0.576825         18.6265         15.8191 
       0.582926          18.306         15.4722 
       0.589034         17.8041         15.1359 
       0.595184         17.5521         14.8072 
       0.601379         17.1907         14.4852 
       0.607522         16.9312         14.1741 
       0.613639         16.7164         13.8717 
       0.619772         16.2696         13.5761 
       0.625918         16.1364         13.2881 
       0.632068         15.8713         13.0087 
       0.638161         15.4978         12.7412 
         0.6443         15.1849         12.4808 
       0.650464         14.8908          12.228 
       0.656582         14.7754         11.9845 
       0.662703         14.5017         11.7475 
       0.668861         14.2375         11.5151 
       0.675024         13.9611          11.288 
       0.681124          13.721         11.0688 
       0.687237         13.5118         10.8549 
       0.693381         13.3413         10.6456 
       0.699536         12.9822         10.4418 
       0.705665         12.8593         10.2447 
       0.711789         12.6358         10.0532 
       0.717957         12.4338         9.86558 
        0.72409         12.2305         9.68392 
       0.730186         12.0674         9.50797 
       0.736317         11.9367         9.33535 
       0.742472         11.7463         9.16627 
       0.748622         11.5627         9.00144 
        0.75476         11.3267         8.84099 
       0.760888         11.1907         8.68468 
       0.767043         11.0553         8.53159 
       0.773185          10.834         8.38259 
       0.779291         10.7518         8.23811 
       0.785407         10.5853         8.09695 
       0.791564         10.4157         7.95831 
       0.797719         10.2339         7.82306 
       0.803834          10.167         7.69187 
       0.809972         10.0606         7.56327 
       0.816124         9.84554         7.43735 
       0.822261         9.70588         7.31465 
       0.828378         9.59178          7.1951 
       0.834502         9.50865         7.07812 
       0.840667         9.33857         6.96299 
       0.846816         9.18206         6.85077 
       0.852925         9.10248         6.74175 
       0.859047         8.98807          6.6349 
       0.865192         8.90555         6.53004 
       0.871341         8.80866         6.42741 
       0.877463         8.66862         6.32749 
       0.883569         8.53176         6.22997 
       0.889708         8.39669         6.13404 
       0.895864         8.32837         6.03991 
       0.902008         8.23536         5.94798 
       0.908149         8.14681         5.85804 
       0.914301         8.02922         5.76984 
       0.920448         7.91318         5.68356 
       0.926574         7.81819         5.59936 
       0.932687         7.74711         5.51706 
       0.938823         7.64432         5.43614 
       0.944975         7.54604         5.35668 
       0.951105         7.47547          5.2791 
       0.957225          7.4353         5.20321 
       0.963368         7.33204         5.12857 
       0.969511         7.24621          5.0554 
       0.975621         7.15249         4.98407 
       0.981748         7.07972         4.91395 
       0.987916         7.01255         4.84474 
        0.99406         6.89957         4.77714 
        1.00019         6.80615         4.71098 
        1.00632         6.77992         4.64614 
        1.01246         6.70223         4.58244 
        1.01859         6.61151         4.52004 
        1.02471         6.55088          4.4589 
        1.03085         6.48168         4.39869 
        1.03698         6.39481         4.33973 
        1.04314         6.34784         4.28161 
        1.04929         6.26683          4.2247 
        1.05541         6.19688         4.16906 
        1.06154         6.14587          4.1143 
        1.06769         6.11249         4.06045 
        1.07382          6.0141         4.00775 
        1.07993         5.95106         3.95611 
        1.08607         5.91649         3.90518 
        1.09222         5.85174          3.8551 
        1.09836         5.79458         3.80597 
        1.10449         5.73553         3.75776 
        1.11063         5.67791         3.71034 
        1.11677         5.63493         3.66376 
         1.1229         5.58216         3.61808 
        1.12903         5.51749         3.57314 
        1.13518         5.46321         3.52893 
        1.14131         5.39822          3.4855 
        1.14745          5.3355         3.44283 
        1.15359         5.30909         3.40088 
        1.15973         5.25035         3.35961 
        1.16584         5.19627         3.31922 
        1.17197          5.1527         3.27944 
        1.17811         5.11956          3.2402 
        1.18424         5.07684         3.20172 
        1.19038          5.0396         3.16376 
        1.19652         4.98666         3.12643 
        1.20267         4.93383         3.08971 
        1.20881         4.90068         3.05359 
        1.21495         4.85878         3.01811 
        1.22108          4.8092         2.98321 
         1.2272         4.78244         2.94894 
        1.23334          4.7202         2.91513 
        1.23949         4.67773         2.88178 
        1.24562         4.65529         2.84905 
        1.25174         4.60055         2.81688 
        1.25789         4.57024         2.78511 
        1.26402         4.52972         2.75389 
        1.27014         4.48901         2.72323 
        1.27628         4.45882         2.69295 
        1.28244          4.4043         2.66307 
        1.28858         4.38881          2.6337 
        1.29471         4.33929         2.60483 
        1.30084         4.29942         2.57643 
        1.30697         4.29561         2.54841 
        1.31312         4.21633         2.52077 
        1.31925         4.19955         2.49363 
        1.32537         4.16381         2.46692 
        1.33151         4.14486         2.44051 
        1.33765         4.09123         2.41451 
        1.34378         4.06425         2.38893 
        1.34992         4.04747         2.36372 
        1.35606         3.99297         2.33881 
         1.3622         3.97849         2.31432 
        1.36833         3.94513         2.29023 
        1.37445         3.91458          2.2665 
        1.38059         3.89718         2.24304 
        1.38675         3.86915         2.21986 
        1.39288         3.83197          2.1971 
        1.39901         3.79329         2.17467 
        1.40515         3.76945         2.15251 
         1.4113         3.74487         2.13066 
        1.41742         3.71938          2.1092 
        1.42355         3.69157         2.08801 
         1.4297         3.65762         2.06704 
        1.43585         3.64335         2.04636 
        1.44198         3.62274         2.02605 
        1.44809         3.58176         2.00606 
        1.45423         3.55544         1.98627 
        1.46036         3.52735         1.96678 
        1.46649         3.50232         1.94754 
        1.47263         3.47632         1.92855 
        1.47877         3.44708         1.90983 
        1.48491         3.42544         1.89132 
        1.49104         3.40848          1.8731 
        1.49718         3.38419         1.85511 
        1.50333         3.36221         1.83733 
        1.50947         3.33742         1.81981 
         1.5156         3.31394         1.80256 
        1.52172         3.29344         1.78553 
        1.52787         3.27168         1.76868 
          1.534         3.24606         1.75208 
        1.54013         3.22815         1.73571 
        1.54627         3.19813         1.71951 
        1.55241         3.17628         1.70353 
        1.55855          3.1637         1.68777 
        1.56467         3.14283         1.67225 
         1.5708         3.11538         1.65689 
        1.57695         3.09479          1.6417 
        1.58308         3.07246         1.62673 
        1.58922         3.06144         1.61195 
        1.59535         3.03959         1.59735 
         1.6015         3.01861         1.58291 
        1.60764         3.00058         1.56866 
        1.61376          2.9833         1.55463 
        1.61989         2.96162         1.54076 
        1.62604         2.94039         1.52703 
        1.63218         2.93291         1.51347 
        1.63831         2.90534         1.50011 
        1.64444         2.88688         1.48691 
        1.65059         2.87004         1.47384 
        1.65673         2.85517         1.46094 
        1.66285         2.83186         1.44823 
        1.66898         2.81887         1.43566 
        1.67512         2.79508         1.42323 
        1.68127         2.78051         1.41093 
         1.6874         2.77191          1.3988 
        1.69353         2.73954         1.38683 
        1.69967         2.72867         1.37496 
        1.70581          2.7205         1.36325 
        1.71193         2.69932         1.35171 
        1.71806         2.68748         1.34028 
        1.72421         2.67025         1.32897 
        1.73035         2.65485          1.3178 
        1.73649         2.63617         1.30676 
        1.74262         2.62052         1.29585 
        1.74876         2.61274         1.28507 
        1.75489         2.59046         1.27443 
        1.76101         2.57306         1.26391 
        1.76715         2.56214          1.2535 
        1.77329         2.55012         1.24319 
        1.77943         2.52675           1.233 
        1.78557         2.51749         1.22293 
        1.79171          2.5074         1.21298 
        1.79785         2.48737         1.20314 
        1.80399         2.47535          1.1934 
        1.81012         2.46595         1.18379 
        1.81625          2.4477         1.17429 
        1.82239         2.43223         1.16489 
        1.82853         2.41492         1.15558 
        1.83466         2.41018         1.14639 
        1.84078         2.39501         1.13732 
        1.84692         2.38458         1.12832 
        1.85306         2.36501         1.11941 
         1.8592           2.353         1.11061 
        1.86533         2.34047         1.10192 
        1.87147          2.3326          1.0933 
        1.87761         2.31756         1.08478 
        1.88375         2.30113         1.07635 
        1.88988         2.29269         1.06803 
        1.89601         2.27874         1.05979 
        1.90215         2.26263         1.05162 
        1.90829         2.25024         1.04355 
        1.91442         2.24392         1.03557 
        1.92056          2.2288         1.02767 
         1.9267         2.21945         1.01985 
        1.93284         2.21114         1.01211 
        1.93897         2.19795         1.00446 
        1.94509         2.18241        0.996912 
        1.95123         2.16984         0.98942 
        1.95737         2.15923        0.981999 
        1.96349         2.15061        0.974674 
        1.96964         2.14333        0.967403 
        1.97578         2.12766        0.960204 
        1.98192         2.11873        0.953093 
        1.98805         2.10699        0.946053 
        1.99419         2.09848        0.939084 
        2.00033         2.09298        0.932183 
        2.00647         2.07574        0.925353 
         2.0126         2.06918        0.918603 
        2.01874         2.05295        0.911911 
        2.02488         2.04725         0.90528 
        2.03101         2.03124        0.898727 
        2.03714         2.02228        0.892246 
        2.04328         2.01569        0.885821 
        2.04941         2.00034        0.879466 
        2.05554         1.99569        0.873177 
        2.06167         1.98449        0.866942 
        2.06781         1.97827        0.860767 
        2.07396         1.96768        0.854644 
        2.08009         1.95725        0.848591 
        2.08622         1.94508        0.842605 
        2.09237         1.94006        0.836664 
        2.09851         1.92923         0.83078 
        2.10464          1.9239        0.824963 
        2.11077         1.91156        0.819208 
        2.11691         1.90145        0.813496 
        2.12305         1.89549        0.807839 
        2.12918         1.88653        0.802249 
        2.13531         1.87742        0.796712 
        2.14145         1.86688        0.791215 
         2.1476         1.85679        0.785763 
        2.15372         1.84895         0.78039 
        2.15985         1.84004        0.775063 
        2.16599         1.83355         0.76977 
        2.17213         1.82138        0.764532 
        2.17827         1.81615        0.759345 
         2.1844         1.80897         0.75421 
        2.19054         1.80205        0.749121 
        2.19666         1.79174        0.744087 
         2.2028         1.78343        0.739095 
        2.20893         1.77538        0.734146 
        2.21508         1.76954        0.729237 
        2.22122         1.75655        0.724372 
        2.22736         1.74932        0.719562 
        2.23349         1.74656        0.714796 
        2.23962         1.73438        0.710071 
        2.24577         1.72867        0.705386 
         2.2519         1.71909        0.700749 
        2.25802          1.7155        0.696161 
        2.26417         1.70639        0.691602 
        2.27031          1.6997         0.68708 
        2.27644         1.69211        0.682611 
        2.28257         1.68379        0.678183 
        2.28872         1.67682        0.673786 
        2.29486         1.67002        0.669429 
        2.30099         1.66142        0.665119 
        2.30712         1.65348        0.660846 
        2.31326           1.651        0.656603 
         2.3194         1.64179          0.6524 
        2.32553         1.63622        0.648241 
        2.33166         1.62644         0.64412 
         2.3378         1.61965        0.640029 
        2.34394         1.61224        0.635973 
        2.35007         1.60557        0.631958 
        2.35619         1.60319        0.627983 
        2.36233         1.59224        0.624032 
        2.36848         1.58679        0.620108 
        2.37462         1.58121        0.616225 
        2.38075         1.57368         0.61238 
        2.38689         1.56855        0.608565 
        2.39303         1.56126        0.604783 
        2.39916         1.55416        0.601037 
        2.40529         1.54897        0.597323 
        2.41143         1.54121        0.593638 
        2.41757         1.53553        0.589982 
         2.4237         1.53199        0.586365 
        2.42983         1.52184        0.582778 
        2.43598         1.52014        0.579212 
        2.44211         1.51204        0.575681 
        2.44823         1.50609        0.572188 
        2.45437         1.50024        0.568715 
        2.46052         1.49507        0.565268 
        2.46665         1.48916        0.561855 
        2.47279          1.4822        0.558472 
        2.47892         1.47619        0.555115 
        2.48507         1.47185        0.551782 
         2.4912         1.46412        0.548483 
