# k  (h/Mpc)    Pcb(k)  (Mpc/h)^3    Pcb_linear(k)  (Mpc/h)^3
     0.00783031         8544.53         8653.28 
       0.013688         11046.5         10985.7 
       0.019231         11285.3         11271.2 
      0.0249154         10305.8         10471.4 
      0.0312784         8987.67         9055.36 
      0.0375637         7688.57          7680.7 
      0.0433917         6591.28         6672.46 
      0.0492413         5937.01         5961.94 
      0.0555754         5340.69         5461.59 
      0.0619321         5124.21         5112.52 
       0.067871         4712.81         4812.08 
      0.0738098         4370.86         4466.84 
      0.0800417         3918.88         4038.99 
      0.0862327         3514.33         3579.85 
      0.0921407         3150.55          3161.6 
      0.0982031         2780.18          2798.3 
       0.104506          2567.7         2515.79 
       0.110769         2373.29         2328.02 
       0.116806         2236.79         2211.92 
       0.122832         2156.11         2127.98 
       0.129052          2028.8         2042.66 
       0.135211         1927.99         1937.44 
       0.141259            1830         1808.08 
       0.147318         1704.35         1661.21 
       0.153489         1548.18         1510.86 
       0.159709         1442.38         1376.03 
       0.165845         1368.16          1270.3 
       0.171974         1284.31         1194.03 
       0.178125         1227.71         1141.76 
       0.184229         1185.82         1104.26 
        0.19034         1118.94         1070.28 
       0.196428         1100.59         1031.39 
       0.202534         1062.99         983.161 
       0.208729         1005.56         925.717 
       0.214876         947.941         865.028 
       0.220989         911.087         807.105 
       0.227147         860.244         756.291 
        0.23329          823.78         715.671 
       0.239377         805.782         685.102 
       0.245482          755.01         661.731 
       0.251667         749.836          641.85 
       0.257832         724.435         622.213 
       0.263955         700.777         600.461 
       0.270079         675.104         575.618 
        0.27624         665.149         548.328 
       0.282372          636.34         520.714 
        0.28843         619.167         494.926 
       0.294538         588.842         471.982 
       0.300721         584.807         452.476 
        0.30691         558.451         436.461 
       0.313033         547.522         423.054 
       0.319153         530.705         410.858 
       0.325316         515.975         398.587 
        0.33145         501.026          385.71 
       0.337538         494.276         372.058 
       0.343633          478.28         357.912 
       0.349808         462.423         343.675 
       0.355968         457.456         330.266 
       0.362074         448.012         318.214 
       0.368217         435.879         307.497 
       0.374374          418.95         298.061 
       0.380519         415.101         289.553 
       0.386598         404.941         281.638 
       0.392688         401.839         273.821 
        0.39888         390.617         265.738 
       0.405048         382.344         257.553 
       0.411186         374.914         249.352 
       0.417313         368.038         241.332 
       0.423458         361.111         233.685 
       0.429607         353.696         226.551 
       0.435692         344.747         220.057 
       0.441815         342.227         214.056 
       0.447964         335.497         208.423 
       0.454126         324.317         203.023 
       0.460267         320.208          197.78 
       0.466387         316.527         192.604 
        0.47254         309.795         187.417 
       0.478662         308.626         182.325 
       0.484765          299.12         177.388 
       0.490885         295.514         172.629 
       0.497035         290.896         168.077 
       0.503198         284.815         163.775 
       0.509342         282.268         159.736 
       0.515458         278.739         155.907 
       0.521598         273.671         152.199 
       0.527764         269.303         148.576 
       0.533884         266.399         145.063 
           0.54         262.596         141.624 
       0.546137         261.286         138.238 
       0.552299         256.023         134.924 
       0.558452         253.411         131.726 
       0.564573         249.381         128.673 
       0.570708         244.874         125.746 
       0.576825         241.619         122.943 
       0.582926         238.734         120.247 
       0.589034         236.042         117.633 
       0.595184         233.616         115.078 
       0.601379         231.202         112.576 
       0.607522          226.77         110.158 
       0.613639         225.722         107.808 
       0.619772         220.634         105.511 
       0.625918         219.142         103.272 
       0.632068         216.282         101.101 
       0.638161         215.148         99.0215 
         0.6443         211.712         96.9982 
       0.650464         209.649          95.033 
       0.656582         207.932         93.1408 
       0.662703         205.793         91.2992 
       0.668861         202.464         89.4924 
       0.675024         200.177         87.7277 
       0.681124          199.34         86.0245 
       0.687237         196.235         84.3616 
       0.693381         193.466         82.7354 
       0.699536         192.149         81.1516 
       0.705665         191.522         79.6195 
       0.711789         188.103         78.1314 
       0.717957         187.394         76.6731 
        0.72409         185.024         75.2613 
       0.730186         182.413         73.8938 
       0.736317         181.057         72.5523 
       0.742472         180.063         71.2382 
       0.748622         178.507         69.9572 
        0.75476         177.031         68.7102 
       0.760888         174.543         67.4955 
       0.767043         173.923         66.3056 
       0.773185          172.03         65.1476 
       0.779291         169.241         64.0248 
       0.785407         168.628         62.9277 
       0.791564         167.102         61.8502 
       0.797719         164.811         60.7991 
       0.803834         164.064         59.7795 
       0.809972         162.375         58.7801 
       0.816124         162.206         57.8015 
       0.822261         160.087         56.8479 
       0.828378         158.664         55.9187 
       0.834502         158.392         55.0095 
       0.840667         155.942         54.1148 
       0.846816         154.685         53.2427 
       0.852925         153.801         52.3954 
       0.859047         152.067          51.565 
       0.865192          151.13           50.75 
       0.871341         149.658         49.9524 
       0.877463         148.551         49.1758 
       0.883569         147.571         48.4179 
       0.889708         146.439         47.6724 
       0.895864          144.91         46.9408 
       0.902008         144.071         46.2264 
       0.908149         143.383         45.5274 
       0.914301         141.844         44.8419 
       0.920448         140.826         44.1713 
       0.926574         140.046          43.517 
       0.932687         139.512         42.8774 
       0.938823           137.6         42.2485 
       0.944975         136.364         41.6309 
       0.951105          135.81          41.028 
       0.957225         134.243         40.4382 
       0.963368         133.204         39.8581 
       0.969511         132.846         39.2894 
       0.975621         132.214         38.7351 
       0.981748          131.36         38.1901 
       0.987916         129.865         37.6522 
        0.99406         129.132         37.1269 
        1.00019         128.508         36.6127 
        1.00632         127.456         36.1088 
        1.01246         126.626         35.6137 
        1.01859         125.348         35.1288 
        1.02471         125.009         34.6536 
        1.03085         123.743         34.1856 
        1.03698         123.067         33.7274 
        1.04314         121.994         33.2757 
        1.04929         121.246         32.8334 
        1.05541         120.519          32.401 
        1.06154         119.798         31.9754 
        1.06769         119.554         31.5569 
        1.07382         118.741         31.1473 
        1.07993         117.773          30.746 
        1.08607         116.886         30.3502 
        1.09222         116.408          29.961 
        1.09836         115.421         29.5791 
        1.10449         114.672         29.2045 
        1.11063         113.968         28.8359 
        1.11677         113.538          28.474 
         1.1229         112.274         28.1189 
        1.12903         111.515         27.7696 
        1.13518         111.699          27.426 
        1.14131         110.572         27.0885 
        1.14745          109.82         26.7569 
        1.15359         109.147         26.4308 
        1.15973         108.794         26.1101 
        1.16584         107.815         25.7962 
        1.17197         107.257         25.4871 
        1.17811         106.597         25.1821 
        1.18424         105.945          24.883 
        1.19038         105.427          24.588 
        1.19652         104.838         24.2979 
        1.20267         103.991         24.0125 
        1.20881         103.392         23.7318 
        1.21495         102.738         23.4561 
        1.22108         102.234         23.1848 
         1.2272         101.394         22.9185 
        1.23334         100.991         22.6558 
        1.23949         100.105         22.3966 
        1.24562         99.8655         22.1422 
        1.25174         99.0748         21.8921 
        1.25789         98.6508         21.6452 
        1.26402         98.2119         21.4026 
        1.27014         97.4033         21.1643 
        1.27628         97.0792          20.929 
        1.28244         96.3412         20.6968 
        1.28858         96.0004         20.4685 
        1.29471         95.2656         20.2441 
        1.30084         94.7731         20.0234 
        1.30697         94.2194         19.8056 
        1.31312         93.8053         19.5908 
        1.31925         93.1975         19.3799 
        1.32537         92.8501         19.1723 
        1.33151         91.9306         18.9671 
        1.33765         91.4925          18.765 
        1.34378         90.9422         18.5662 
        1.34992         90.7797         18.3703 
        1.35606         90.1885         18.1767 
         1.3622         89.3662         17.9863 
        1.36833         89.2451         17.7992 
        1.37445         88.5743         17.6148 
        1.38059         88.0475         17.4324 
        1.38675         87.4682         17.2522 
        1.39288         87.0265         17.0753 
        1.39901         86.8742          16.901 
        1.40515         86.2983         16.7288 
         1.4113         85.6245          16.559 
        1.41742         85.5538         16.3922 
        1.42355         84.7761         16.2275 
         1.4297         84.4165         16.0645 
        1.43585         83.7704         15.9039 
        1.44198            83.5          15.746 
        1.44809         83.0121         15.5906 
        1.45423         82.5239         15.4368 
        1.46036         82.3088         15.2853 
        1.46649         81.7764         15.1359 
        1.47263         81.2758         14.9883 
        1.47877         81.0649         14.8427 
        1.48491         80.4977         14.6989 
        1.49104           80.07         14.5573 
        1.49718         79.5865         14.4175 
        1.50333         79.1786         14.2793 
        1.50947          78.727         14.1432 
         1.5156         78.4358         14.0091 
        1.52172         77.9678         13.8767 
        1.52787         77.7881         13.7458 
          1.534         77.2537         13.6167 
        1.54013         76.7047         13.4895 
        1.54627         76.4298         13.3637 
        1.55241         75.9659         13.2394 
        1.55855          75.647         13.1169 
        1.56467         75.1105         12.9963 
         1.5708         74.8915          12.877 
        1.57695         74.6335         12.7589 
        1.58308         73.9208         12.6426 
        1.58922         73.8558         12.5277 
        1.59535         73.5715         12.4142 
         1.6015         72.8993          12.302 
        1.60764         72.6807         12.1913 
        1.61376         72.2507         12.0822 
        1.61989         71.8619         11.9744 
        1.62604         71.6434         11.8677 
        1.63218          71.337         11.7623 
        1.63831          70.823         11.6585 
        1.64444         70.4987         11.5559 
        1.65059         69.9969         11.4543 
        1.65673         69.7756          11.354 
        1.66285         69.4137         11.2553 
        1.66898         69.0596         11.1576 
        1.67512         68.6183          11.061 
        1.68127         68.2965         10.9654 
         1.6874         68.0439         10.8712 
        1.69353         67.7182         10.7781 
        1.69967         67.2822         10.6859 
        1.70581         67.1483         10.5948 
        1.71193         66.8919         10.5052 
        1.71806         66.2354         10.4164 
        1.72421         66.1067         10.3284 
        1.73035         65.7229         10.2416 
        1.73649         65.3267         10.1558 
        1.74262         65.1449         10.0711 
        1.74876         64.7939         9.98723 
        1.75489         64.3894         9.90453 
        1.76101         64.1805          9.8228 
        1.76715         63.7485         9.74188 
        1.77329         63.5386         9.66178 
        1.77943         63.0839         9.58255 
        1.78557         62.9417         9.50434 
        1.79171         62.5538         9.42698 
        1.79785         62.3574         9.35048 
        1.80399         62.0236         9.27485 
        1.81012         61.8096         9.20016 
        1.81625         61.2392         9.12633 
        1.82239         61.0308          9.0532 
        1.82853         60.6717         8.98092 
        1.83466         60.4736          8.9095 
        1.84078          60.086         8.83893 
        1.84692          59.766         8.76903 
        1.85306         59.5537         8.69979 
         1.8592         59.1317         8.63142 
        1.86533         58.9778         8.56382 
        1.87147         58.6387         8.49687 
        1.87761         58.4157         8.43061 
        1.88375         58.1442         8.36514 
        1.88988         58.0207         8.30044 
        1.89601         57.5413         8.23639 
        1.90215          57.312         8.17297 
        1.90829         57.1385         8.11025 
        1.91442         56.7716         8.04818 
        1.92056          56.411         7.98683 
         1.9267         56.1701         7.92605 
        1.93284         55.9191         7.86588 
        1.93897         55.6123         7.80644 
        1.94509         55.2626         7.74775 
        1.95123         55.1612         7.68952 
        1.95737         54.9129         7.63185 
        1.96349         54.5692         7.57493 
        1.96964         54.4748         7.51842 
        1.97578         54.0864         7.46246 
        1.98192         53.8604          7.4072 
        1.98805         53.7008         7.35249 
        1.99419         53.2983         7.29833 
        2.00033         53.0677         7.24469 
        2.00647         52.8515         7.19161 
         2.0126         52.5049         7.13915 
        2.01874         52.3149         7.08714 
        2.02488         52.1721         7.03561 
        2.03101          51.829         6.98468 
        2.03714         51.5601         6.93431 
        2.04328         51.3397         6.88438 
        2.04941         51.0215         6.83498 
        2.05554         50.7113         6.78611 
        2.06167         50.6519         6.73765 
        2.06781         50.4171         6.68967 
        2.07396          50.097         6.64208 
        2.08009         49.9287         6.59504 
        2.08622         49.5977         6.54851 
        2.09237         49.3847         6.50234 
        2.09851         49.2019         6.45661 
        2.10464         48.9339          6.4114 
        2.11077         48.7607         6.36668 
        2.11691         48.4687         6.32229 
        2.12305         48.1999         6.27832 
        2.12918         47.9597         6.23487 
        2.13531         47.7414         6.19184 
        2.14145         47.5486         6.14912 
         2.1476         47.3676         6.10675 
        2.15372         47.0688         6.06499 
        2.15985         46.8646         6.02359 
        2.16599         46.7332         5.98245 
        2.17213         46.5621         5.94175 
        2.17827         46.2637         5.90143 
         2.1844         45.9898         5.86153 
        2.19054         45.7425         5.82198 
        2.19666         45.5843         5.78285 
         2.2028         45.3973         5.74405 
        2.20893         45.2418         5.70559 
        2.21508          45.044         5.66744 
        2.22122          44.769         5.62963 
        2.22736         44.5662         5.59225 
        2.23349         44.4328         5.55521 
        2.23962         44.0512         5.51849 
        2.24577         43.8822         5.48207 
         2.2519         43.6634         5.44604 
        2.25802         43.6132         5.41038 
        2.26417         43.3321         5.37495 
        2.27031          43.188          5.3398 
        2.27644         42.8373         5.30508 
        2.28257         42.7346         5.27066 
        2.28872         42.4246         5.23649 
        2.29486         42.3127         5.20262 
        2.30099         42.1501         5.16913 
        2.30712         41.9354         5.13592 
        2.31326         41.7542         5.10294 
         2.3194         41.5082         5.07028 
        2.32553         41.3696         5.03796 
        2.33166         41.1785         5.00593 
         2.3378         40.8944         4.97414 
        2.34394         40.6458         4.94262 
        2.35007         40.5145         4.91141 
        2.35619         40.4401         4.88052 
        2.36233         40.2909         4.84981 
        2.36848          39.942         4.81931 
        2.37462         39.8829         4.78914 
        2.38075         39.6654         4.75926 
        2.38689         39.5817          4.7296 
        2.39303         39.3322         4.70021 
        2.39916         39.1124          4.6711 
        2.40529         38.8674         4.64223 
        2.41143         38.7926         4.61359 
        2.41757          38.644         4.58519 
         2.4237         38.4625         4.55707 
        2.42983         38.2849         4.52919 
        2.43598         38.0257         4.50148 
        2.44211         37.8877         4.47404 
        2.44823         37.7318         4.44689 
        2.45437         37.6186          4.4199 
        2.46052         37.3235         4.39311 
        2.46665         37.2384         4.36659 
        2.47279         37.0687         4.34029 
        2.47892         36.8562          4.3142 
        2.48507         36.7179          4.2883 
         2.4912         36.5567         4.26266 
