# k  (h/Mpc)    P(k)  (Mpc/h)^3    P_linear(k)  (Mpc/h)^3
     0.00783031         6692.99         6739.63 
       0.013688         8492.99         8670.01 
       0.019231         9046.45          9152.8 
      0.0249154         8847.81         8853.51 
      0.0312784         7997.41         8069.48 
      0.0375637         7092.05         7199.35 
      0.0433917         6448.29         6488.58 
      0.0492413         5842.67         5924.15 
      0.0555754         5418.31         5462.01 
      0.0619321         4929.51         5091.94 
       0.067871         4673.85         4770.94 
      0.0738098         4366.21         4435.88 
      0.0800417         4006.89         4059.12 
      0.0862327            3615         3676.07 
      0.0921407         3282.63         3330.13 
      0.0982031         3008.28         3020.51 
       0.104506         2719.36         2761.62 
       0.110769         2535.12         2566.35 
       0.116806         2431.12         2422.81 
       0.122832         2284.03         2304.11 
       0.129052         2175.28         2188.11 
       0.135211         2086.44          2066.7 
       0.141259         1938.73         1937.44 
       0.147318         1787.53         1802.35 
       0.153489         1679.42         1668.13 
       0.159709         1594.44         1545.89 
       0.165845         1460.61         1444.14 
       0.171974         1423.38         1362.39 
       0.178125         1369.02         1297.08 
       0.184229         1277.97         1242.96 
        0.19034         1251.03         1193.05 
       0.196428         1209.02         1142.54 
       0.202534         1131.69         1088.66 
       0.208729         1104.36         1031.06 
       0.214876         1057.45         973.462 
       0.220989         989.022         918.945 
       0.227147         965.636          869.52 
        0.23329         929.234         827.037 
       0.239377         912.051         791.477 
       0.245482         867.922         760.936 
       0.251667         835.277         733.137 
       0.257832          826.23         706.546 
       0.263955         782.973         679.875 
       0.270079         757.888         652.415 
        0.27624         725.235         624.384 
       0.282372         709.601         596.951 
        0.28843         703.274         571.275 
       0.294538         668.138         547.574 
       0.300721         647.517         526.108 
        0.30691          637.34         507.011 
       0.313033         611.246         489.912 
       0.319153         601.409          473.96 
       0.325316         589.283         458.406 
        0.33145         576.521          443.07 
       0.337538         556.379         427.849 
       0.343633         539.938         412.773 
       0.349808         526.513         397.925 
       0.355968         516.293         383.835 
       0.362074         501.711         370.804 
       0.368217         497.002         358.673 
       0.374374         487.343         347.446 
       0.380519         468.412         336.968 
       0.386598          462.53         327.114 
       0.392688         452.943         317.572 
        0.39888         441.103         308.067 
       0.405048         433.937         298.785 
       0.411186         431.025         289.756 
       0.417313         424.271         281.027 
       0.423458         412.197         272.649 
       0.429607         402.707         264.692 
       0.435692          395.62         257.244 
       0.441815         389.361         250.159 
       0.447964         380.189          243.39 
       0.454126         375.059         236.879 
       0.460267         369.759         230.607 
       0.466387         363.637         224.537 
        0.47254         358.736         218.586 
       0.478662         349.499          212.83 
       0.484765         345.796         207.279 
       0.490885         341.925         201.917 
       0.497035          336.57         196.741 
       0.503198           334.2         191.772 
       0.509342         325.413         187.028 
       0.515458         321.578          182.49 
       0.521598         315.165         178.093 
       0.527764         311.273         173.815 
       0.533884         310.629         169.697 
           0.54         304.584         165.702 
       0.546137          297.96         161.808 
       0.552299         296.848         158.014 
       0.558452         291.982         154.349 
       0.564573         289.405         150.827 
       0.570708         284.499          147.42 
       0.576825         280.016         144.138 
       0.582926         277.203         140.971 
       0.589034         273.759         137.897 
       0.595184         271.969         134.895 
       0.601379         266.671         131.961 
       0.607522         262.323         129.135 
       0.613639         260.497           126.4 
       0.619772         258.613         123.735 
       0.625918         255.801         121.141 
       0.632068         250.845         118.621 
       0.638161          248.41         116.199 
         0.6443         247.202         113.831 
       0.650464         242.949         111.524 
       0.656582         241.196         109.299 
       0.662703         239.292         107.135 
       0.668861         235.001         105.016 
       0.675024         234.547         102.951 
       0.681124           231.4         100.963 
       0.687237         228.695         99.0222 
       0.693381         226.919         97.1241 
       0.699536         224.188         95.2735 
       0.705665         221.617         93.4802 
       0.711789         219.508         91.7358 
       0.717957         217.163         90.0248 
        0.72409         215.471         88.3674 
       0.730186         215.502         86.7622 
       0.736317         211.792         85.1881 
       0.742472         209.068         83.6473 
       0.748622         206.193         82.1461 
        0.75476         206.795         80.6851 
       0.760888         204.458          79.262 
       0.767043         201.588         77.8679 
       0.773185         199.854         76.5106 
       0.779291         197.316         75.1938 
       0.785407         196.143         73.9064 
       0.791564         194.551         72.6414 
       0.797719         191.982         71.4069 
       0.803834         192.216         70.2092 
       0.809972         190.824         69.0349 
       0.816124         188.195          67.885 
       0.822261         186.296         66.7647 
       0.828378         186.308         65.6731 
       0.834502         183.049         64.6051 
       0.840667         182.608         63.5542 
       0.846816         180.713         62.5298 
       0.852925         179.145         61.5345 
       0.859047         177.429         60.5591 
       0.865192         176.715         59.6017 
       0.871341          174.48         58.6645 
       0.877463         173.247         57.7519 
       0.883569         173.008         56.8612 
       0.889708         171.602         55.9849 
       0.895864          169.87         55.1249 
       0.902008         168.386          54.285 
       0.908149         166.422         53.4631 
       0.914301         166.497         52.6571 
       0.920448         165.337         51.8685 
       0.926574         163.069          51.099 
       0.932687         162.637         50.3468 
       0.938823         161.341         49.6071 
       0.944975         159.638         48.8807 
       0.951105          158.55         48.1715 
       0.957225         158.261         47.4777 
       0.963368         156.498         46.7953 
       0.969511         154.978         46.1264 
       0.975621         153.966         45.4742 
       0.981748          152.72          44.833 
       0.987916         151.999         44.2001 
        0.99406         151.092          43.582 
        1.00019         149.812         42.9769 
        1.00632         149.162          42.384 
        1.01246          147.95         41.8014 
        1.01859         146.903         41.2307 
        1.02471         145.775         40.6715 
        1.03085         144.697         40.1208 
        1.03698         143.728         39.5814 
        1.04314          143.01         39.0498 
        1.04929         142.447         38.5292 
        1.05541         141.414         38.0203 
        1.06154         140.522         37.5193 
        1.06769         139.163         37.0267 
        1.07382         138.347         36.5445 
        1.07993         137.685         36.0721 
        1.08607         136.436         35.6061 
        1.09222          136.03          35.148 
        1.09836         134.625         34.6985 
        1.10449         133.816         34.2574 
        1.11063         132.962         33.8235 
        1.11677         132.251         33.3974 
         1.1229         131.207         32.9793 
        1.12903         130.792         32.5681 
        1.13518         129.905         32.1636 
        1.14131         129.128         31.7663 
        1.14745         128.139         31.3758 
        1.15359          126.87          30.992 
        1.15973         126.474         30.6144 
        1.16584         125.703         30.2448 
        1.17197         125.011         29.8808 
        1.17811         124.056         29.5218 
        1.18424         123.245         29.1696 
        1.19038         122.979         28.8223 
        1.19652         121.918         28.4807 
        1.20267         121.117         28.1447 
        1.20881         120.395         27.8143 
        1.21495         119.966         27.4896 
        1.22108         119.068         27.1702 
         1.2272         118.124         26.8567 
        1.23334         117.782         26.5473 
        1.23949         117.159         26.2422 
        1.24562         116.118         25.9427 
        1.25174          115.25         25.6483 
        1.25789         115.188         25.3576 
        1.26402         114.291          25.072 
        1.27014         113.685         24.7915 
        1.27628         112.495         24.5144 
        1.28244          112.31         24.2411 
        1.28858          111.42         23.9723 
        1.29471         110.784         23.7082 
        1.30084         110.096         23.4483 
        1.30697         109.962          23.192 
        1.31312         109.008         22.9391 
        1.31925         108.318         22.6908 
        1.32537         107.765         22.4464 
        1.33151         107.542         22.2048 
        1.33765         106.408         21.9669 
        1.34378         106.315          21.733 
        1.34992         105.715         21.5023 
        1.35606         104.889         21.2745 
         1.3622         104.592         21.0504 
        1.36833          103.54           20.83 
        1.37445         102.992          20.613 
        1.38059         102.654         20.3984 
        1.38675          101.77         20.1863 
        1.39288         101.528         19.9781 
        1.39901         100.472         19.7729 
        1.40515         100.337         19.5702 
         1.4113         99.7929         19.3704 
        1.41742         99.0898         19.1741 
        1.42355         98.5767         18.9803 
         1.4297         98.0052         18.7885 
        1.43585         97.3258         18.5994 
        1.44198         96.8686         18.4137 
        1.44809         96.2472         18.2309 
        1.45423         95.7644         18.0499 
        1.46036           95.03         17.8716 
        1.46649         94.6757         17.6958 
        1.47263         94.2737         17.5221 
        1.47877         93.7776         17.3509 
        1.48491          93.126         17.1817 
        1.49104         92.3571         17.0151 
        1.49718         92.2324         16.8506 
        1.50333         91.6627          16.688 
        1.50947         91.3436         16.5279 
         1.5156         90.8117         16.3701 
        1.52172         90.1715         16.2144 
        1.52787         89.5936         16.0604 
          1.534          89.355         15.9086 
        1.54013         88.9292          15.759 
        1.54627         88.1249          15.611 
        1.55241         87.6541         15.4648 
        1.55855         87.3714         15.3208 
        1.56467         86.5135          15.179 
         1.5708          86.357         15.0385 
        1.57695         85.9309         14.8997 
        1.58308          85.435         14.7629 
        1.58922         85.0534         14.6278 
        1.59535         84.6492         14.4944 
         1.6015         84.3789         14.3625 
        1.60764         83.8351         14.2322 
        1.61376         83.2332          14.104 
        1.61989         82.5725         13.9773 
        1.62604         82.3499         13.8518 
        1.63218         82.0589         13.7279 
        1.63831         81.5547         13.6059 
        1.64444         81.1859         13.4852 
        1.65059         80.7515         13.3658 
        1.65673          80.088          13.248 
        1.66285         79.6778         13.1319 
        1.66898         79.1757         13.0171 
        1.67512         79.0373         12.9035 
        1.68127          78.585         12.7912 
         1.6874         78.0663         12.6804 
        1.69353         77.7316          12.571 
        1.69967         77.4246         12.4627 
        1.70581         76.9611         12.3557 
        1.71193          76.503         12.2503 
        1.71806         75.9479          12.146 
        1.72421         75.7508         12.0427 
        1.73035         75.5219         11.9406 
        1.73649         74.9812         11.8398 
        1.74262         74.3383         11.7403 
        1.74876         74.1605         11.6418 
        1.75489         73.5605         11.5446 
        1.76101         73.2289         11.4486 
        1.76715          73.163         11.3536 
        1.77329         72.4712         11.2595 
        1.77943         72.2959         11.1664 
        1.78557         72.0109         11.0745 
        1.79171         71.5187         10.9837 
        1.79785         71.1452         10.8938 
        1.80399         70.7627          10.805 
        1.81012         70.3874         10.7173 
        1.81625         70.1593         10.6306 
        1.82239         69.8475         10.5447 
        1.82853         69.3453         10.4598 
        1.83466         69.0248          10.376 
        1.84078         68.6164         10.2931 
        1.84692         68.3438         10.2111 
        1.85306         68.0077         10.1298 
         1.8592         67.7219         10.0495 
        1.86533         67.2123         9.97014 
        1.87147         66.9047         9.89155 
        1.87761         66.5073         9.81377 
        1.88375         66.1774         9.73692 
        1.88988         65.9208         9.66097 
        1.89601         65.4947          9.5858 
        1.90215          65.166         9.51136 
        1.90829         64.9722         9.43776 
        1.91442         64.5761         9.36492 
        1.92056          64.225         9.29293 
         1.9267         63.9208         9.22161 
        1.93284         63.7392           9.151 
        1.93897         63.3974         9.08127 
        1.94509         62.9291         9.01241 
        1.95123         62.6333          8.9441 
        1.95737         62.2424         8.87644 
        1.96349         61.9753         8.80966 
        1.96964         61.6515         8.74337 
        1.97578         61.3665         8.67774 
        1.98192         61.0904         8.61291 
        1.98805         60.7705         8.54874 
        1.99419         60.4425         8.48522 
        2.00033         60.1297         8.42231 
        2.00647         59.8804         8.36006 
         2.0126         59.5083         8.29854 
        2.01874         59.2783         8.23755 
        2.02488         58.9487         8.17712 
        2.03101         58.6794          8.1174 
        2.03714         58.4828         8.05834 
        2.04328         58.1147          7.9998 
        2.04941         57.7353         7.94189 
        2.05554         57.6137         7.88459 
        2.06167         57.4174         7.82779 
        2.06781         56.8246         7.77153 
        2.07396         56.6089         7.71575 
        2.08009         56.4886         7.66061 
        2.08622         56.1296         7.60607 
        2.09237         55.8023         7.55196 
        2.09851         55.5189         7.49837 
        2.10464         55.2751         7.44538 
        2.11077          55.049         7.39297 
        2.11691         54.6803         7.34095 
        2.12305         54.4324         7.28943 
        2.12918         54.1734         7.23853 
        2.13531         53.9533         7.18811 
        2.14145         53.5897         7.13805 
         2.1476         53.3792         7.08841 
        2.15372          53.219         7.03949 
        2.15985         52.8216         6.99098 
        2.16599         52.6153         6.94279 
        2.17213         52.3835         6.89511 
        2.17827         52.0956         6.84789 
         2.1844         51.7914         6.80115 
        2.19054         51.5783         6.75483 
        2.19666         51.2438         6.70901 
         2.2028         51.0595         6.66357 
        2.20893         50.7268         6.61854 
        2.21508         50.5226         6.57386 
        2.22122         50.2897         6.52959 
        2.22736          49.981         6.48581 
        2.23349         49.8499         6.44245 
        2.23962         49.5206         6.39946 
        2.24577         49.3779         6.35683 
         2.2519         49.0291         6.31464 
        2.25802         48.8713          6.2729 
        2.26417          48.624         6.23143 
        2.27031         48.3676         6.19029 
        2.27644         48.1728         6.14964 
        2.28257         47.7917         6.10936 
        2.28872         47.7851         6.06937 
        2.29486         47.4684         6.02974 
        2.30099          47.112         5.99054 
        2.30712         47.0426         5.95168 
        2.31326         46.6787          5.9131 
         2.3194         46.4525         5.87488 
        2.32553         46.3497         5.83706 
        2.33166         45.9561         5.79959 
         2.3378         45.7471         5.76239 
        2.34394         45.5948         5.72552 
        2.35007         45.3157         5.68901 
        2.35619          45.269         5.65287 
        2.36233         44.8608         5.61696 
        2.36848         44.6976         5.58129 
        2.37462         44.4834           5.546 
        2.38075         44.3501         5.51105 
        2.38689         44.1468         5.47637 
        2.39303         43.9426           5.442 
        2.39916          43.657         5.40795 
        2.40529          43.446         5.37421 
        2.41143          43.233         5.34072 
        2.41757         43.0395         5.30751 
         2.4237          42.872         5.27463 
        2.42983         42.6123         5.24205 
        2.43598         42.3995         5.20964 
        2.44211         42.2438         5.17757 
        2.44823         42.0086         5.14584 
        2.45437         41.8469         5.11429 
        2.46052         41.5387         5.08297 
        2.46665         41.3958         5.05198 
        2.47279         41.1632         5.02125 
        2.47892         41.0057         4.99076 
        2.48507         40.8386         4.96049 
         2.4912         40.6038         4.93053 
