# k  (h/Mpc)    Pcb(k)  (Mpc/h)^3    Pcb_linear(k)  (Mpc/h)^3
     0.00783031         9274.76         9395.65 
       0.013688         11454.1         11382.1 
       0.019231         11386.6         11362.8 
      0.0249154         10218.7         10375.2 
      0.0312784         8805.03         8862.45 
      0.0375637         7458.32         7441.04 
      0.0433917         6327.47         6393.24 
      0.0492413         5624.31         5635.82 
      0.0555754         4985.92         5083.84 
      0.0619321         4728.28         4698.68 
       0.067871          4319.4          4392.1 
      0.0738098          4001.4         4070.67 
      0.0800417         3598.76         3690.61 
      0.0862327         3238.98          3284.1 
      0.0921407          2907.6         2904.91 
      0.0982031         2555.19         2561.72 
       0.104506         2338.79         2278.95 
       0.110769         2133.33         2076.93 
       0.116806         1986.93         1944.01 
       0.122832         1897.75         1850.03 
       0.129052         1779.03         1768.46 
       0.135211         1695.26         1682.46 
       0.141259         1618.04         1582.45 
       0.147318         1516.04         1467.16 
       0.153489         1382.88         1342.98 
       0.159709          1287.3         1223.33 
       0.165845         1211.93         1121.03 
       0.171974         1127.75         1039.76 
       0.178125         1068.72         978.982 
       0.184229         1023.31         934.745 
        0.19034           961.5         899.753 
       0.196428         945.587         867.277 
       0.202534         916.039         831.954 
       0.208729         869.576         790.967 
       0.214876         822.707         745.906 
       0.220989         790.727         699.591 
       0.227147         746.352         654.972 
        0.23329         711.477         615.409 
       0.239377         691.776         582.583 
       0.245482         644.709         555.961 
       0.251667         637.931         534.072 
       0.257832         615.234         515.324 
       0.263955         594.967         497.707 
       0.270079         572.983         479.562 
        0.27624         565.036         460.139 
       0.282372         541.605          439.79 
        0.28843          525.92         419.452 
       0.294538         499.801         399.688 
       0.300721         494.982         381.293 
        0.30691         471.638         364.997 
       0.313033         461.385         350.967 
       0.319153         445.804         338.701 
       0.325316         433.397         327.528 
        0.33145         420.262         317.002 
       0.337538         414.214          306.67 
       0.343633         400.639          296.22 
       0.349808          387.27         285.521 
       0.355968         382.484         274.914 
       0.362074         374.129         264.743 
       0.368217         363.659         255.078 
       0.374374           349.4         246.137 
       0.380519         345.536         237.968 
       0.386598         336.751         230.554 
       0.392688         333.475         223.646 
        0.39888         324.226         216.964 
       0.405048         316.907         210.516 
       0.411186         310.463          204.21 
       0.417313         304.555         197.996 
       0.423458         298.511         191.892 
       0.429607         292.213         185.967 
       0.435692         284.396         180.347 
       0.441815          282.04         174.989 
       0.447964         276.384         169.918 
       0.454126          266.64         165.124 
       0.460267         263.101         160.602 
       0.466387         259.967         156.295 
        0.47254          254.28         152.113 
       0.478662         253.181         148.069 
       0.484765         244.972         144.145 
       0.490885         241.892          140.31 
       0.497035         238.045         136.569 
       0.503198         232.777         132.952 
       0.509342         230.397         129.492 
       0.515458         227.245         126.192 
       0.521598         223.012         123.018 
       0.527764         219.706         119.963 
       0.533884         216.958         117.048 
           0.54         213.655         114.235 
       0.546137         212.374         111.496 
       0.552299         208.088         108.826 
       0.558452         205.693         106.238 
       0.564573         202.402         103.741 
       0.570708         198.553         101.314 
       0.576825         196.009          98.973 
       0.582926         193.177         96.7163 
       0.589034         191.015          94.535 
       0.595184         188.891         92.4149 
       0.601379         186.728         90.3504 
       0.607522         183.005          88.367 
       0.613639         182.029         86.4502 
       0.619772         178.123         84.5834 
       0.625918         176.585         82.7664 
       0.632068         174.343         81.0007 
       0.638161         173.194         79.3014 
         0.6443         170.606         77.6386 
       0.650464         168.834         76.0178 
       0.656582         166.979         74.4558 
       0.662703         165.217         72.9389 
       0.668861         162.494         71.4576 
       0.675024         160.599         70.0178 
       0.681124         159.808         68.6332 
       0.687237         157.136         67.2836 
       0.693381         154.893         65.9637 
       0.699536         153.799         64.6763 
       0.705665         153.458         63.4283 
       0.711789         150.348         62.2142 
       0.717957         149.942         61.0237 
        0.72409         147.797         59.8714 
       0.730186         145.642         58.7566 
       0.736317         144.564         57.6648 
       0.742472         143.671         56.5973 
       0.748622         142.351         55.5583 
        0.75476         141.095          54.548 
       0.760888         139.113         53.5644 
       0.767043         138.503         52.6013 
       0.773185         136.996         51.6639 
       0.779291         134.827         50.7547 
       0.785407         134.225         49.8662 
       0.791564         133.027         48.9936 
       0.797719         130.964         48.1424 
       0.803834         130.355         47.3172 
       0.809972         128.988         46.5086 
       0.816124         128.659         45.7173 
       0.822261         127.167         44.9469 
       0.828378         125.972         44.1967 
       0.834502         125.585         43.4632 
       0.840667         123.719         42.7417 
       0.846816         122.503         42.0388 
       0.852925         121.826         41.3562 
       0.859047         120.331         40.6874 
       0.865192          119.59         40.0313 
       0.871341         118.502         39.3893 
       0.877463         117.396         38.7644 
       0.883569          116.71         38.1547 
       0.889708          115.78         37.5551 
       0.895864          114.64         36.9669 
       0.902008         113.847         36.3926 
       0.908149         113.285         35.8309 
       0.914301         112.086         35.2803 
       0.920448         111.263         34.7418 
       0.926574         110.534         34.2165 
       0.932687         110.265         33.7033 
       0.938823         108.557         33.1988 
       0.944975         107.527         32.7035 
       0.951105         107.051         32.2202 
       0.957225         105.847         31.7476 
       0.963368         105.081         31.2829 
       0.969511         104.866         30.8275 
       0.975621         104.319         30.3837 
       0.981748         103.498         29.9476 
       0.987916         102.407         29.5174 
        0.99406         101.734         29.0973 
        1.00019         101.185         28.6862 
        1.00632         100.388         28.2835 
        1.01246         99.7227         27.8881 
        1.01859         98.5476         27.5008 
        1.02471         98.3252         27.1215 
        1.03085         97.3791          26.748 
        1.03698         96.9235         26.3825 
        1.04314         95.9866         26.0222 
        1.04929         95.4074         25.6696 
        1.05541         94.6989          25.325 
        1.06154         94.2889         24.9859 
        1.06769         93.9439         24.6525 
        1.07382         93.3456         24.3264 
        1.07993         92.6108         24.0069 
        1.08607         91.9035         23.6919 
        1.09222         91.5459         23.3823 
        1.09836         90.7712         23.0785 
        1.10449         90.2468         22.7806 
        1.11063         89.5975         22.4876 
        1.11677         89.1973         22.1999 
         1.1229          88.248         21.9177 
        1.12903         87.5533         21.6403 
        1.13518         87.7492         21.3674 
        1.14131         86.9821         21.0994 
        1.14745         86.2112         20.8361 
        1.15359         85.7722         20.5774 
        1.15973         85.3791         20.3229 
        1.16584         84.6894         20.0739 
        1.17197         84.2406         19.8287 
        1.17811         83.6979         19.5869 
        1.18424         83.1645         19.3499 
        1.19038          82.711         19.1161 
        1.19652         82.3033         18.8862 
        1.20267         81.5559         18.6602 
        1.20881         81.1538         18.4379 
        1.21495         80.6135         18.2196 
        1.22108         80.2407         18.0049 
         1.2272         79.4857         17.7942 
        1.23334         79.2349         17.5864 
        1.23949         78.7001         17.3814 
        1.24562         78.3302         17.1803 
        1.25174         77.8358         16.9826 
        1.25789         77.5129         16.7875 
        1.26402         77.0931         16.5959 
        1.27014          76.437         16.4077 
        1.27628         76.1741         16.2219 
        1.28244          75.565         16.0386 
        1.28858         75.3102         15.8584 
        1.29471          74.882         15.6814 
        1.30084         74.4306         15.5073 
        1.30697         73.9762         15.3355 
        1.31312         73.5851         15.1662 
        1.31925         73.1977         14.9999 
        1.32537         72.9189         14.8363 
        1.33151         72.1754         14.6746 
        1.33765         71.8623         14.5154 
        1.34378         71.4439         14.3589 
        1.34992         71.2208         14.2046 
        1.35606         70.8149         14.0522 
         1.3622         70.1762         13.9023 
        1.36833         70.0556          13.755 
        1.37445           69.62         13.6099 
        1.38059          69.085         13.4665 
        1.38675         68.7188         13.3247 
        1.39288         68.3403         13.1856 
        1.39901         68.2003         13.0486 
        1.40515          67.741         12.9132 
         1.4113         67.3594         12.7798 
        1.41742         67.2528         12.6487 
        1.42355         66.6111         12.5193 
         1.4297         66.3884         12.3913 
        1.43585         65.8685         12.2652 
        1.44198         65.6077         12.1413 
        1.44809          65.308         12.0193 
        1.45423         64.9381         11.8986 
        1.46036          64.743         11.7797 
        1.46649         64.3308         11.6625 
        1.47263         63.8895         11.5467 
        1.47877          63.718         11.4326 
        1.48491         63.4261         11.3198 
        1.49104         62.9938         11.2088 
        1.49718         62.5338         11.0993 
        1.50333         62.3123          10.991 
        1.50947         62.0133         10.8844 
         1.5156         61.6898         10.7793 
        1.52172         61.4458         10.6757 
        1.52787         61.2806         10.5732 
          1.534         60.8187         10.4722 
        1.54013         60.4411         10.3726 
        1.54627         60.2657         10.2741 
        1.55241         59.8065         10.1769 
        1.55855         59.5521         10.0811 
        1.56467         59.1328         9.98683 
         1.5708          59.066         9.89348 
        1.57695         58.8103         9.80118 
        1.58308         58.3268         9.71027 
        1.58922         58.2506         9.62046 
        1.59535         58.0443         9.53183 
         1.6015         57.4507         9.44419 
        1.60764          57.314         9.35769 
        1.61376         56.9705         9.27252 
        1.61989         56.6772         9.18835 
        1.62604         56.5294         9.10504 
        1.63218         56.3189         9.02281 
        1.63831         55.9486         8.94179 
        1.64444         55.6546         8.86174 
        1.65059            55.3         8.78248 
        1.65673         55.1379         8.70428 
        1.66285         54.7859         8.62725 
        1.66898         54.5809         8.55113 
        1.67512         54.2252         8.47579 
        1.68127         53.9611         8.40128 
         1.6874         53.8006         8.32783 
        1.69353         53.4957         8.25531 
        1.69967         53.2116         8.18348 
        1.70581         53.1176         8.11254 
        1.71193         52.8822         8.04271 
        1.71806         52.3534         7.97355 
        1.72421         52.2798         7.90507 
        1.73035         52.0071         7.83748 
        1.73649         51.6035         7.77069 
        1.74262         51.5446         7.70474 
        1.74876         51.2733         7.63951 
        1.75489         50.9937         7.57517 
        1.76101         50.8205         7.51159 
        1.76715         50.4755         7.44866 
        1.77329         50.2831         7.38637 
        1.77943         49.9849         7.32477 
        1.78557         49.8502         7.26397 
        1.79171         49.5639         7.20385 
        1.79785         49.3593         7.14439 
        1.80399         49.1837         7.08563 
        1.81012         48.9487          7.0276 
        1.81625         48.5239         6.97025 
        1.82239         48.4143         6.91346 
        1.82853         48.0706         6.85732 
        1.83466         47.9532         6.80187 
        1.84078         47.6025         6.74709 
        1.84692         47.4093         6.69283 
        1.85306         47.2313          6.6391 
         1.8592         46.9069         6.58604 
        1.86533         46.8115          6.5336 
        1.87147         46.5845         6.48167 
        1.87761         46.4104         6.43028 
        1.88375         46.1432         6.37951 
        1.88988         46.0838         6.32934 
        1.89601         45.7323         6.27969 
        1.90215         45.5555         6.23053 
        1.90829         45.4318         6.18192 
        1.91442         45.1464         6.13383 
        1.92056         44.8569         6.08629 
         1.9267         44.6431         6.03921 
        1.93284         44.4957          5.9926 
        1.93897         44.2916         5.94657 
        1.94509         43.9887         5.90112 
        1.95123         43.9155         5.85604 
        1.95737         43.6621         5.81139 
        1.96349          43.411         5.76732 
        1.96964         43.3749         5.72359 
        1.97578         43.0494         5.68028 
        1.98192         42.9023         5.63752 
        1.98805         42.7561         5.59519 
        1.99419         42.4528         5.55329 
        2.00033         42.2757          5.5118 
        2.00647         42.0766         5.47075 
         2.0126         41.8449         5.43019 
        2.01874         41.7544         5.38998 
        2.02488         41.5902         5.35013 
        2.03101         41.3223         5.31077 
        2.03714         41.1475         5.27184 
        2.04328         40.9382         5.23326 
        2.04941         40.7225         5.19509 
        2.05554         40.4967         5.15734 
        2.06167          40.445         5.11991 
        2.06781          40.209         5.08284 
        2.07396         40.0342         5.04609 
        2.08009         39.8831         5.00977 
        2.08622         39.6168         4.97385 
        2.09237         39.4662         4.93821 
        2.09851         39.2843         4.90291 
        2.10464         39.1279         4.86802 
        2.11077         39.0025         4.83351 
        2.11691         38.7531         4.79925 
        2.12305         38.5496         4.76533 
        2.12918         38.3984         4.73182 
        2.13531         38.1848         4.69863 
        2.14145         38.0879         4.66568 
         2.1476         37.8828         4.63301 
        2.15372         37.6577         4.60082 
        2.15985         37.5261          4.5689 
        2.16599          37.489         4.53719 
        2.17213         37.3267         4.50582 
        2.17827         37.0393         4.47475 
         2.1844         36.8995           4.444 
        2.19054         36.7143         4.41354 
        2.19666         36.5633          4.3834 
         2.2028         36.3672         4.35352 
        2.20893         36.2808          4.3239 
        2.21508         36.1373         4.29452 
        2.22122         35.8957         4.26541 
        2.22736         35.7883         4.23663 
        2.23349         35.6499         4.20812 
        2.23962         35.3758         4.17986 
        2.24577         35.2559         4.15183 
         2.2519         35.0787          4.1241 
        2.25802         35.0046         4.09667 
        2.26417         34.8204         4.06941 
        2.27031         34.7186         4.04237 
        2.27644         34.4618         4.01566 
        2.28257         34.3802         3.98919 
        2.28872         34.1587         3.96291 
        2.29486          34.101         3.93688 
        2.30099         33.9192         3.91113 
        2.30712         33.7722          3.8856 
        2.31326         33.6439         3.86025 
         2.3194         33.4883         3.83515 
        2.32553         33.3285         3.81031 
        2.33166         33.2078          3.7857 
         2.3378         32.9789         3.76128 
        2.34394         32.8264         3.73706 
        2.35007         32.7253         3.71309 
        2.35619         32.6302         3.68937 
        2.36233         32.5221         3.66579 
        2.36848         32.2872         3.64237 
        2.37462         32.1997          3.6192 
        2.38075         32.0657         3.59626 
        2.38689         31.9966          3.5735 
        2.39303         31.7851         3.55094 
        2.39916          31.599          3.5286 
        2.40529         31.3981         3.50645 
        2.41143         31.3818         3.48448 
        2.41757         31.2787         3.46268 
         2.4237         31.1001         3.44111 
        2.42983         30.9511         3.41973 
        2.43598          30.786         3.39847 
        2.44211         30.6623         3.37743 
        2.44823         30.5536         3.35662 
        2.45437         30.4408         3.33592 
        2.46052         30.2225         3.31538 
        2.46665         30.1849         3.29505 
        2.47279         30.0477          3.2749 
        2.47892         29.8662          3.2549 
        2.48507         29.7562         3.23505 
         2.4912         29.6452          3.2154 
