# k  (h/Mpc)    P(k)  (Mpc/h)^3    P_linear(k)  (Mpc/h)^3
     0.00783031         14366.9           14631 
       0.013688         17811.6         17696.7 
       0.019231         17662.5         17652.9 
      0.0249154         15773.4         16110.9 
      0.0312784         13605.8         13757.3 
      0.0375637         11550.3         11548.3 
      0.0433917         9762.65         9920.77 
      0.0492413         8697.79         8744.52 
      0.0555754         7669.49          7887.4 
      0.0619321         7316.51         7289.36 
       0.067871         6644.01         6813.42 
      0.0738098         6157.36         6314.54 
      0.0800417         5525.89         5724.79 
      0.0862327         4988.31         5094.08 
      0.0921407         4504.33          4505.8 
      0.0982031         3963.97         3973.42 
       0.104506         3654.17         3534.75 
       0.110769         3337.35         3221.37 
       0.116806         3119.03         3015.17 
       0.122832         2971.19         2869.37 
       0.129052         2772.65         2742.83 
       0.135211         2643.13         2609.43 
       0.141259         2532.49          2454.3 
       0.147318         2380.59         2275.47 
       0.153489         2172.93         2082.86 
       0.159709         2036.17         1897.29 
       0.165845         1932.82         1738.62 
       0.171974         1810.68         1612.58 
       0.178125         1715.81          1518.3 
       0.184229         1639.15         1449.69 
        0.19034         1546.97         1395.42 
       0.196428         1519.89         1345.05 
       0.202534         1467.44         1290.26 
       0.208729         1398.15         1226.69 
       0.214876          1334.2         1156.81 
       0.220989          1284.8         1084.98 
       0.227147         1223.69         1015.78 
        0.23329         1170.28         954.416 
       0.239377         1145.34         903.507 
       0.245482         1070.19         862.219 
       0.251667         1062.85         828.271 
       0.257832         1021.17         799.194 
       0.263955         988.358         771.871 
       0.270079         952.737         743.729 
        0.27624         942.087         713.606 
       0.282372         902.576         682.048 
        0.28843         889.446         650.506 
       0.294538         843.638         619.853 
       0.300721         838.515         591.325 
        0.30691         802.631         566.052 
       0.313033         786.637         544.293 
       0.319153          768.11         525.272 
       0.325316          744.12         507.943 
        0.33145         725.372          491.62 
       0.337538         713.452         475.596 
       0.343633         694.246          459.39 
       0.349808         669.882         442.795 
       0.355968          665.08         426.347 
       0.362074         656.198         410.572 
       0.368217         636.502         395.583 
       0.374374         610.089         381.718 
       0.380519         609.021         369.047 
       0.386598         592.387         357.551 
       0.392688         590.022         346.837 
        0.39888         572.316         336.474 
       0.405048         562.595         326.475 
       0.411186         553.946         316.695 
       0.417313         542.695         307.058 
       0.423458         532.567         297.592 
       0.429607         524.461         288.402 
       0.435692         512.228         279.686 
       0.441815         507.647         271.377 
       0.447964         496.931         263.513 
       0.454126         488.256         256.079 
       0.460267         478.245         249.066 
       0.466387         472.726         242.387 
        0.47254         465.674         235.901 
       0.478662         463.377          229.63 
       0.484765         447.749         223.543 
       0.490885         444.242         217.596 
       0.497035         435.458         211.794 
       0.503198         430.871         206.186 
       0.509342         427.415          200.82 
       0.515458         423.206         195.702 
       0.521598         412.552         190.779 
       0.527764         405.775         186.041 
       0.533884         403.523          181.52 
           0.54         398.098         177.158 
       0.546137          396.17         172.911 
       0.552299         388.576         168.769 
       0.558452         386.386         164.756 
       0.564573         380.924         160.883 
       0.570708         374.885          157.12 
       0.576825         366.485         153.489 
       0.582926         365.395         149.989 
       0.589034         362.074         146.607 
       0.595184         358.913         143.319 
       0.601379         353.495         140.117 
       0.607522         348.451         137.041 
       0.613639         347.162         134.069 
       0.619772         339.535         131.174 
       0.625918         338.275         128.356 
       0.632068         332.838         125.617 
       0.638161          331.57         122.982 
         0.6443         325.974         120.403 
       0.650464           323.2          117.89 
       0.656582         320.777         115.467 
       0.662703         319.736         113.115 
       0.668861         314.087         110.818 
       0.675024         310.918         108.585 
       0.681124         308.703         106.438 
       0.687237         305.708         104.345 
       0.693381         301.169         102.298 
       0.699536         297.966         100.301 
       0.705665          295.94         98.3657 
       0.711789         294.122         96.4828 
       0.717957         291.973         94.6365 
        0.72409          289.23         92.8496 
       0.730186         285.809         91.1206 
       0.736317         282.894         89.4275 
       0.742472          281.31          87.772 
       0.748622          278.75         86.1608 
        0.75476         275.844         84.5939 
       0.760888         272.734         83.0686 
       0.767043         273.011         81.5749 
       0.773185         269.565         80.1211 
       0.779291         265.272         78.7112 
       0.785407         264.707         77.3333 
       0.791564         261.537           75.98 
       0.797719         259.019           74.66 
       0.803834         256.956         73.3802 
       0.809972         256.128         72.1262 
       0.816124         255.525         70.8991 
       0.822261         252.235         69.7043 
       0.828378         250.102         68.5409 
       0.834502         248.502         67.4033 
       0.840667          245.92         66.2845 
       0.846816         244.448         65.1944 
       0.852925           243.1         64.1358 
       0.859047         241.088         63.0986 
       0.865192         238.187         62.0811 
       0.871341         236.481         61.0855 
       0.877463         235.275         60.1164 
       0.883569         234.266         59.1708 
       0.889708         231.626         58.2409 
       0.895864         229.438         57.3288 
       0.902008         228.168         56.4382 
       0.908149         227.076         55.5671 
       0.914301         224.184         54.7132 
       0.920448         222.964         53.8781 
       0.926574         221.068         53.0634 
       0.932687          221.12         52.2675 
       0.938823         218.397         51.4851 
       0.944975         217.231         50.7171 
       0.951105         215.943         49.9676 
       0.957225          214.29         49.2346 
       0.963368          211.49         48.5139 
       0.969511         210.631         47.8077 
       0.975621         208.747         47.1195 
       0.981748          208.63         46.4432 
       0.987916         206.756         45.7759 
        0.99406         204.392         45.1244 
        1.00019          204.31          44.487 
        1.00632         202.595         43.8625 
        1.01246         201.023         43.2492 
        1.01859          201.05         42.6487 
        1.02471             198         42.0604 
        1.03085         196.542         41.4812 
        1.03698         195.694         40.9143 
        1.04314         193.886         40.3556 
        1.04929         192.788         39.8088 
        1.05541         192.884         39.2743 
        1.06154         190.341         38.7485 
        1.06769         190.082         38.2315 
        1.07382         188.476         37.7257 
        1.07993         186.996         37.2303 
        1.08607         186.462         36.7417 
        1.09222          185.21         36.2615 
        1.09836          183.73         35.7905 
        1.10449         181.847         35.3284 
        1.11063          180.39          34.874 
        1.11677         180.069         34.4279 
         1.1229         178.649         33.9903 
        1.12903         177.836           33.56 
        1.13518         176.742         33.1368 
        1.14131         175.075         32.7212 
        1.14745         175.027          32.313 
        1.15359         173.506         31.9117 
        1.15973         172.352          31.517 
        1.16584         170.968         31.1309 
        1.17197         170.659         30.7507 
        1.17811         169.052         30.3757 
        1.18424         168.253          30.008 
        1.19038         167.849         29.6454 
        1.19652         166.384          29.289 
        1.20267         165.769         28.9384 
        1.20881         164.306         28.5937 
        1.21495         163.473         28.2552 
        1.22108         162.459         27.9222 
         1.2272         161.203         27.5954 
        1.23334         160.746         27.2731 
        1.23949         159.451         26.9553 
        1.24562          158.62         26.6434 
        1.25174         157.479         26.3369 
        1.25789         156.456         26.0343 
        1.26402         155.242         25.7371 
        1.27014          154.17         25.4452 
        1.27628         153.762         25.1571 
        1.28244         153.477         24.8728 
        1.28858         151.949         24.5934 
        1.29471          150.62         24.3189 
        1.30084         150.371         24.0489 
        1.30697         148.985         23.7825 
        1.31312         148.208         23.5199 
        1.31925         147.371         23.2621 
        1.32537         146.811         23.0084 
        1.33151         145.385         22.7576 
        1.33765         144.692         22.5106 
        1.34378         144.092         22.2679 
        1.34992         143.485         22.0286 
        1.35606         143.152         21.7923 
         1.3622         141.565         21.5599 
        1.36833         140.502         21.3314 
        1.37445         139.982         21.1064 
        1.38059         139.045         20.8839 
        1.38675         138.461         20.6642 
        1.39288         137.792         20.4484 
        1.39901         137.503         20.2359 
        1.40515         135.982         20.0259 
         1.4113         135.311          19.819 
        1.41742         134.459         19.6158 
        1.42355         133.729         19.4151 
         1.4297         133.024         19.2166 
        1.43585          132.13          19.021 
        1.44198         131.545         18.8288 
        1.44809         130.953         18.6397 
        1.45423         130.229         18.4525 
        1.46036         129.314         18.2681 
        1.46649         128.426         18.0863 
        1.47263          127.71         17.9068 
        1.47877         127.147         17.7298 
        1.48491         125.909         17.5549 
        1.49104         125.848         17.3828 
        1.49718         124.703         17.2129 
        1.50333         124.168         17.0449 
        1.50947         123.653         16.8796 
         1.5156         122.833         16.7167 
        1.52172         122.119         16.5559 
        1.52787         121.301          16.397 
          1.534         120.837         16.2404 
        1.54013          120.11         16.0859 
        1.54627         119.559         15.9332 
        1.55241         118.591         15.7825 
        1.55855         117.892         15.6339 
        1.56467         117.527         15.4877 
         1.5708         116.587         15.3429 
        1.57695         116.219         15.1998 
        1.58308         115.556         15.0588 
        1.58922         115.162         14.9195 
        1.59535         114.291         14.7821 
         1.6015         113.844         14.6461 
        1.60764         113.176          14.512 
        1.61376          112.58         14.3799 
        1.61989          111.85         14.2494 
        1.62604         111.236         14.1202 
        1.63218         110.925         13.9927 
        1.63831         109.985          13.867 
        1.64444         109.551         13.7429 
        1.65059         109.006           13.62 
        1.65673         108.043         13.4987 
        1.66285         107.774         13.3792 
        1.66898         107.261         13.2612 
        1.67512         106.707         13.1443 
        1.68127         105.996         13.0288 
         1.6874         105.185         12.9149 
        1.69353         104.883         12.8024 
        1.69967         104.457          12.691 
        1.70581         103.724          12.581 
        1.71193         103.284         12.4727 
        1.71806         102.739         12.3655 
        1.72421         101.997         12.2593 
        1.73035         101.821         12.1544 
        1.73649         101.086         12.0509 
        1.74262         100.378         11.9486 
        1.74876         100.112         11.8474 
        1.75489         99.3298         11.7477 
        1.76101         98.7566         11.6491 
        1.76715         98.1914         11.5515 
        1.77329         97.9397         11.4549 
        1.77943         97.0907         11.3593 
        1.78557         96.8298          11.265 
        1.79171         96.0097         11.1718 
        1.79785         95.6254         11.0796 
        1.80399         95.0162         10.9885 
        1.81012         94.6494         10.8985 
        1.81625         94.1956         10.8095 
        1.82239         93.8431         10.7215 
        1.82853         93.2182         10.6344 
        1.83466         92.5617         10.5484 
        1.84078         92.3058         10.4635 
        1.84692         91.6669         10.3793 
        1.85306         91.2448          10.296 
         1.8592         90.8474         10.2137 
        1.86533         90.1241         10.1324 
        1.87147         89.7664         10.0518 
        1.87761         89.2992         9.97214 
        1.88375         88.6947         9.89341 
        1.88988         88.3909         9.81561 
        1.89601         87.8349         9.73861 
        1.90215         87.3445         9.66237 
        1.90829         86.9217         9.58699 
        1.91442         86.5134         9.51241 
        1.92056         85.9273         9.43869 
         1.9267         85.6469         9.36567 
        1.93284         85.1661         9.29339 
        1.93897         84.7023           9.222 
        1.94509         84.3592         9.15152 
        1.95123         83.8989          9.0816 
        1.95737         83.3545         9.01236 
        1.96349         82.9097         8.94402 
        1.96964         82.3866         8.87619 
        1.97578         81.9973         8.80904 
        1.98192         81.8525         8.74272 
        1.98805         81.0909         8.67707 
        1.99419         80.8853          8.6121 
        2.00033         80.5006         8.54776 
        2.00647         79.9961          8.4841 
         2.0126         79.5859         8.42119 
        2.01874          78.975         8.35883 
        2.02488         78.7062         8.29704 
        2.03101         78.1858           8.236 
        2.03714         77.6729         8.17563 
        2.04328         77.4839         8.11579 
        2.04941         77.1295          8.0566 
        2.05554         76.7395         7.99805 
        2.06167         76.3196            7.94 
        2.06781         75.7894         7.88252 
        2.07396         75.4315         7.82553 
        2.08009         75.1768          7.7692 
        2.08622         74.7141         7.71349 
        2.09237          74.348         7.65822 
        2.09851         74.0682         7.60348 
        2.10464         73.5652         7.54937 
        2.11077          73.222         7.49585 
        2.11691         72.9588         7.44273 
        2.12305         72.3577         7.39012 
        2.12918         72.0299         7.33815 
        2.13531         71.7727         7.28668 
        2.14145         71.2264         7.23558 
         2.1476         70.8598         7.18492 
        2.15372         70.6432         7.13499 
        2.15985         70.2195         7.08549 
        2.16599          69.843         7.03632 
        2.17213         69.5357         6.98767 
        2.17827         69.1105         6.93949 
         2.1844          68.746         6.89181 
        2.19054         68.6107         6.84456 
        2.19666         68.1119         6.79782 
         2.2028         67.9257         6.75148 
        2.20893         67.4279         6.70554 
        2.21508         67.1457         6.65999 
        2.22122          66.767         6.61484 
        2.22736         66.4653          6.5702 
        2.23349         66.0842         6.52599 
        2.23962         65.7291         6.48216 
        2.24577           65.43          6.4387 
         2.2519         65.1671          6.3957 
        2.25802          64.842         6.35315 
        2.26417          64.385         6.31088 
        2.27031         64.1624         6.26895 
        2.27644         63.7894         6.22753 
        2.28257         63.4725         6.18648 
        2.28872         63.1453         6.14572 
        2.29486         62.6573         6.10535 
        2.30099         62.3268         6.06541 
        2.30712          62.229         6.02582 
        2.31326         61.9305         5.98651 
         2.3194          61.573         5.94758 
        2.32553         61.2299         5.90906 
        2.33166         60.9245          5.8709 
         2.3378         60.5307         5.83302 
        2.34394         60.2755         5.79547 
        2.35007         59.9896          5.7583 
        2.35619         59.7401          5.7215 
        2.36233         59.4278         5.68494 
        2.36848         59.1495         5.64862 
        2.37462         58.7109          5.6127 
        2.38075          58.596         5.57712 
        2.38689         58.2309         5.54182 
        2.39303         57.8994         5.50683 
        2.39916         57.6322         5.47219 
        2.40529         57.4281         5.43784 
        2.41143         57.1228         5.40376 
        2.41757         56.7807         5.36996 
         2.4237         56.6311         5.33651 
        2.42983         56.2126         5.30335 
        2.43598         55.8979         5.27039 
        2.44211         55.6747         5.23775 
        2.44823         55.4377         5.20547 
        2.45437         55.0665         5.17337 
        2.46052         54.8631         5.14152 
        2.46665         54.6588         5.10999 
        2.47279         54.2297         5.07874 
        2.47892         54.0706         5.04772 
        2.48507         53.7644         5.01694 
         2.4912         53.5071         4.98648 
