# k  (h/Mpc)    Pcb(k)  (Mpc/h)^3    Pcb_linear(k)  (Mpc/h)^3
     0.00783031         3868.29         3891.28 
       0.013688         4824.67         4898.44 
       0.019231          5030.8         5069.45 
      0.0249154         4801.18         4796.08 
      0.0312784          4227.2         4243.61 
      0.0375637         3629.02         3656.16 
      0.0433917         3182.32         3182.49 
      0.0492413         2799.71         2813.53 
      0.0555754         2534.01         2529.06 
      0.0619321         2292.37         2331.34 
       0.067871         2174.49         2188.63 
      0.0738098         2046.52         2055.04 
      0.0800417         1900.37         1903.33 
      0.0862327         1724.44         1735.02 
      0.0921407         1558.41         1565.39 
      0.0982031         1402.34         1396.36 
       0.104506         1235.87         1241.05 
       0.110769            1118            1117 
       0.116806         1044.14         1027.88 
       0.122832          971.56         964.527 
       0.129052         928.014         917.594 
       0.135211         896.611         879.702 
       0.141259         849.952         842.319 
       0.147318         797.877         799.356 
       0.153489         752.454          748.51 
       0.159709         706.206         692.391 
       0.165845         640.499          636.76 
       0.171974         608.035         585.653 
       0.178125         567.869         542.221 
       0.184229         526.521         508.232 
        0.19034         508.659         482.637 
       0.196428           489.8         463.425 
       0.202534         463.201         447.629 
       0.208729         454.975         432.299 
       0.214876         439.968         415.674 
       0.220989         412.377          396.82 
       0.227147         400.688         375.784 
        0.23329         381.774         353.928 
       0.239377         366.523         332.906 
       0.245482         345.025         313.774 
       0.251667         327.802         297.225 
       0.257832         321.394         283.737 
       0.263955         304.124         272.904 
       0.270079         293.934         263.842 
        0.27624          282.64         255.576 
       0.282372         275.352         247.383 
        0.28843         272.821         238.807 
       0.294538          260.14          229.52 
       0.300721         248.982         219.666 
        0.30691         243.683         209.742 
       0.313033         232.468         200.346 
       0.319153         227.368         191.739 
       0.325316         219.038         184.087 
        0.33145         212.313         177.473 
       0.337538         205.616         171.751 
       0.343633         199.693         166.589 
       0.349808         193.911          161.66 
       0.355968         189.143         156.791 
       0.362074         185.231         151.877 
       0.368217          181.11         146.817 
       0.374374         176.615          141.69 
       0.380519         168.929         136.656 
       0.386598         165.171         131.881 
       0.392688         160.479         127.418 
        0.39888         157.252         123.261 
       0.405048         153.838         119.487 
       0.411186         151.014         116.052 
       0.417313         147.276         112.844 
       0.423458         143.623         109.763 
       0.429607         140.841         106.748 
       0.435692          138.43         103.783 
       0.441815           134.3         100.812 
       0.447964         130.378         97.8669 
       0.454126          127.94         94.9839 
       0.460267         126.855         92.2189 
       0.466387         123.784         89.6071 
        0.47254         122.326          87.135 
       0.478662         118.158         84.8218 
       0.484765         116.365         82.6481 
       0.490885         113.699         80.5743 
       0.497035          112.81         78.5645 
       0.503198         110.188         76.6027 
       0.509342         107.406         74.6896 
       0.515458         106.142         72.8217 
       0.521598         103.562         70.9839 
       0.527764         102.361         69.1875 
       0.533884         101.434         67.4667 
           0.54         98.7883         65.8161 
       0.546137         96.3744         64.2289 
       0.552299         94.9427         62.7034 
       0.558452         93.1608         61.2458 
       0.564573         92.7758         59.8516 
       0.570708         90.0471         58.4995 
       0.576825         89.1584         57.1882 
       0.582926         88.0792         55.9121 
       0.589034         86.5519         54.6665 
       0.595184         85.4543          53.445 
       0.601379         83.3112         52.2484 
       0.607522         82.0709         51.0964 
       0.613639         81.3068         49.9852 
       0.619772         79.8784         48.9089 
       0.625918         78.8853         47.8683 
       0.632068         77.8177         46.8623 
       0.638161          76.423         45.8969 
         0.6443         75.8171         44.9519 
       0.650464         74.2238         44.0287 
       0.656582         73.8865         43.1361 
       0.662703         72.9409         42.2664 
       0.668861         71.2567         41.4146 
       0.675024         71.0225         40.5848 
       0.681124         70.0506         39.7858 
       0.687237         68.6369         39.0067 
       0.693381         68.0489         38.2453 
       0.699536         67.3859         37.5039 
       0.705665         66.3054         36.7867 
       0.711789         65.3784         36.0901 
       0.717957         64.4647         35.4078 
        0.72409         63.9159         34.7472 
       0.730186         63.5098         34.1075 
       0.736317         62.3359         33.4798 
       0.742472         61.6365         32.8649 
       0.748622         60.7486         32.2655 
        0.75476         59.9445          31.682 
       0.760888         59.7828         31.1139 
       0.767043         58.6501         30.5576 
       0.773185         58.0567         30.0166 
       0.779291         57.3525         29.4924 
       0.785407         56.5515         28.9803 
       0.791564         56.5656         28.4775 
       0.797719         55.6665         27.9871 
       0.803834         55.1655         27.5114 
       0.809972         54.5184         27.0451 
       0.816124         53.9814         26.5884 
       0.822261         53.2941         26.1435 
       0.828378         53.0399           25.71 
       0.834502         52.3505         25.2859 
       0.840667         51.9609         24.8687 
       0.846816         51.1842         24.4621 
       0.852925         50.8718         24.0673 
       0.859047         50.6428         23.6805 
       0.865192         49.8073         23.3011 
       0.871341         49.2438         22.9298 
       0.877463         48.8919         22.5684 
       0.883569          48.697         22.2158 
       0.889708         48.1531          21.869 
       0.895864         47.6393         21.5287 
       0.902008         47.1632         21.1965 
       0.908149         46.7433         20.8714 
       0.914301         46.4175         20.5527 
       0.920448         46.0474         20.2409 
       0.926574         45.3306         19.9367 
       0.932687         45.0396         19.6394 
       0.938823         44.5607         19.3471 
       0.944975         44.1735         19.0601 
       0.951105         43.8319         18.7801 
       0.957225         43.5902         18.5061 
       0.963368         43.1268         18.2367 
       0.969511         42.7577         17.9727 
       0.975621          42.439         17.7154 
       0.981748         41.9796         17.4625 
       0.987916         41.7117         17.2129 
        0.99406         41.2788         16.9692 
        1.00019         41.0103         16.7308 
        1.00632         40.6939         16.4971 
        1.01246         40.3612         16.2676 
        1.01859         40.0265         16.0429 
        1.02471          39.639         15.8227 
        1.03085         39.4953         15.6059 
        1.03698         39.2052         15.3937 
        1.04314          38.886         15.1845 
        1.04929         38.4492         14.9797 
        1.05541         38.3163         14.7796 
        1.06154         38.0835         14.5826 
        1.06769         37.5392          14.389 
        1.07382         37.4035         14.1995 
        1.07993         37.0818         14.0138 
        1.08607         36.8319         13.8308 
        1.09222         36.5979         13.6508 
        1.09836         36.2592         13.4743 
        1.10449         36.1091         13.3011 
        1.11063          35.777         13.1308 
        1.11677         35.7394         12.9635 
         1.1229         35.3517         12.7995 
        1.12903         35.1166         12.6381 
        1.13518         34.9953         12.4794 
        1.14131         34.6591         12.3236 
        1.14745         34.2933         12.1704 
        1.15359         34.0184         12.0199 
        1.15973         33.8608         11.8719 
        1.16584          33.635          11.727 
        1.17197         33.2487         11.5844 
        1.17811         33.1395         11.4436 
        1.18424         32.7579         11.3057 
        1.19038         32.6855         11.1696 
        1.19652         32.4507         11.0358 
        1.20267         32.2952         10.9042 
        1.20881         32.0508         10.7748 
        1.21495         31.8766         10.6477 
        1.22108           31.79         10.5227 
         1.2272         31.5406            10.4 
        1.23334         31.3362          10.279 
        1.23949         31.0974         10.1596 
        1.24562         30.8032         10.0425 
        1.25174          30.687         9.92735 
        1.25789         30.5868          9.8137 
        1.26402         30.3887         9.70203 
        1.27014         30.1929         9.59238 
        1.27628         29.9087         9.48411 
        1.28244         29.8871         9.37731 
        1.28858         29.5975          9.2723 
        1.29471         29.4242         9.16914 
        1.30084         29.2214         9.06765 
        1.30697         29.0865         8.96754 
        1.31312         28.8545         8.86881 
        1.31925         28.6747         8.77189 
        1.32537         28.4958         8.67651 
        1.33151         28.3156         8.58221 
        1.33765         28.2758         8.48938 
        1.34378         28.0961          8.3981 
        1.34992         27.9221         8.30811 
        1.35606         27.7351         8.21924 
         1.3622         27.5342         8.13184 
        1.36833         27.4388         8.04591 
        1.37445          27.252         7.96128 
        1.38059         27.1123          7.8776 
        1.38675         26.9053         7.79493 
        1.39288         26.7838         7.71378 
        1.39901         26.6195         7.63382 
        1.40515         26.5189         7.55482 
         1.4113         26.4188         7.47697 
        1.41742         26.2712         7.40052 
        1.42355         26.0476         7.32499 
         1.4297         25.9046          7.2503 
        1.43585         25.7576         7.17667 
        1.44198         25.6756         7.10435 
        1.44809         25.5306         7.03317 
        1.45423         25.3982         6.96269 
        1.46036         25.2687         6.89332 
        1.46649         25.1177         6.82486 
        1.47263         24.9746         6.75728 
        1.47877         24.8941         6.69065 
        1.48491         24.7584         6.62481 
        1.49104         24.5893            6.56 
        1.49718         24.5068         6.49601 
        1.50333         24.4067         6.43277 
        1.50947         24.2602         6.37051 
         1.5156         24.1178         6.30916 
        1.52172         23.9584         6.24863 
        1.52787         23.8692         6.18877 
          1.534          23.774         6.12977 
        1.54013         23.6845         6.07159 
        1.54627         23.4853         6.01408 
        1.55241         23.3768         5.95729 
        1.55855         23.2812         5.90133 
        1.56467         23.2328         5.84624 
         1.5708         23.0883         5.79169 
        1.57695         22.9707         5.73776 
        1.58308         22.7767         5.68465 
        1.58922          22.687         5.63217 
        1.59535         22.5971         5.58037 
         1.6015         22.4721         5.52916 
        1.60764         22.3952         5.47861 
        1.61376         22.3194         5.42884 
        1.61989         22.1318         5.37964 
        1.62604          22.069         5.33095 
        1.63218         21.9686         5.28289 
        1.63831         21.8405         5.23553 
        1.64444         21.7476         5.18874 
        1.65059         21.6482         5.14241 
        1.65673         21.5729         5.09669 
        1.66285         21.4327         5.05166 
        1.66898           21.37         5.00716 
        1.67512         21.3064         4.96311 
        1.68127         21.1841         4.91954 
         1.6874         21.0974          4.8766 
        1.69353         20.9339          4.8342 
        1.69967          20.861          4.7922 
        1.70581         20.7775         4.75071 
        1.71193         20.6233         4.70988 
        1.71806         20.5838         4.66943 
        1.72421         20.5183         4.62939 
        1.73035         20.3778         4.58986 
        1.73649         20.3004          4.5508 
        1.74262         20.1846         4.51222 
        1.74876         20.1085         4.47407 
        1.75489         20.0481         4.43644 
        1.76101         19.9239         4.39925 
        1.76715         19.8639         4.36244 
        1.77329         19.7477         4.32601 
        1.77943         19.6723         4.28997 
        1.78557         19.6015          4.2544 
        1.79171         19.4797         4.21923 
        1.79785         19.4166         4.18445 
        1.80399         19.3147         4.15007 
        1.81012         19.2721         4.11612 
        1.81625         19.1451         4.08257 
        1.82239           19.06         4.04934 
        1.82853         18.9898          4.0165 
        1.83466         18.8818         3.98405 
        1.84078         18.8377           3.952 
        1.84692         18.8052         3.92025 
        1.85306         18.6861         3.88881 
         1.8592         18.6207         3.85776 
        1.86533         18.4632         3.82707 
        1.87147         18.4132         3.79668 
        1.87761         18.3429          3.7666 
        1.88375         18.3155         3.73689 
        1.88988         18.1628         3.70753 
        1.89601         18.1268         3.67847 
        1.90215         18.0103          3.6497 
        1.90829         17.9472         3.62125 
        1.91442         17.8183          3.5931 
        1.92056         17.8346         3.56527 
         1.9267         17.7401         3.53771 
        1.93284         17.7253         3.51043 
        1.93897         17.6106         3.48348 
        1.94509         17.5285         3.45688 
        1.95123         17.4202         3.43049 
        1.95737         17.3868         3.40435 
        1.96349         17.2902         3.37855 
        1.96964         17.2826         3.35294 
        1.97578         17.1842         3.32759 
        1.98192         17.1108         3.30256 
        1.98805         16.9898         3.27777 
        1.99419         16.9679         3.25324 
        2.00033         16.9001         3.22895 
        2.00647         16.8216         3.20492 
         2.0126         16.7651         3.18117 
        2.01874         16.6752         3.15762 
        2.02488         16.5722         3.13429 
        2.03101         16.5409         3.11124 
        2.03714         16.4644         3.08845 
        2.04328         16.4059         3.06585 
        2.04941         16.3156          3.0435 
        2.05554         16.3068         3.02139 
        2.06167         16.2419         2.99947 
        2.06781         16.1578         2.97777 
        2.07396         16.1499         2.95625 
        2.08009         16.0208         2.93498 
        2.08622         15.9753         2.91394 
        2.09237         15.9316         2.89306 
        2.09851         15.8215         2.87239 
        2.10464         15.7886         2.85195 
        2.11077         15.7184         2.83174 
        2.11691         15.6724         2.81168 
        2.12305         15.6021         2.79181 
        2.12918         15.5069         2.77219 
        2.13531         15.4817         2.75274 
        2.14145         15.3911         2.73345 
         2.1476         15.3193         2.71431 
        2.15372         15.3072         2.69545 
        2.15985         15.2467         2.67675 
        2.16599         15.1794         2.65818 
        2.17213         15.1563         2.63981 
        2.17827         15.0529         2.62161 
         2.1844          14.996          2.6036 
        2.19054         14.9761         2.58575 
        2.19666         14.9013         2.56809 
         2.2028         14.8576         2.55059 
        2.20893          14.757         2.53324 
        2.21508         14.7275         2.51603 
        2.22122         14.6404         2.49897 
        2.22736         14.6326         2.48211 
        2.23349         14.5693         2.46541 
        2.23962         14.5302         2.44885 
        2.24577          14.468         2.43243 
         2.2519         14.4019         2.41618 
        2.25802         14.3038         2.40011 
        2.26417         14.3183         2.38414 
        2.27031         14.2601         2.36829 
        2.27644         14.2351         2.35264 
        2.28257          14.117         2.33714 
        2.28872         14.1172         2.32174 
        2.29486         14.0561         2.30648 
        2.30099         13.9886         2.29139 
        2.30712         13.9044         2.27643 
        2.31326          13.863         2.26158 
         2.3194         13.8256         2.24687 
        2.32553         13.7699         2.23232 
        2.33166         13.7128          2.2179 
         2.3378         13.6749         2.20358 
        2.34394         13.6149         2.18939 
        2.35007         13.5722         2.17535 
        2.35619          13.518         2.16144 
        2.36233         13.4509         2.14763 
        2.36848         13.4018          2.1339 
        2.37462         13.3561         2.12033 
        2.38075         13.3211         2.10688 
        2.38689         13.2882         2.09354 
        2.39303         13.2053         2.08032 
        2.39916         13.1973         2.06723 
        2.40529         13.1464         2.05425 
        2.41143          13.079         2.04137 
        2.41757         13.0158          2.0286 
         2.4237         12.9927         2.01596 
        2.42983         12.9523         2.00342 
        2.43598         12.9051         1.99096 
        2.44211         12.8292         1.97863 
        2.44823         12.8092         1.96643 
        2.45437          12.773          1.9543 
        2.46052          12.732         1.94226 
        2.46665         12.6889         1.93035 
        2.47279         12.6187         1.91854 
        2.47892         12.5678         1.90681 
        2.48507         12.5388         1.89518 
         2.4912         12.5132         1.88367 
