# k  (h/Mpc)    Pcb(k)  (Mpc/h)^3    Pcb_linear(k)  (Mpc/h)^3
     0.00783031         3163.99         3183.37 
       0.013688         3951.23         4007.53 
       0.019231         4118.81         4147.54 
      0.0249154         3927.66         3923.93 
      0.0312784         3460.71         3471.96 
      0.0375637         2972.39         2991.35 
      0.0433917         2605.11         2603.82 
      0.0492413         2292.81         2301.95 
      0.0555754         2074.46         2069.21 
      0.0619321         1879.56         1907.44 
       0.067871          1781.6         1790.69 
      0.0738098         1676.09         1681.38 
      0.0800417         1556.35         1557.26 
      0.0862327         1412.66         1419.56 
      0.0921407         1276.19         1280.77 
      0.0982031         1147.36         1142.47 
       0.104506         1011.55          1015.4 
       0.110769         914.441         913.904 
       0.116806         852.854         840.992 
       0.122832         793.897         789.156 
       0.129052         758.438         750.757 
       0.135211         731.995         719.755 
       0.141259          694.65         689.169 
       0.147318         652.672         654.018 
       0.153489         615.166         612.417 
       0.159709         576.168         566.501 
       0.165845          522.95         520.985 
       0.171974         494.979          479.17 
       0.178125         461.421         443.635 
       0.184229         428.425         415.825 
        0.19034         413.183         394.884 
       0.196428         397.494         379.166 
       0.202534         376.554         366.242 
       0.208729         369.334         353.699 
       0.214876          357.25         340.096 
       0.220989         335.032          324.67 
       0.227147         325.021          307.46 
        0.23329         309.264         289.578 
       0.239377         295.969         272.378 
       0.245482         278.603         256.724 
       0.251667         264.295         243.184 
       0.257832         258.598         232.149 
       0.263955         244.932         223.285 
       0.270079         236.744         215.871 
        0.27624         227.698         209.108 
       0.282372         221.572         202.404 
        0.28843          219.14         195.387 
       0.294538         209.217         187.789 
       0.300721         199.891         179.727 
        0.30691         195.315         171.607 
       0.313033         186.349         163.919 
       0.319153         182.108         156.877 
       0.325316         174.762         150.617 
        0.33145         169.139         145.205 
       0.337538         163.969         140.523 
       0.343633         159.382           136.3 
       0.349808         154.646         132.267 
       0.355968         150.621         128.284 
       0.362074          147.68         124.263 
       0.368217         143.978         120.123 
       0.374374         140.427         115.928 
       0.380519          134.24         111.809 
       0.386598         130.914         107.903 
       0.392688         127.066         104.251 
        0.39888          124.57          100.85 
       0.405048         121.761         97.7621 
       0.411186         119.192         94.9512 
       0.417313         116.106          92.327 
       0.423458         113.189         89.8058 
       0.429607         111.121         87.3393 
       0.435692         109.244         84.9137 
       0.441815         105.622         82.4828 
       0.447964         102.503         80.0729 
       0.454126         100.577         77.7141 
       0.460267         99.7138         75.4518 
       0.466387         97.1442         73.3149 
        0.47254         95.9381         71.2923 
       0.478662         92.6746         69.3996 
       0.484765         91.1226         67.6212 
       0.490885         88.8311         65.9244 
       0.497035          88.048         64.2801 
       0.503198          85.916          62.675 
       0.509342         83.7464         61.1097 
       0.515458         82.7508         59.5814 
       0.521598         80.7374         58.0777 
       0.527764         79.7415          56.608 
       0.533884         78.7331            55.2 
           0.54          76.799         53.8495 
       0.546137         74.7784          52.551 
       0.552299         73.5936         51.3028 
       0.558452         72.1732         50.1102 
       0.564573         71.8195         48.9695 
       0.570708         69.6931         47.8632 
       0.576825         69.0006         46.7903 
       0.582926         68.0722         45.7463 
       0.589034          66.829         44.7271 
       0.595184         65.9469         43.7277 
       0.601379         64.2456         42.7487 
       0.607522         63.3024         41.8061 
       0.613639         62.6236          40.897 
       0.619772         61.4944         40.0164 
       0.625918         60.5596         39.1649 
       0.632068         59.9269         38.3419 
       0.638161         58.7691          37.552 
         0.6443          58.164         36.7789 
       0.650464         56.8684         36.0234 
       0.656582         56.5783         35.2931 
       0.662703         55.8801         34.5816 
       0.668861         54.5292         33.8847 
       0.675024         54.2029         33.2058 
       0.681124         53.5896          32.552 
       0.687237          52.502         31.9146 
       0.693381         51.8563         31.2916 
       0.699536         51.4646          30.685 
       0.705665         50.5889         30.0982 
       0.711789         49.8291         29.5283 
       0.717957          49.033           28.97 
        0.72409         48.5905         28.4296 
       0.730186         48.3228         27.9061 
       0.736317         47.4162         27.3926 
       0.742472         46.8642         26.8895 
       0.748622         46.1809          26.399 
        0.75476         45.3517         25.9217 
       0.760888         45.2615         25.4568 
       0.767043         44.4408         25.0017 
       0.773185         44.0268         24.5591 
       0.779291         43.4709         24.1301 
       0.785407         42.8337         23.7111 
       0.791564         42.7921         23.2998 
       0.797719         42.0068         22.8985 
       0.803834         41.7019         22.5093 
       0.809972         41.0893         22.1278 
       0.816124         40.6952         21.7542 
       0.822261         40.2201         21.3901 
       0.828378         39.9487         21.0354 
       0.834502         39.4879         20.6885 
       0.840667         39.1394         20.3471 
       0.846816         38.4268         20.0145 
       0.852925         38.2953         19.6915 
       0.859047         38.0198          19.375 
       0.865192         37.4352         19.0645 
       0.871341          36.996         18.7608 
       0.877463         36.6878         18.4651 
       0.883569         36.5212         18.1766 
       0.889708         36.0582         17.8928 
       0.895864         35.6316         17.6144 
       0.902008         35.2615         17.3426 
       0.908149         34.9437         17.0766 
       0.914301          34.721         16.8158 
       0.920448         34.3279         16.5607 
       0.926574         33.8996         16.3118 
       0.932687         33.6211         16.0686 
       0.938823         33.2239         15.8295 
       0.944975         32.9772         15.5947 
       0.951105         32.7036         15.3655 
       0.957225         32.4995         15.1414 
       0.963368         32.0859         14.9209 
       0.969511         31.8201         14.7049 
       0.975621         31.5624         14.4944 
       0.981748         31.2083         14.2875 
       0.987916         31.0287         14.0833 
        0.99406         30.6479         13.8839 
        1.00019         30.4787         13.6888 
        1.00632         30.2272         13.4976 
        1.01246         29.9772         13.3099 
        1.01859         29.6646          13.126 
        1.02471         29.4156         12.9459 
        1.03085         29.3022         12.7685 
        1.03698         29.0662         12.5948 
        1.04314         28.7762         12.4237 
        1.04929          28.463         12.2561 
        1.05541         28.3656         12.0924 
        1.06154         28.1725         11.9312 
        1.06769         27.7996         11.7728 
        1.07382         27.6169         11.6178 
        1.07993         27.3742         11.4659 
        1.08607          27.218         11.3161 
        1.09222         26.9874         11.1689 
        1.09836         26.7496         11.0244 
        1.10449         26.6217         10.8827 
        1.11063         26.4046         10.7434 
        1.11677          26.338         10.6065 
         1.1229         26.0585         10.4723 
        1.12903         25.8547         10.3403 
        1.13518         25.7023         10.2104 
        1.14131         25.5175         10.0829 
        1.14745         25.2145         9.95764 
        1.15359          25.008         9.83448 
        1.15973         24.8543         9.71336 
        1.16584          24.678         9.59483 
        1.17197         24.4255         9.47811 
        1.17811         24.3204         9.36298 
        1.18424         24.0972          9.2501 
        1.19038         24.0161         9.13876 
        1.19652         23.7887          9.0293 
        1.20267         23.6818         8.92164 
        1.20881         23.4723         8.81577 
        1.21495         23.3291         8.71178 
        1.22108         23.2775          8.6095 
         1.2272         23.0932          8.5091 
        1.23334         22.9346         8.41008 
        1.23949         22.7505         8.31241 
        1.24562         22.5248         8.21656 
        1.25174          22.458         8.12238 
        1.25789         22.3296         8.02939 
        1.26402         22.2089         7.93803 
        1.27014         22.0732         7.84832 
        1.27628         21.8415         7.75973 
        1.28244         21.8395         7.67234 
        1.28858         21.6014         7.58643 
        1.29471          21.416         7.50202 
        1.30084          21.293         7.41898 
        1.30697          21.215         7.33708 
        1.31312          21.038          7.2563 
        1.31925         20.9259           7.177 
        1.32537         20.7686         7.09897 
        1.33151         20.6434         7.02181 
        1.33765         20.5907         6.94586 
        1.34378           20.46         6.87118 
        1.34992         20.3302         6.79755 
        1.35606         20.1512         6.72484 
         1.3622         20.0121         6.65332 
        1.36833         19.9713         6.58302 
        1.37445         19.8473         6.51377 
        1.38059         19.7234         6.44531 
        1.38675         19.5887         6.37767 
        1.39288          19.452         6.31128 
        1.39901         19.3599         6.24586 
        1.40515         19.2606         6.18122 
         1.4113         19.1516         6.11753 
        1.41742         19.0636         6.05497 
        1.42355         18.9021         5.99318 
         1.4297         18.8056         5.93206 
        1.43585          18.714         5.87182 
        1.44198         18.6482         5.81265 
        1.44809         18.5241         5.75441 
        1.45423         18.4105         5.69675 
        1.46036         18.3086         5.63999 
        1.46649         18.1963         5.58398 
        1.47263         18.1255         5.52869 
        1.47877         18.0379         5.47417 
        1.48491         17.9276          5.4203 
        1.49104         17.8192         5.36727 
        1.49718         17.7417         5.31492 
        1.50333         17.6624         5.26318 
        1.50947         17.5722         5.21224 
         1.5156         17.4684         5.16204 
        1.52172          17.357         5.11252 
        1.52787         17.2936         5.06354 
          1.534         17.2172         5.01526 
        1.54013         17.1305         4.96767 
        1.54627         16.9958         4.92061 
        1.55241         16.8929         4.87415 
        1.55855         16.8373         4.82836 
        1.56467         16.7928         4.78329 
         1.5708         16.7083         4.73866 
        1.57695         16.5994         4.69454 
        1.58308         16.4818         4.65108 
        1.58922         16.4224         4.60814 
        1.59535         16.3364         4.56576 
         1.6015         16.2114         4.52386 
        1.60764         16.1681          4.4825 
        1.61376          16.122         4.44178 
        1.61989         15.9935         4.40153 
        1.62604         15.9556         4.36169 
        1.63218         15.8751         4.32237 
        1.63831          15.761         4.28362 
        1.64444         15.6849         4.24533 
        1.65059         15.6122         4.20743 
        1.65673         15.5705         4.17002 
        1.66285         15.4505         4.13318 
        1.66898         15.4325         4.09677 
        1.67512         15.3704         4.06073 
        1.68127         15.2444         4.02508 
         1.6874          15.215         3.98995 
        1.69353         15.0785         3.95525 
        1.69967         15.0318         3.92089 
        1.70581         14.9857         3.88695 
        1.71193         14.8859         3.85354 
        1.71806         14.8472         3.82045 
        1.72421         14.7696         3.78768 
        1.73035         14.6887         3.75534 
        1.73649         14.6521         3.72338 
        1.74262          14.522         3.69182 
        1.74876         14.5035         3.66061 
        1.75489          14.447         3.62982 
        1.76101         14.3483         3.59939 
        1.76715         14.3065         3.56927 
        1.77329         14.2339         3.53946 
        1.77943         14.1485         3.50998 
        1.78557         14.1263         3.48088 
        1.79171         14.0324          3.4521 
        1.79785         14.0013         3.42364 
        1.80399         13.9033         3.39551 
        1.81012         13.8741         3.36774 
        1.81625         13.7788         3.34028 
        1.82239         13.7251          3.3131 
        1.82853         13.6625         3.28623 
        1.83466          13.579         3.25968 
        1.84078         13.5604         3.23345 
        1.84692          13.533         3.20748 
        1.85306          13.457         3.18175 
         1.8592         13.3919         3.15635 
        1.86533         13.3036         3.13124 
        1.87147         13.2593         3.10637 
        1.87761         13.2016         3.08177 
        1.88375         13.1669         3.05746 
        1.88988         13.0663         3.03344 
        1.89601         13.0495         3.00966 
        1.90215         12.9655         2.98612 
        1.90829         12.9049         2.96284 
        1.91442         12.8435         2.93981 
        1.92056         12.8539         2.91704 
         1.9267         12.7718          2.8945 
        1.93284         12.7536         2.87217 
        1.93897         12.6562         2.85013 
        1.94509         12.6136         2.82836 
        1.95123         12.5632         2.80676 
        1.95737         12.5278         2.78538 
        1.96349         12.4315         2.76427 
        1.96964          12.402         2.74332 
        1.97578         12.3741         2.72258 
        1.98192         12.3094         2.70209 
        1.98805         12.2497         2.68181 
        1.99419         12.2056         2.66174 
        2.00033         12.1666         2.64187 
        2.00647         12.1044         2.62221 
         2.0126         12.0715         2.60277 
        2.01874         11.9906         2.58351 
        2.02488         11.9482         2.56442 
        2.03101         11.9209         2.54556 
        2.03714         11.8663         2.52691 
        2.04328         11.7938         2.50843 
        2.04941          11.745         2.49014 
        2.05554         11.7357         2.47205 
        2.06167           11.69         2.45412 
        2.06781         11.6303         2.43636 
        2.07396         11.6159         2.41875 
        2.08009         11.5103         2.40134 
        2.08622         11.5151         2.38413 
        2.09237         11.4715         2.36705 
        2.09851         11.3966         2.35014 
        2.10464         11.3837         2.33342 
        2.11077         11.3036         2.31688 
        2.11691         11.2964         2.30047 
        2.12305          11.225         2.28421 
        2.12918         11.1578         2.26815 
        2.13531         11.1445         2.25225 
        2.14145         11.0926         2.23646 
         2.1476         11.0544          2.2208 
        2.15372          11.023         2.20537 
        2.15985         10.9787         2.19007 
        2.16599         10.9369         2.17488 
        2.17213         10.9233         2.15984 
        2.17827         10.8549         2.14495 
         2.1844         10.8231         2.13022 
        2.19054         10.7934         2.11561 
        2.19666         10.7496         2.10117 
         2.2028         10.7089         2.08684 
        2.20893         10.6526         2.07265 
        2.21508         10.6302         2.05857 
        2.22122         10.5613         2.04461 
        2.22736         10.5407         2.03082 
        2.23349         10.5024         2.01715 
        2.23962         10.4771          2.0036 
        2.24577         10.4429         1.99017 
         2.2519         10.4073         1.97688 
        2.25802         10.3165         1.96373 
        2.26417         10.3326         1.95066 
        2.27031         10.2841          1.9377 
        2.27644         10.2559         1.92489 
        2.28257         10.1792          1.9122 
        2.28872         10.1706          1.8996 
        2.29486         10.1333         1.88712 
        2.30099         10.1092         1.87478 
        2.30712          10.035         1.86254 
        2.31326         9.99446         1.85039 
         2.3194         9.97822         1.83835 
        2.32553         9.93745         1.82644 
        2.33166         9.89788         1.81464 
         2.3378         9.87621         1.80293 
        2.34394          9.8395         1.79132 
        2.35007         9.80394         1.77983 
        2.35619         9.76548         1.76845 
        2.36233         9.71352         1.75715 
        2.36848          9.6931         1.74592 
        2.37462         9.66064         1.73481 
        2.38075         9.63565         1.72381 
        2.38689         9.60968          1.7129 
        2.39303         9.54595         1.70208 
        2.39916          9.5354         1.69137 
        2.40529         9.50287         1.68075 
        2.41143         9.45432         1.67021 
        2.41757         9.41775         1.65976 
         2.4237         9.40586         1.64942 
        2.42983         9.36693         1.63917 
        2.43598         9.33577         1.62897 
        2.44211         9.30426         1.61888 
        2.44823         9.26784          1.6089 
        2.45437         9.23171         1.59897 
        2.46052         9.22474         1.58913 
        2.46665         9.18421         1.57938 
        2.47279         9.14937         1.56971 
        2.47892         9.10183         1.56012 
        2.48507         9.08168          1.5506 
         2.4912          9.0537         1.54118 
