# k  (h/Mpc)    Pcb(k)  (Mpc/h)^3    Pcb_linear(k)  (Mpc/h)^3
     0.00783031         9663.51         9705.21 
       0.013688         12428.8         12713.8 
       0.019231         13321.8         13502.4 
      0.0249154         13023.9         13033.9 
      0.0312784         11617.8         11751.5 
      0.0375637         10112.4         10303.9 
      0.0433917          9040.2         9118.42 
      0.0492413         8056.61         8194.93 
      0.0555754          7406.1         7484.31 
      0.0619321         6710.63         6980.69 
       0.067871         6419.62         6593.38 
      0.0738098          6069.7          6201.4 
      0.0800417         5621.84         5736.25 
      0.0862327         5091.15         5219.43 
      0.0921407         4614.03         4710.42 
      0.0982031         4194.16         4220.45 
       0.104506         3730.28          3788.7 
       0.110769         3430.57         3458.92 
       0.116806         3267.64          3230.8 
       0.122832         3070.23         3069.78 
       0.129052         2936.38         2942.18 
       0.135211         2860.11         2822.94 
       0.141259            2683         2690.54 
       0.147318         2498.06         2534.07 
       0.153489         2356.34         2355.13 
       0.159709         2240.71         2169.62 
       0.165845         2035.61         1998.56 
       0.171974         1969.49         1852.69 
       0.178125         1886.96         1737.31 
       0.184229         1746.21         1651.92 
        0.19034         1718.37         1588.22 
       0.196428            1672          1536.3 
       0.202534          1576.4         1485.69 
       0.208729         1551.08         1428.36 
       0.214876         1490.13          1362.5 
       0.220989         1403.93         1289.72 
       0.227147         1367.18         1213.93 
        0.23329         1311.46         1141.67 
       0.239377         1291.88         1078.13 
       0.245482         1227.04         1024.96 
       0.251667         1181.04         981.894 
       0.257832         1166.93         947.573 
       0.263955         1111.83         918.535 
       0.270079         1081.54          890.96 
        0.27624         1037.89         861.841 
       0.282372         1022.02         830.123 
        0.28843         1011.01         796.282 
       0.294538         960.981         760.972 
       0.300721         936.754          726.02 
        0.30691         918.994         693.624 
       0.313033         880.853         665.365 
       0.319153         868.693         641.121 
       0.325316         856.351         620.298 
        0.33145         839.293         602.012 
       0.337538         810.631         585.074 
       0.343633         789.719         568.199 
       0.349808         772.746         550.545 
       0.355968         758.803         532.179 
       0.362074         735.045         513.567 
       0.368217         732.048         495.032 
       0.374374          719.81         477.266 
       0.380519          692.98         460.902 
       0.386598         686.983         446.239 
       0.392688         672.415          433.05 
        0.39888          655.18         420.879 
       0.405048         644.542         409.544 
       0.411186         642.073          398.66 
       0.417313         636.853         387.862 
       0.423458         617.381         376.931 
       0.429607         601.152         365.958 
       0.435692         593.663         355.193 
       0.441815         583.806         344.647 
       0.447964          573.67         334.578 
       0.454126         566.758         325.124 
       0.460267         558.001         316.345 
       0.466387         549.769           308.2 
        0.47254         540.996         300.494 
       0.478662          530.86         293.136 
       0.484765         525.858         285.982 
       0.490885         520.228         278.927 
       0.497035         510.416         271.918 
       0.503198         509.944         264.978 
       0.509342         498.469         258.215 
       0.515458         490.168         251.715 
       0.521598         484.058         245.467 
       0.527764         475.771         239.483 
       0.533884         473.626         233.834 
           0.54         467.554         228.464 
       0.546137         458.704         223.296 
       0.552299         457.926         218.271 
       0.558452         451.019          213.37 
       0.564573         446.214         208.597 
       0.570708         441.615         203.919 
       0.576825         433.373         199.363 
       0.582926         430.734         194.935 
       0.589034          424.72         190.633 
       0.595184         421.597          186.45 
       0.601379          414.85         182.401 
       0.607522         407.928         178.542 
       0.613639         406.308         174.834 
       0.619772         404.548          171.23 
       0.625918         397.839         167.715 
       0.632068         393.652         164.285 
       0.638161         390.169          160.97 
         0.6443         386.621         157.714 
       0.650464          381.63         154.531 
       0.656582          378.25         151.454 
       0.662703         375.478         148.459 
       0.668861         369.846         145.531 
       0.675024         367.567         142.686 
       0.681124          363.44         139.954 
       0.687237         360.701         137.299 
       0.693381          356.61         134.706 
       0.699536         353.638         132.178 
       0.705665         350.079         129.726 
       0.711789         348.428         127.333 
       0.717957         343.572         124.979 
        0.72409          340.22         122.694 
       0.730186         342.049         120.477 
       0.736317         335.649         118.303 
       0.742472         332.209         116.177 
       0.748622         328.764         114.109 
        0.75476         328.245         112.099 
       0.760888         324.625         110.144 
       0.767043         321.584          108.23 
       0.773185         319.938         106.367 
       0.779291         314.941         104.558 
       0.785407         314.052         102.788 
       0.791564         310.815         101.047 
       0.797719         306.184         99.3462 
       0.803834         308.635         97.6946 
       0.809972         304.203         96.0745 
       0.816124         300.552         94.4878 
       0.822261         297.741         92.9416 
       0.828378         297.539         91.4356 
       0.834502         292.908         89.9627 
       0.840667         292.936         88.5137 
       0.846816         288.067         87.1015 
       0.852925         287.765         85.7297 
       0.859047         284.866         84.3851 
       0.865192         284.495         83.0654 
       0.871341         280.487         81.7733 
       0.877463         277.996         80.5147 
       0.883569         277.112          79.286 
       0.889708         274.587         78.0767 
       0.895864         272.496         76.8897 
       0.902008          270.38           75.73 
       0.908149         268.172         74.5951 
       0.914301         266.721         73.4817 
       0.920448         265.363         72.3924 
       0.926574          263.23         71.3292 
       0.932687         261.545         70.2898 
       0.938823         259.276         69.2676 
       0.944975         258.086         68.2637 
       0.951105         255.522         67.2834 
       0.957225         253.472         66.3243 
       0.963368          253.01         65.3809 
       0.969511         248.726         64.4559 
       0.975621         247.953          63.554 
       0.981748          246.56         62.6673 
       0.987916         245.353          61.792 
        0.99406         243.151         60.9369 
        1.00019         241.564         60.0998 
        1.00632         240.836         59.2793 
        1.01246         238.903          58.473 
        1.01859         236.333         57.6832 
        1.02471         234.586         56.9091 
        1.03085         233.832         56.1467 
        1.03698         232.049         55.3999 
        1.04314         231.675         54.6637 
        1.04929         229.972         53.9428 
        1.05541         227.935         53.2378 
        1.06154          226.31         52.5438 
        1.06769         224.405         51.8612 
        1.07382         224.222         51.1932 
        1.07993         221.586         50.5385 
        1.08607         220.045         49.8926 
        1.09222         218.942         49.2575 
        1.09836          218.04         48.6343 
        1.10449         215.946         48.0227 
        1.11063         214.603          47.421 
        1.11677         213.566         46.8299 
         1.1229         211.949         46.2501 
        1.12903         211.079         45.6796 
        1.13518         209.438         45.1184 
        1.14131         208.523          44.567 
        1.14745         206.417         44.0252 
        1.15359         204.647         43.4923 
        1.15973         204.269         42.9682 
        1.16584          203.33         42.4551 
        1.17197         201.797         41.9497 
        1.17811         199.982         41.4511 
        1.18424         199.063         40.9621 
        1.19038         197.757         40.4796 
        1.19652         195.993         40.0052 
        1.20267         195.259         39.5384 
        1.20881         193.739         39.0792 
        1.21495         193.443         38.6281 
        1.22108         191.846         38.1842 
         1.2272         190.215         37.7484 
        1.23334         189.515         37.3184 
        1.23949         188.836         36.8942 
        1.24562         187.362         36.4778 
        1.25174         186.019         36.0685 
        1.25789         184.637         35.6642 
        1.26402         184.413         35.2669 
        1.27014         183.346         34.8767 
        1.27628         181.081         34.4913 
        1.28244         180.574          34.111 
        1.28858          179.42          33.737 
        1.29471         178.459         33.3695 
        1.30084         177.245         33.0078 
        1.30697         176.086          32.651 
        1.31312         175.007         32.2989 
        1.31925         173.767         31.9532 
        1.32537         173.351         31.6129 
        1.33151         172.168         31.2764 
        1.33765         170.586         30.9451 
        1.34378         170.315         30.6192 
        1.34992         169.328         30.2978 
        1.35606         168.115         29.9804 
         1.3622         167.493         29.6681 
        1.36833         165.653          29.361 
        1.37445         165.594         29.0585 
        1.38059         164.122         28.7593 
        1.38675         163.276         28.4637 
        1.39288         162.131         28.1734 
        1.39901         161.251         27.8874 
        1.40515         160.471         27.6046 
         1.4113         159.472          27.326 
        1.41742         158.138         27.0523 
        1.42355           158.2         26.7818 
         1.4297         156.628         26.5143 
        1.43585         155.782         26.2505 
        1.44198         154.335         25.9913 
        1.44809         153.525         25.7362 
        1.45423         153.248         25.4836 
        1.46036         151.991         25.2348 
        1.46649         151.008         24.9893 
        1.47263         150.521         24.7469 
        1.47877         149.253         24.5078 
        1.48491           148.4         24.2715 
        1.49104         146.802         24.0389 
        1.49718         146.842         23.8091 
        1.50333         146.066          23.582 
        1.50947         145.095         23.3584 
         1.5156         144.111          23.138 
        1.52172         143.421         22.9204 
        1.52787         142.616         22.7052 
          1.534         141.842         22.4931 
        1.54013         141.062         22.2839 
        1.54627         140.073          22.077 
        1.55241         139.494         21.8727 
        1.55855         138.736         21.6713 
        1.56467         137.635          21.473 
         1.5708         136.723         21.2766 
        1.57695         136.281         21.0824 
        1.58308         135.336         20.8911 
        1.58922          135.07         20.7021 
        1.59535         134.236         20.5155 
         1.6015         132.844         20.3309 
        1.60764         132.111         20.1487 
        1.61376         131.536         19.9692 
        1.61989         130.894         19.7918 
        1.62604          129.99         19.6162 
        1.63218         129.485         19.4428 
        1.63831          128.53          19.272 
        1.64444         127.688         19.1031 
        1.65059         126.937         18.9359 
        1.65673         126.589         18.7708 
        1.66285         126.016         18.6082 
        1.66898         124.858         18.4475 
        1.67512         124.434         18.2884 
        1.68127         123.608          18.131 
         1.6874         122.705         17.9759 
        1.69353         122.094         17.8226 
        1.69967         121.515         17.6708 
        1.70581         121.074         17.5208 
        1.71193         120.095         17.3732 
        1.71806         119.349         17.2269 
        1.72421         118.781         17.0821 
        1.73035         118.219         16.9391 
        1.73649         117.305         16.7977 
        1.74262         116.956         16.6581 
        1.74876         116.016           16.52 
        1.75489         115.591         16.3838 
        1.76101         114.873         16.2491 
        1.76715         113.934         16.1158 
        1.77329         113.613         15.9838 
        1.77943         112.658         15.8532 
        1.78557         112.327         15.7243 
        1.79171         111.795         15.5968 
        1.79785         110.771         15.4707 
        1.80399         110.516          15.346 
        1.81012         109.602         15.2229 
        1.81625          109.21         15.1012 
        1.82239         108.654         14.9806 
        1.82853         108.097         14.8615 
        1.83466         107.171         14.7437 
        1.84078         106.739         14.6274 
        1.84692         106.439         14.5121 
        1.85306         105.651         14.3979 
         1.8592         105.223         14.2852 
        1.86533          104.43         14.1737 
        1.87147         103.991         14.0633 
        1.87761         103.246          13.954 
        1.88375         102.598          13.846 
        1.88988          101.83         13.7393 
        1.89601          101.73         13.6337 
        1.90215         101.055          13.529 
        1.90829         100.313         13.4256 
        1.91442         99.8338         13.3232 
        1.92056         99.3859          13.222 
         1.9267         98.7326         13.1217 
        1.93284         98.2392         13.0224 
        1.93897         97.8428         12.9244 
        1.94509         97.0878         12.8275 
        1.95123         96.6261         12.7314 
        1.95737         96.2687         12.6363 
        1.96349         95.7031         12.5423 
        1.96964         95.1641         12.4491 
        1.97578         94.5041         12.3567 
        1.98192         93.9865         12.2655 
        1.98805         93.5163         12.1752 
        1.99419         93.0268         12.0858 
        2.00033         92.3096         11.9973 
        2.00647         92.0898         11.9097 
         2.0126         91.5516         11.8231 
        2.01874         91.3066         11.7372 
        2.02488         90.4673         11.6521 
        2.03101         90.1695         11.5681 
        2.03714         89.6074         11.4849 
        2.04328         89.1319         11.4025 
        2.04941         88.6681         11.3209 
        2.05554         88.2174         11.2402 
        2.06167         87.4579         11.1602 
        2.06781          87.016         11.0809 
        2.07396         86.7705         11.0023 
        2.08009         86.1423         10.9246 
        2.08622         85.8636         10.8478 
        2.09237         85.4443         10.7715 
        2.09851          84.707          10.696 
        2.10464         84.4899         10.6213 
        2.11077         83.9805         10.5475 
        2.11691         83.6961         10.4741 
        2.12305         83.1089         10.4015 
        2.12918         82.6451         10.3297 
        2.13531         82.2414         10.2586 
        2.14145         81.5954          10.188 
         2.1476         81.3478          10.118 
        2.15372         80.8969          10.049 
        2.15985         80.3993         9.98063 
        2.16599         79.9869         9.91265 
        2.17213         79.6915         9.84539 
        2.17827         79.0518         9.77877 
         2.1844         78.6631         9.71283 
        2.19054         78.4303         9.64747 
        2.19666         77.9109         9.58281 
         2.2028          77.449         9.51869 
        2.20893         77.0297         9.45513 
        2.21508         76.6142         9.39208 
        2.22122         76.1438         9.32958 
        2.22736          75.887         9.26778 
        2.23349         75.4278         9.20656 
        2.23962         75.1536         9.14587 
        2.24577          74.619         9.08567 
         2.2519         74.2432          9.0261 
        2.25802         73.7761         8.96716 
        2.26417         73.3672         8.90858 
        2.27031         73.0276         8.85048 
        2.27644         72.7069         8.79306 
        2.28257         72.3212         8.73616 
        2.28872         71.9631         8.67966 
        2.29486          71.632         8.62367 
        2.30099          71.078         8.56829 
        2.30712         70.9292         8.51338 
        2.31326         70.5613         8.45885 
         2.3194         69.9998         8.40484 
        2.32553         69.7108         8.35138 
        2.33166         69.2564         8.29842 
         2.3378         69.0419         8.24585 
        2.34394         68.6933         8.19372 
        2.35007         68.2829         8.14211 
        2.35619          67.907         8.09101 
        2.36233         67.6238         8.04023 
        2.36848         67.1913         7.98978 
        2.37462         66.8252         7.93988 
        2.38075          66.536         7.89045 
        2.38689         66.1975          7.8414 
        2.39303         65.8131         7.79277 
        2.39916         65.5473         7.74462 
        2.40529         65.1743         7.69687 
        2.41143         64.8479         7.64949 
        2.41757         64.4029          7.6025 
         2.4237         64.2384         7.55598 
        2.42983         63.7954         7.50986 
        2.43598         63.5552         7.46401 
        2.44211         63.0507         7.41861 
        2.44823         62.9068          7.3737 
        2.45437         62.5534         7.32903 
        2.46052         62.1206          7.2847 
        2.46665         61.7714         7.24082 
        2.47279         61.5099         7.19731 
        2.47892         61.2393         7.15414 
        2.48507         60.8212         7.11127 
         2.4912          60.606         7.06885 
