# k  (h/Mpc)    P(k)  (Mpc/h)^3    P_linear(k)  (Mpc/h)^3
     0.00783031         15846.6         16136.4 
       0.013688         20178.4         20033.2 
       0.019231         20498.3         20509.8 
      0.0249154         18786.6         19252.8 
      0.0312784         16726.7         16981.7 
      0.0375637         14624.8         14689.4 
      0.0433917         12603.7         12906.7 
      0.0492413         11404.7         11547.8 
      0.0555754         10098.6         10492.4 
      0.0619321         9663.94         9706.99 
       0.067871         8745.31         9067.38 
      0.0738098          8114.4         8414.38 
      0.0800417         7303.55         7671.73 
      0.0862327         6664.02         6897.55 
      0.0921407         6097.52         6180.91 
      0.0982031         5440.25         5527.27 
       0.104506         5078.12         4975.95 
       0.110769          4667.6         4564.96 
       0.116806         4372.23         4276.79 
       0.122832         4155.31         4057.93 
       0.129052         3862.45         3861.81 
       0.135211         3676.32         3662.89 
       0.141259         3531.01         3445.66 
       0.147318         3336.07         3207.07 
       0.153489         3061.15         2956.88 
       0.159709         2893.13          2717.7 
       0.165845         2778.69         2511.37 
       0.171974         2615.96          2343.2 
       0.178125         2484.32         2211.69 
       0.184229         2372.64         2110.05 
        0.19034         2250.48         2025.29 
       0.196428         2207.98         1945.98 
       0.202534         2125.52         1862.95 
       0.208729          2034.9         1771.42 
       0.214876         1955.76          1674.7 
       0.220989         1889.58         1577.52 
       0.227147         1809.96         1484.61 
        0.23329         1738.34         1401.68 
       0.239377         1712.04          1331.4 
       0.245482         1607.19         1272.46 
       0.251667         1598.95         1222.09 
       0.257832         1536.37         1177.59 
       0.263955         1486.87         1135.53 
       0.270079         1437.99         1093.09 
        0.27624         1422.14         1048.92 
       0.282372         1363.32         1003.91 
        0.28843         1358.11         959.687 
       0.294538         1292.06         917.016 
       0.300721          1284.2         877.168 
        0.30691         1235.57         841.381 
       0.313033         1211.13         809.973 
       0.319153         1193.24         781.851 
       0.325316         1153.77         755.821 
        0.33145         1129.31         731.148 
       0.337538          1109.4         707.102 
       0.343633         1086.19         683.113 
       0.349808         1050.99         658.915 
       0.355968         1043.57          635.22 
       0.362074         1034.17         612.597 
       0.368217         1001.58         591.124 
       0.374374         965.622         571.091 
       0.380519         967.698         552.612 
       0.386598         940.745         535.644 
       0.392688         937.306         519.659 
        0.39888         910.657         504.154 
       0.405048         900.318         489.193 
       0.411186         887.694         474.632 
       0.417313         869.102         460.413 
       0.423458         854.666         446.508 
       0.429607         843.944         433.064 
       0.435692         827.144         420.339 
       0.441815         820.525         408.158 
       0.447964         803.529         396.567 
       0.454126         797.068         385.569 
       0.460267         777.756         375.126 
       0.466387         768.248         365.139 
        0.47254         764.138         355.447 
       0.478662         756.136         346.096 
       0.484765          735.11         337.027 
       0.490885         730.879         328.195 
       0.497035         715.442         319.607 
       0.503198          711.39          311.31 
       0.509342         703.703         303.352 
       0.515458         700.129         295.748 
       0.521598         683.144         288.427 
       0.527764         670.667          281.36 
       0.533884         669.209         274.595 
           0.54         662.615         268.057 
       0.546137         656.722         261.702 
       0.552299         648.101         255.513 
       0.558452         643.226         249.516 
       0.564573         635.022         243.727 
       0.570708         628.294         238.106 
       0.576825          611.45         232.685 
       0.582926         614.504          227.46 
       0.589034         608.415         222.402 
       0.595184         602.836         217.474 
       0.601379         594.538         212.668 
       0.607522         586.225         208.049 
       0.613639         586.566         203.587 
       0.619772          574.05         199.243 
       0.625918         570.618         195.015 
       0.632068         563.432         190.903 
       0.638161         561.362         186.943 
         0.6443         551.513         183.069 
       0.650464         549.796         179.292 
       0.656582         545.436         175.654 
       0.662703         543.257          172.12 
       0.668861         534.132         168.666 
       0.675024         529.878         165.305 
       0.681124         526.424          162.07 
       0.687237         522.241         158.915 
       0.693381         515.488         155.829 
       0.699536         507.265         152.819 
       0.705665         507.126         149.903 
       0.711789         504.097         147.066 
       0.717957         499.559         144.284 
        0.72409         496.943          141.59 
       0.730186          489.76         138.982 
       0.736317         486.828         136.427 
       0.742472         484.294         133.927 
       0.748622         478.976         131.493 
        0.75476         472.089         129.125 
       0.760888         468.027         126.819 
       0.767043         468.162         124.561 
       0.773185         463.521         122.364 
       0.779291          458.66         120.232 
       0.785407         455.353         118.149 
       0.791564         450.437         116.102 
       0.797719         448.471         114.105 
       0.803834         443.723         112.169 
       0.809972         442.432          110.27 
       0.816124          441.24         108.413 
       0.822261         434.898         106.603 
       0.828378         432.683          104.84 
       0.834502         428.016         103.116 
       0.840667         424.863          101.42 
       0.846816         422.972          99.767 
       0.852925         419.764         98.1616 
       0.859047           418.2         96.5884 
       0.865192         412.988         95.0448 
       0.871341         409.619         93.5341 
       0.877463         409.338         92.0634 
       0.883569         405.305         90.6282 
       0.889708         402.733         89.2165 
       0.895864         400.986         87.8315 
       0.902008         397.518         86.4789 
       0.908149         392.969         85.1559 
       0.914301         390.781         83.8586 
       0.920448         388.803         82.5897 
       0.926574         382.914         81.3516 
       0.932687         382.851         80.1418 
       0.938823         379.008         78.9523 
       0.944975         379.182         77.7845 
       0.951105         374.617         76.6446 
       0.957225         372.223         75.5296 
       0.963368          368.19         74.4332 
       0.969511         367.122         73.3587 
       0.975621         364.863         72.3113 
       0.981748         362.893         71.2819 
       0.987916         360.804         70.2661 
        0.99406         355.008         69.2742 
        1.00019         353.883         68.3034 
        1.00632         352.377         67.3523 
        1.01246         349.427          66.418 
        1.01859         349.747         65.5031 
        1.02471         344.578         64.6067 
        1.03085         343.127         63.7241 
        1.03698         341.776         62.8599 
        1.04314         338.745         62.0083 
        1.04929         335.411         61.1745 
        1.05541         336.334         60.3595 
        1.06154         330.691         59.5574 
        1.06769         329.656         58.7687 
        1.07382         327.384         57.9971 
        1.07993          325.55          57.241 
        1.08607         324.568         56.4955 
        1.09222         321.244         55.7625 
        1.09836          319.25         55.0435 
        1.10449         316.621          54.338 
        1.11063         313.192         53.6442 
        1.11677         313.723         52.9628 
         1.1229          311.34         52.2945 
        1.12903         309.194         51.6372 
        1.13518         306.219         50.9907 
        1.14131         304.864         50.3557 
        1.14745         303.222         49.7319 
        1.15359         301.231         49.1186 
        1.15973         299.268         48.5154 
        1.16584         297.091          47.925 
        1.17197         296.913         47.3437 
        1.17811         293.399         46.7704 
        1.18424         291.258         46.2082 
        1.19038         290.346         45.6537 
        1.19652         288.069         45.1085 
        1.20267         287.147         44.5723 
        1.20881         285.185          44.045 
        1.21495         282.955          43.527 
        1.22108          281.42         43.0175 
         1.2272         279.672         42.5175 
        1.23334         278.131         42.0242 
        1.23949         275.945         41.5377 
        1.24562         275.035         41.0603 
        1.25174         273.062         40.5911 
        1.25789         270.739         40.1278 
        1.26402         268.838         39.6727 
        1.27014         267.327         39.2258 
        1.27628         265.835         38.7844 
        1.28244         265.531          38.349 
        1.28858         262.823          37.921 
        1.29471         261.267         37.5004 
        1.30084         259.504         37.0867 
        1.30697         258.209         36.6785 
        1.31312         255.559          36.276 
        1.31925         254.695         35.8808 
        1.32537         253.904         35.4919 
        1.33151         251.428         35.1074 
        1.33765         249.562         34.7288 
        1.34378         248.869         34.3566 
        1.34992         247.429         33.9896 
        1.35606         246.677         33.6271 
         1.3622         244.377         33.2707 
        1.36833          242.53         32.9203 
        1.37445         241.437         32.5751 
        1.38059         239.406         32.2338 
        1.38675         238.495         31.8966 
        1.39288         237.141         31.5656 
        1.39901         236.174         31.2395 
        1.40515         234.466         30.9172 
         1.4113         233.106         30.5996 
        1.41742         231.295         30.2877 
        1.42355         230.319         29.9796 
         1.4297         228.395         29.6749 
        1.43585          227.28         29.3745 
        1.44198         226.312         29.0795 
        1.44809         224.768          28.789 
        1.45423         223.513         28.5015 
        1.46036         222.268         28.2184 
        1.46649         220.621         27.9391 
        1.47263         219.447         27.6634 
        1.47877         217.979         27.3915 
        1.48491         216.148         27.1229 
        1.49104         215.541         26.8584 
        1.49718         213.796         26.5973 
        1.50333         213.051         26.3392 
        1.50947         211.695         26.0852 
         1.5156         209.841         25.8348 
        1.52172         209.139         25.5878 
        1.52787         207.415         25.3435 
          1.534         206.929         25.1027 
        1.54013         205.098         24.8653 
        1.54627         204.148         24.6305 
        1.55241         202.913         24.3987 
        1.55855         201.418         24.1703 
        1.56467         200.445         23.9454 
         1.5708         199.727         23.7228 
        1.57695         198.369         23.5026 
        1.58308         197.158         23.2858 
        1.58922         195.389         23.0716 
        1.59535         194.082         22.8601 
         1.6015          193.53         22.6511 
        1.60764         192.305         22.4447 
        1.61376         191.306         22.2415 
        1.61989         190.284         22.0406 
        1.62604          188.98         21.8418 
        1.63218         188.022         21.6455 
        1.63831         186.602         21.4522 
        1.64444         185.871         21.2611 
        1.65059         184.763         21.0719 
        1.65673         183.469         20.8852 
        1.66285          182.25         20.7012 
        1.66898         181.291         20.5195 
        1.67512         180.844         20.3396 
        1.68127         178.866         20.1616 
         1.6874         178.184         19.9863 
        1.69353         177.058         19.8131 
        1.69967          175.75         19.6415 
        1.70581         175.109         19.4721 
        1.71193          173.78         19.3053 
        1.71806         173.219         19.1401 
        1.72421         171.913         18.9765 
        1.73035         171.199          18.815 
        1.73649         170.236         18.6555 
        1.74262         169.138         18.4979 
        1.74876         168.018         18.3421 
        1.75489         167.205         18.1883 
        1.76101         165.769         18.0364 
        1.76715         165.426          17.886 
        1.77329         164.311         17.7372 
        1.77943         163.583         17.5899 
        1.78557         162.564         17.4446 
        1.79171         161.759         17.3009 
        1.79785         160.529         17.1588 
        1.80399         159.677         17.0183 
        1.81012         158.732         16.8796 
        1.81625         158.172         16.7425 
        1.82239          156.93         16.6067 
        1.82853         156.432         16.4725 
        1.83466          155.22         16.3399 
        1.84078         154.591         16.2089 
        1.84692         153.146         16.0792 
        1.85306         152.899         15.9507 
         1.8592         151.844         15.8238 
        1.86533         151.118         15.6983 
        1.87147         149.947         15.5741 
        1.87761         149.127         15.4512 
        1.88375         148.104         15.3297 
        1.88988         147.061         15.2097 
        1.89601         146.835         15.0909 
        1.90215         145.685         14.9733 
        1.90829         144.902          14.857 
        1.91442         144.199         14.7419 
        1.92056         143.366         14.6281 
         1.9267         142.539         14.5155 
        1.93284         141.528         14.4039 
        1.93897         141.044         14.2937 
        1.94509         140.247          14.185 
        1.95123         139.579         14.0771 
        1.95737         138.759         13.9702 
        1.96349          137.95         13.8647 
        1.96964         136.942           13.76 
        1.97578          136.19         13.6563 
        1.98192          135.64          13.554 
        1.98805         134.786         13.4526 
        1.99419         134.027         13.3523 
        2.00033         133.297          13.253 
        2.00647         132.634         13.1547 
         2.0126         131.554         13.0576 
        2.01874         131.037         12.9613 
        2.02488         130.644         12.8659 
        2.03101         129.296         12.7716 
        2.03714         128.969         12.6783 
        2.04328         127.985         12.5859 
        2.04941         127.571         12.4945 
        2.05554         126.585         12.4041 
        2.06167         126.188         12.3144 
        2.06781         125.325         12.2256 
        2.07396         124.634         12.1376 
        2.08009         124.075         12.0506 
        2.08622          123.11         11.9645 
        2.09237         122.623         11.8791 
        2.09851          121.95         11.7946 
        2.10464         121.557          11.711 
        2.11077         120.751         11.6283 
        2.11691         120.161         11.5462 
        2.12305         119.313         11.4649 
        2.12918         118.562         11.3846 
        2.13531         118.062         11.3051 
        2.14145         117.261         11.2261 
         2.1476         116.361         11.1478 
        2.15372          116.29         11.0707 
        2.15985         115.672         10.9942 
        2.16599         114.737         10.9182 
        2.17213         114.186          10.843 
        2.17827         113.589         10.7685 
         2.1844         112.809         10.6948 
        2.19054         112.444         10.6217 
        2.19666         111.715         10.5495 
         2.2028         111.052         10.4778 
        2.20893         110.701         10.4068 
        2.21508         109.911         10.3364 
        2.22122         109.343         10.2666 
        2.22736         108.814         10.1975 
        2.23349          108.27         10.1292 
        2.23962         107.621         10.0614 
        2.24577         107.042         9.99419 
         2.2519         106.678         9.92768 
        2.25802         105.717         9.86189 
        2.26417         105.401         9.79651 
        2.27031         104.648         9.73166 
        2.27644         104.223          9.6676 
        2.28257         103.492         9.60411 
        2.28872         103.153         9.54107 
        2.29486         102.454         9.47861 
        2.30099         101.946         9.41684 
        2.30712         101.389          9.3556 
        2.31326         100.797         9.29479 
         2.3194         100.304         9.23456 
        2.32553         99.7884         9.17497 
        2.33166         99.2589         9.11592 
         2.3378          98.906         9.05732 
        2.34394         98.3118         8.99921 
        2.35007         97.6387          8.9417 
        2.35619         97.2877         8.88476 
        2.36233          96.727         8.82818 
        2.36848         96.1628         8.77197 
        2.37462         95.8215         8.71638 
        2.38075         95.0942         8.66132 
        2.38689         94.6808         8.60669 
        2.39303         94.0512         8.55254 
        2.39916         93.7898         8.49891 
        2.40529         93.4543         8.44575 
        2.41143         92.7207         8.39301 
        2.41757         92.2362         8.34069 
         2.4237         91.7312         8.28891 
        2.42983         91.1632         8.23758 
        2.43598         90.6815         8.18655 
        2.44211         90.5159         8.13604 
        2.44823         89.9542         8.08607 
        2.45437         89.2467         8.03638 
        2.46052         88.7282         7.98706 
        2.46665         88.5115         7.93825 
        2.47279         87.9657         7.88986 
        2.47892         87.5242         7.84185 
        2.48507         87.0876         7.79419 
         2.4912         86.7172         7.74701 
