# k  (h/Mpc)    P(k)  (Mpc/h)^3    P_linear(k)  (Mpc/h)^3
     0.00783031         17871.4         18225.4 
       0.013688         22778.6         22621.5 
       0.019231         23117.1         23157.8 
      0.0249154         21149.9         21737.6 
      0.0312784         18834.7         19172.8 
      0.0375637         16478.2         16584.5 
      0.0433917           14181         14571.7 
      0.0492413         12841.4         13037.3 
      0.0555754         11348.2         11845.8 
      0.0619321         10879.5         10958.9 
       0.067871         9825.32         10236.8 
      0.0738098         9118.77         9499.53 
      0.0800417         8200.79         8661.07 
      0.0862327         7490.09         7787.04 
      0.0921407         6866.07         6977.96 
      0.0982031         6130.66         6240.02 
       0.104506         5733.63          5617.6 
       0.110769         5273.03         5153.61 
       0.116806         4946.95         4828.27 
       0.122832         4697.58         4581.19 
       0.129052         4362.78         4359.78 
       0.135211          4151.7          4135.2 
       0.141259         3993.52         3889.96 
       0.147318         3777.84         3620.59 
       0.153489         3468.05         3338.14 
       0.159709         3281.97         3068.12 
       0.165845         3161.81         2835.18 
       0.171974         2980.75         2645.33 
       0.178125         2832.34         2496.87 
       0.184229         2700.81         2382.12 
        0.19034         2572.96         2286.42 
       0.196428         2520.97         2196.89 
       0.202534         2422.94         2103.16 
       0.208729         2324.16         1999.82 
       0.214876         2241.41         1890.63 
       0.220989         2165.39         1780.92 
       0.227147         2079.58         1676.03 
        0.23329         1999.09          1582.4 
       0.239377         1972.36         1503.06 
       0.245482         1855.54         1436.52 
       0.251667         1846.55         1379.66 
       0.257832         1774.55         1329.42 
       0.263955         1716.86         1281.94 
       0.270079         1662.12         1234.03 
        0.27624         1642.24         1184.16 
       0.282372         1576.22         1133.35 
        0.28843         1575.72         1083.42 
       0.294538         1501.66         1035.25 
       0.300721         1490.22         990.266 
        0.30691         1438.44         949.865 
       0.313033         1408.85         914.407 
       0.319153         1392.95         882.658 
       0.325316         1346.22         853.272 
        0.33145         1319.38         825.418 
       0.337538         1294.29         798.272 
       0.343633         1271.15          771.19 
       0.349808         1231.92         743.871 
       0.355968         1221.96         717.122 
       0.362074         1213.06         691.581 
       0.368217         1173.76          667.34 
       0.374374         1135.59         644.724 
       0.380519         1138.99         623.863 
       0.386598         1106.14         604.706 
       0.392688            1101         586.661 
        0.39888         1071.36         569.157 
       0.405048         1061.98         552.267 
       0.411186         1046.51         535.827 
       0.417313         1024.48         519.776 
       0.423458         1007.83         504.077 
       0.429607         996.663           488.9 
       0.435692          978.43         474.534 
       0.441815         970.112         460.783 
       0.447964         950.739         447.698 
       0.454126         945.749         435.282 
       0.460267         922.284         423.492 
       0.466387         909.314         412.217 
        0.47254         909.916         401.275 
       0.478662         896.676          390.72 
       0.484765         874.282         380.481 
       0.490885         869.675          370.51 
       0.497035         850.806         360.814 
       0.503198         846.933         351.448 
       0.509342         836.624         342.464 
       0.515458         833.406          333.88 
       0.521598          814.22         325.615 
       0.527764         799.897         317.636 
       0.533884          797.94             310 
           0.54         792.415         302.619 
       0.546137         781.974         295.443 
       0.552299         774.414         288.457 
       0.558452          766.86         281.687 
       0.564573         758.044         275.151 
       0.570708         750.383         268.805 
       0.576825         731.652         262.685 
       0.582926         735.669         256.787 
       0.589034         727.522         251.077 
       0.595184         721.086         245.513 
       0.601379         711.974         240.088 
       0.607522         701.625         234.873 
       0.613639         702.008         229.836 
       0.619772         689.075         224.932 
       0.625918         683.302         220.159 
       0.632068         675.821         215.516 
       0.638161          672.79         211.047 
         0.6443         661.972         206.672 
       0.650464         660.831         202.409 
       0.656582          654.38         198.302 
       0.662703         652.131         194.312 
       0.668861         641.566         190.412 
       0.675024         635.802         186.618 
       0.681124         632.468         182.966 
       0.687237         627.975         179.404 
       0.693381         620.239          175.92 
       0.699536         609.191         172.523 
       0.705665         610.014          169.23 
       0.711789         606.073         166.027 
       0.717957         600.774         162.886 
        0.72409         597.656         159.846 
       0.730186         589.079         156.902 
       0.736317         586.466         154.017 
       0.742472         582.396         151.195 
       0.748622         576.607         148.447 
        0.75476         567.746         145.773 
       0.760888         564.223         143.171 
       0.767043         562.471         140.622 
       0.773185         557.907          138.14 
       0.779291         553.033         135.734 
       0.785407         547.627         133.382 
       0.791564         542.852         131.071 
       0.797719         541.225         128.817 
       0.803834         534.812         126.631 
       0.809972         532.558         124.488 
       0.816124         531.279          122.39 
       0.822261          523.35         120.347 
       0.828378         520.884         118.357 
       0.834502         515.504         116.411 
       0.840667         511.575         114.496 
       0.846816         508.866          112.63 
       0.852925         505.459         110.818 
       0.859047         504.096         109.042 
       0.865192         497.178         107.299 
       0.871341         493.292         105.594 
       0.877463         493.071         103.933 
       0.883569         487.616         102.313 
       0.889708          485.61         100.719 
       0.895864         484.112         99.1557 
       0.902008         479.839         97.6288 
       0.908149         472.793         96.1352 
       0.914301          471.64         94.6706 
       0.920448          469.52         93.2381 
       0.926574         461.865         91.8405 
       0.932687         460.737         90.4746 
       0.938823         456.791         89.1318 
       0.944975          456.51         87.8134 
       0.951105         451.806         86.5265 
       0.957225         448.427         85.2678 
       0.963368         443.926           84.03 
       0.969511         442.888          82.817 
       0.975621         440.322         81.6346 
       0.981748         436.724         80.4724 
       0.987916         434.356         79.3257 
        0.99406         428.095         78.2058 
        1.00019         426.554         77.1099 
        1.00632         424.637         76.0362 
        1.01246         421.315         74.9815 
        1.01859         420.518         73.9486 
        1.02471         415.521         72.9366 
        1.03085         413.869         71.9402 
        1.03698         411.611         70.9646 
        1.04314         408.341         70.0031 
        1.04929         404.013         69.0618 
        1.05541         405.114         68.1417 
        1.06154         398.983         67.2362 
        1.06769          397.11         66.3459 
        1.07382           394.1         65.4747 
        1.07993         392.153         64.6212 
        1.08607         391.137         63.7796 
        1.09222         386.503         62.9521 
        1.09836         383.974         62.1403 
        1.10449         381.899         61.3439 
        1.11063         376.526         60.5607 
        1.11677           378.2         59.7914 
         1.1229         375.129          59.037 
        1.12903         372.505         58.2949 
        1.13518         368.372         57.5651 
        1.14131         367.163         56.8482 
        1.14745         364.198         56.1439 
        1.15359         362.614         55.4515 
        1.15973         360.473         54.7705 
        1.16584         357.588         54.1041 
        1.17197         356.573         53.4479 
        1.17811         353.258         52.8005 
        1.18424         350.103         52.1659 
        1.19038         348.792         51.5399 
        1.19652         346.926         50.9244 
        1.20267         345.103         50.3191 
        1.20881         342.778         49.7238 
        1.21495         340.245          49.139 
        1.22108         338.268         48.5639 
         1.2272         336.081         47.9993 
        1.23334         334.285         47.4425 
        1.23949         331.101         46.8932 
        1.24562         329.868         46.3542 
        1.25174         328.201         45.8246 
        1.25789         324.515         45.3016 
        1.26402         322.866         44.7878 
        1.27014         320.863         44.2832 
        1.27628         318.374          43.785 
        1.28244         318.878         43.2935 
        1.28858         315.346         42.8102 
        1.29471         314.292         42.3354 
        1.30084         311.517         41.8683 
        1.30697         310.482         41.4076 
        1.31312         306.931         40.9531 
        1.31925         305.574          40.507 
        1.32537         304.752         40.0679 
        1.33151         301.714         39.6338 
        1.33765         299.424         39.2064 
        1.34378         298.695         38.7862 
        1.34992         296.813         38.3719 
        1.35606         294.939         37.9628 
         1.3622          292.78         37.5603 
        1.36833         291.478         37.1647 
        1.37445         289.294          36.775 
        1.38059          287.23         36.3898 
        1.38675         285.514         36.0091 
        1.39288         284.144         35.6354 
        1.39901         282.552         35.2672 
        1.40515         281.147         34.9034 
         1.4113         279.097         34.5449 
        1.41742         276.968         34.1928 
        1.42355         275.592          33.845 
         1.4297         273.822         33.5009 
        1.43585         272.462         33.1618 
        1.44198         271.191         32.8287 
        1.44809         268.286         32.5008 
        1.45423         266.977         32.1762 
        1.46036         265.782         31.8567 
        1.46649         264.165         31.5414 
        1.47263         262.721         31.2301 
        1.47877         260.604         30.9231 
        1.48491         258.297         30.6199 
        1.49104         257.524         30.3213 
        1.49718         255.765         30.0265 
        1.50333          254.72         29.7352 
        1.50947          253.12         29.4484 
         1.5156         250.961         29.1657 
        1.52172         250.246         28.8868 
        1.52787         248.189         28.6111 
          1.534         247.438         28.3392 
        1.54013         244.943         28.0712 
        1.54627         244.088         27.8061 
        1.55241         242.611         27.5445 
        1.55855         240.305         27.2866 
        1.56467          240.12         27.0327 
         1.5708         238.467         26.7814 
        1.57695         236.603         26.5329 
        1.58308         235.444         26.2881 
        1.58922         232.914         26.0463 
        1.59535         232.162         25.8075 
         1.6015         230.901         25.5715 
        1.60764         229.591         25.3385 
        1.61376         228.482         25.1091 
        1.61989         226.985         24.8824 
        1.62604         225.245         24.6579 
        1.63218         224.397         24.4363 
        1.63831         222.793          24.218 
        1.64444         221.546         24.0023 
        1.65059         220.672         23.7887 
        1.65673         218.966         23.5779 
        1.66285         217.368         23.3703 
        1.66898         216.451         23.1651 
        1.67512         215.376          22.962 
        1.68127         213.196         22.7611 
         1.6874         212.284         22.5631 
        1.69353         211.232         22.3676 
        1.69967         209.772         22.1739 
        1.70581         208.802         21.9826 
        1.71193           207.2         21.7943 
        1.71806         206.453         21.6079 
        1.72421         204.776         21.4232 
        1.73035         204.256         21.2409 
        1.73649          202.93         21.0608 
        1.74262         201.343         20.8829 
        1.74876         200.018         20.7069 
        1.75489         199.325         20.5334 
        1.76101         197.675         20.3619 
        1.76715         196.805         20.1921 
        1.77329         195.664          20.024 
        1.77943         194.653         19.8578 
        1.78557         193.063         19.6938 
        1.79171         192.553         19.5315 
        1.79785         190.905         19.3711 
        1.80399         190.005         19.2125 
        1.81012         188.895         19.0559 
        1.81625         187.839         18.9011 
        1.82239         186.612         18.7478 
        1.82853         185.887         18.5963 
        1.83466         184.808         18.4466 
        1.84078         183.722         18.2988 
        1.84692         182.495         18.1523 
        1.85306         181.469         18.0072 
         1.8592         180.529          17.864 
        1.86533         179.786         17.7224 
        1.87147         178.596         17.5821 
        1.87761         177.396         17.4433 
        1.88375         176.431         17.3062 
        1.88988          174.69         17.1707 
        1.89601         174.678         17.0366 
        1.90215         173.508         16.9038 
        1.90829         172.139         16.7725 
        1.91442         171.541         16.6426 
        1.92056         170.445         16.5142 
         1.9267         169.014          16.387 
        1.93284         168.321          16.261 
        1.93897         167.635         16.1367 
        1.94509         166.617         16.0139 
        1.95123         165.512          15.892 
        1.95737         164.513         15.7714 
        1.96349         163.709         15.6523 
        1.96964         162.564         15.5341 
        1.97578         161.794         15.4171 
        1.98192         160.697         15.3015 
        1.98805         159.781         15.1871 
        1.99419         159.001         15.0738 
        2.00033         158.109         14.9617 
        2.00647         157.243         14.8507 
         2.0126         156.088         14.7411 
        2.01874         155.761         14.6324 
        2.02488         154.844         14.5247 
        2.03101         153.712         14.4182 
        2.03714         152.931          14.313 
        2.04328         151.789         14.2087 
        2.04941         151.441         14.1055 
        2.05554          149.89         14.0034 
        2.06167         149.529         13.9022 
        2.06781          148.51         13.8019 
        2.07396           147.8         13.7025 
        2.08009         146.799         13.6043 
        2.08622         145.828         13.5071 
        2.09237          145.16         13.4107 
        2.09851         144.396         13.3153 
        2.10464         143.875         13.2209 
        2.11077         142.941         13.1275 
        2.11691         142.095         13.0349 
        2.12305         141.316         12.9431 
        2.12918         140.528         12.8525 
        2.13531         139.896         12.7627 
        2.14145         138.705         12.6735 
         2.1476          137.89         12.5851 
        2.15372         137.649          12.498 
        2.15985         136.794         12.4117 
        2.16599         135.935         12.3259 
        2.17213         135.257          12.241 
        2.17827         134.357         12.1569 
         2.1844         133.591         12.0737 
        2.19054         132.994         11.9912 
        2.19666         132.115         11.9096 
         2.2028         131.548         11.8287 
        2.20893         130.968         11.7486 
        2.21508         130.081         11.6691 
        2.22122         129.247         11.5902 
        2.22736         128.535         11.5123 
        2.23349         127.959         11.4351 
        2.23962         127.234         11.3586 
        2.24577         126.543         11.2828 
         2.2519         125.945         11.2077 
        2.25802         125.055         11.1334 
        2.26417         124.673         11.0596 
        2.27031         123.878         10.9864 
        2.27644         123.139         10.9141 
        2.28257         122.481         10.8424 
        2.28872         121.881         10.7712 
        2.29486         120.987         10.7007 
        2.30099         120.434          10.631 
        2.30712         119.873         10.5618 
        2.31326         119.197         10.4932 
         2.3194         118.446         10.4252 
        2.32553         117.762         10.3579 
        2.33166          117.31         10.2913 
         2.3378         116.872         10.2251 
        2.34394         116.027         10.1595 
        2.35007          115.41         10.0946 
        2.35619         114.761         10.0303 
        2.36233         114.178         9.96641 
        2.36848         113.592         9.90296 
        2.37462         113.004         9.84019 
        2.38075         112.349         9.77804 
        2.38689         111.903         9.71636 
        2.39303         111.171         9.65523 
        2.39916         110.691         9.59469 
        2.40529          110.34         9.53468 
        2.41143         109.646         9.47513 
        2.41757         108.884         9.41607 
         2.4237         108.315         9.35762 
        2.42983         107.872         9.29967 
        2.43598         107.197         9.24206 
        2.44211         106.731         9.18503 
        2.44823         106.025         9.12862 
        2.45437         105.693         9.07252 
        2.46052         104.828         9.01685 
        2.46665         104.501         8.96174 
        2.47279         104.128         8.90712 
        2.47892         103.356         8.85291 
        2.48507         102.801          8.7991 
         2.4912         102.302         8.74585 
