# k  (h/Mpc)    Pcb(k)  (Mpc/h)^3    Pcb_linear(k)  (Mpc/h)^3
     0.00783031         21925.9         22045.5 
       0.013688         24592.4           25327 
       0.019231         23853.6         24272.7 
      0.0249154         21510.6           21414 
      0.0312784         17618.9         17791.3 
      0.0375637         14480.7         14733.5 
      0.0433917         12586.3         12641.1 
      0.0492413         11068.9         11192.7 
      0.0555754         10084.6         10120.3 
      0.0619321         8950.31         9279.54 
       0.067871          8345.4         8513.31 
      0.0738098         7641.92         7685.46 
      0.0800417          6781.1         6771.51 
      0.0862327         5914.52         5901.34 
      0.0921407         5282.48         5186.01 
      0.0982031         4796.27         4613.21 
       0.104506         4290.34         4189.28 
       0.110769         4023.98         3900.43 
       0.116806         3856.19         3690.73 
       0.122832          3625.9          3496.4 
       0.129052         3382.86         3275.51 
       0.135211         3239.09         3026.58 
       0.141259         2944.68         2766.23 
       0.147318         2699.72         2513.82 
       0.153489          2513.8         2288.37 
       0.159709         2407.97         2106.37 
       0.165845         2212.61          1971.1 
       0.171974         2156.26         1869.68 
       0.178125            2087          1786.6 
       0.184229         1921.36         1708.25 
        0.19034         1886.68         1624.38 
       0.196428         1820.18          1532.7 
       0.202534         1698.87         1435.91 
       0.208729         1657.55         1339.49 
       0.214876         1569.68         1252.22 
       0.220989         1492.29         1177.81 
       0.227147         1446.97         1116.02 
        0.23329         1389.04         1065.27 
       0.239377         1381.69         1021.87 
       0.245482         1313.29         981.183 
       0.251667            1265         939.874 
       0.257832         1238.59         897.367 
       0.263955         1180.13         854.269 
       0.270079         1144.25          811.82 
        0.27624         1096.68         771.561 
       0.282372          1082.1         735.202 
        0.28843         1058.29         703.387 
       0.294538         1010.31         675.038 
       0.300721         990.988         649.256 
        0.30691         963.415         625.199 
       0.313033         926.053          602.22 
       0.319153         915.684         579.514 
       0.325316         902.061         556.879 
        0.33145         878.896         534.827 
       0.337538         848.848          513.85 
       0.343633         829.203         494.098 
       0.349808         812.626         475.581 
       0.355968         796.112         458.555 
       0.362074         769.294         442.914 
       0.368217         765.348         428.129 
       0.374374         753.824         413.964 
       0.380519         725.977         400.298 
       0.386598         720.633         387.139 
       0.392688         701.294         374.339 
        0.39888         687.693         361.799 
       0.405048          671.66         349.861 
       0.411186         670.951         338.598 
       0.417313         662.978         327.979 
       0.423458         645.026         317.901 
       0.429607         626.831         308.324 
       0.435692          619.97         299.267 
       0.441815         607.782         290.492 
       0.447964         599.497         281.982 
       0.454126          591.51         273.744 
       0.460267         583.619         265.819 
       0.466387         570.679         258.215 
        0.47254         564.655         250.882 
       0.478662         554.168         243.899 
       0.484765         546.603         237.233 
       0.490885         542.631         230.823 
       0.497035         529.812         224.638 
       0.503198         528.958         218.673 
       0.509342         518.648         212.933 
       0.515458         508.467         207.409 
       0.521598         506.986         202.051 
       0.527764         495.234         196.857 
       0.533884         488.691         191.881 
           0.54         485.671         187.085 
       0.546137         477.457         182.444 
       0.552299         474.212         177.951 
       0.558452         467.232         173.624 
       0.564573         465.356         169.465 
       0.570708         458.183         165.434 
       0.576825         449.769         161.543 
       0.582926         448.463         157.785 
       0.589034         440.585         154.141 
       0.595184         436.784         150.589 
       0.601379         429.508         147.126 
       0.607522           422.3           143.8 
       0.613639         421.553         140.592 
       0.619772         418.741         137.476 
       0.625918         410.972          134.45 
       0.632068         409.459         131.515 
       0.638161         404.173         128.694 
         0.6443         398.681         125.937 
       0.650464         395.652         123.249 
       0.656582          391.71         120.659 
       0.662703         388.883         118.143 
       0.668861         382.563         115.684 
       0.675024         381.456         113.294 
       0.681124         372.726         110.997 
       0.687237         372.754         108.759 
       0.693381         367.162         106.573 
       0.699536         367.054         104.444 
       0.705665         361.225         102.383 
       0.711789         359.455         100.379 
       0.717957         355.552         98.4155 
        0.72409          351.51         96.5155 
       0.730186         351.621         94.6773 
       0.736317         345.907         92.8773 
       0.742472         342.962         91.1177 
       0.748622         342.035         89.4056 
        0.75476         336.953         87.7415 
       0.760888         335.418         86.1225 
       0.767043         332.101         84.5383 
       0.773185         329.027         82.9974 
       0.779291          326.26          81.504 
       0.785407         323.749         80.0453 
       0.791564         322.144         78.6133 
       0.797719         316.972         77.2172 
       0.803834         317.097          75.864 
       0.809972         312.092         74.5385 
       0.816124          310.13          73.242 
       0.822261         307.829         71.9798 
       0.828378         306.093         70.7514 
       0.834502         301.472         69.5507 
       0.840667         300.731         68.3701 
       0.846816         297.201         67.2204 
       0.852925         297.501         66.1045 
       0.859047         293.236         65.0116 
       0.865192         291.911         63.9399 
       0.871341         288.884         62.8918 
       0.877463         287.583         61.8719 
       0.883569         285.611         60.8774 
       0.889708         282.629         59.8996 
       0.895864         279.123         58.9409 
       0.902008          278.07         58.0052 
       0.908149         275.054         57.0904 
       0.914301         274.313         56.1939 
       0.920448         270.939         55.3176 
       0.926574         269.234         54.4631 
       0.932687         268.669         53.6285 
       0.938823         265.729         52.8085 
       0.944975         265.268         52.0037 
       0.951105         262.815         51.2187 
       0.957225         259.823         50.4513 
       0.963368         259.845         49.6971 
       0.969511           256.3         48.9583 
       0.975621         253.598         48.2385 
       0.981748         253.243         47.5315 
       0.987916         251.543         46.8342 
        0.99406         249.052         46.1535 
        1.00019         246.783         45.4878 
        1.00632         246.058         44.8359 
        1.01246         244.217         44.1958 
        1.01859         241.898         43.5693 
        1.02471         240.342         42.9557 
        1.03085         239.176         42.3518 
        1.03698         237.712         41.7609 
        1.04314         236.415         41.1788 
        1.04929         234.736         40.6092 
        1.05541          233.72         40.0526 
        1.06154         231.072         39.5051 
        1.06769         229.605         38.9671 
        1.07382         227.491         38.4408 
        1.07993         227.021         37.9255 
        1.08607         225.527         37.4175 
        1.09222          223.43         36.9183 
        1.09836         222.165         36.4288 
        1.10449         221.001         35.9488 
        1.11063         219.556         35.4768 
        1.11677         217.322         35.0135 
         1.1229         217.134         34.5593 
        1.12903         214.546         34.1128 
        1.13518         213.336         33.6738 
        1.14131         212.131         33.2427 
        1.14745          210.52         32.8195 
        1.15359         209.078         32.4036 
        1.15973         208.077         31.9947 
        1.16584         206.766         31.5947 
        1.17197         205.768         31.2009 
        1.17811         203.364         30.8127 
        1.18424         202.438         30.4322 
        1.19038         201.607         30.0571 
        1.19652         199.478         29.6884 
        1.20267         198.497          29.326 
        1.20881         197.451         28.9696 
        1.21495         196.154         28.6198 
        1.22108         194.977         28.2758 
         1.2272         193.487         27.9382 
        1.23334         191.931         27.6055 
        1.23949         191.286         27.2773 
        1.24562         189.761         26.9554 
        1.25174         189.278         26.6392 
        1.25789         187.338         26.3271 
        1.26402         186.598         26.0206 
        1.27014         185.392         25.7197 
        1.27628         184.445         25.4227 
        1.28244         182.626         25.1297 
        1.28858         181.883         24.8418 
        1.29471         180.503         24.5591 
        1.30084         180.174          24.281 
        1.30697         178.508         24.0068 
        1.31312         177.761         23.7365 
        1.31925         176.536         23.4711 
        1.32537         175.866         23.2101 
        1.33151         173.916         22.9522 
        1.33765         173.437         22.6982 
        1.34378         172.498         22.4487 
        1.34992          170.98         22.2027 
        1.35606         170.284         21.9598 
         1.3622         168.719          21.721 
        1.36833         168.509         21.4863 
        1.37445         167.501         21.2553 
        1.38059         165.727         21.0268 
        1.38675         164.431         20.8012 
        1.39288         164.113         20.5799 
        1.39901         162.832         20.3618 
        1.40515         161.753         20.1464 
         1.4113         161.221         19.9342 
        1.41742         159.933         19.7258 
        1.42355         158.638         19.5201 
         1.4297         158.037         19.3167 
        1.43585           157.4         19.1162 
        1.44198         156.108         18.9194 
        1.44809         155.648         18.7257 
        1.45423         154.594          18.534 
        1.46036         153.755         18.3453 
        1.46649         152.429         18.1592 
        1.47263         151.874         17.9755 
        1.47877         150.857         17.7944 
        1.48491         149.846         17.6156 
        1.49104         148.594         17.4396 
        1.49718         147.886         17.2659 
        1.50333         146.868         17.0942 
        1.50947         146.118         16.9253 
         1.5156         145.263         16.7588 
        1.52172          144.41         16.5947 
        1.52787         143.692         16.4323 
          1.534         143.057         16.2724 
        1.54013         142.198         16.1147 
        1.54627         141.315         15.9589 
        1.55241         140.548          15.805 
        1.55855         139.608         15.6535 
        1.56467         138.687         15.5043 
         1.5708          138.08         15.3566 
        1.57695         137.334         15.2106 
        1.58308         136.227         15.0669 
        1.58922         135.393         14.9249 
        1.59535         134.643         14.7848 
         1.6015          133.87         14.6463 
        1.60764         132.989         14.5096 
        1.61376         132.388         14.3751 
        1.61989         131.529         14.2421 
        1.62604         131.053         14.1106 
        1.63218         129.972         13.9807 
        1.63831          129.39         13.8529 
        1.64444         128.524         13.7265 
        1.65059         127.781         13.6014 
        1.65673         126.943         13.4781 
        1.66285         126.403         13.3566 
        1.66898         125.649         13.2365 
        1.67512          124.55         13.1177 
        1.68127         124.145         13.0002 
         1.6874         123.421         12.8845 
        1.69353         122.725         12.7702 
        1.69967         122.002          12.657 
        1.70581          121.35         12.5453 
        1.71193         120.794         12.4353 
        1.71806         119.863         12.3264 
        1.72421         119.049         12.2186 
        1.73035         118.666         12.1122 
        1.73649         117.951         12.0071 
        1.74262         117.053         11.9033 
        1.74876          116.36         11.8007 
        1.75489         116.143         11.6995 
        1.76101         115.219         11.5995 
        1.76715         114.613         11.5005 
        1.77329         113.984         11.4026 
        1.77943         113.073         11.3058 
        1.78557         112.344         11.2102 
        1.79171         111.744         11.1157 
        1.79785         111.076         11.0223 
        1.80399         110.483           10.93 
        1.81012         110.114         10.8389 
        1.81625         109.173         10.7488 
        1.82239         108.872         10.6596 
        1.82853         108.013         10.5715 
        1.83466          107.31         10.4844 
        1.84078         106.944         10.3985 
        1.84692         106.166         10.3133 
        1.85306         105.595          10.229 
         1.8592         105.025         10.1458 
        1.86533          104.34         10.0635 
        1.87147         103.696         9.98206 
        1.87761          103.29         9.90148 
        1.88375          102.58         9.82188 
        1.88988         102.016         9.74324 
        1.89601         101.442         9.66542 
        1.90215         100.983         9.58839 
        1.90829         100.224         9.51223 
        1.91442         99.6498         9.43688 
        1.92056         99.4064         9.36243 
         1.9267         98.6319         9.28869 
        1.93284         97.9631         9.21571 
        1.93897          97.698         9.14365 
        1.94509         96.9699         9.07251 
        1.95123         96.3394         9.00194 
        1.95737         95.9182         8.93208 
        1.96349         95.4089         8.86313 
        1.96964         94.8564         8.79471 
        1.97578         94.3358         8.72698 
        1.98192         93.8356          8.6601 
        1.98805         93.4201         8.59392 
        1.99419          92.844         8.52842 
        2.00033         92.2625         8.46357 
        2.00647         91.8204         8.39941 
         2.0126         91.2303         8.33602 
        2.01874         90.5459         8.27319 
        2.02488         90.3027         8.21096 
        2.03101         89.8309         8.14947 
        2.03714         89.2238         8.08867 
        2.04328         88.7815         8.02842 
        2.04941         88.0508         7.96884 
        2.05554         87.9189          7.9099 
        2.06167         87.2858         7.85147 
        2.06781         86.9479         7.79363 
        2.07396           86.32         7.73628 
        2.08009         85.8629         7.67961 
        2.08622         85.4899         7.62357 
        2.09237         84.8995         7.56797 
        2.09851         84.4988         7.51292 
        2.10464         84.0175         7.45851 
        2.11077         83.6047          7.4047 
        2.11691         82.9938          7.3513 
        2.12305         82.4726         7.29842 
        2.12918         82.1588         7.24619 
        2.13531         81.8315         7.19446 
        2.14145         81.3698         7.14312 
         2.1476         80.7659         7.09222 
        2.15372         80.3782         7.04207 
        2.15985         79.9657         6.99235 
        2.16599         79.3135         6.94297 
        2.17213         79.2602         6.89412 
        2.17827         78.7183         6.84575 
         2.1844         78.2035         6.79789 
        2.19054         77.7607         6.75046 
        2.19666         77.3643         6.70356 
         2.2028         77.1192         6.65705 
        2.20893         76.5783         6.61097 
        2.21508         76.0139         6.56527 
        2.22122         75.6559         6.51998 
        2.22736         75.4475         6.47522 
        2.23349         75.0073         6.43088 
        2.23962         74.6052         6.38693 
        2.24577          74.095         6.34336 
         2.2519         73.6827         6.30025 
        2.25802         73.2693         6.25761 
        2.26417          72.951         6.21525 
        2.27031         72.4559         6.17324 
        2.27644         72.0749         6.13173 
        2.28257         71.9458         6.09061 
        2.28872         71.4403         6.04979 
        2.29486         70.9767         6.00935 
        2.30099         70.6592         5.96937 
        2.30712          70.341         5.92972 
        2.31326         69.8929         5.89037 
         2.3194         69.5378          5.8514 
        2.32553         69.2228         5.81285 
        2.33166          68.882         5.77466 
         2.3378         68.4285         5.73676 
        2.34394         68.0673         5.69919 
        2.35007         67.7274           5.662 
        2.35619         67.1525          5.6252 
        2.36233         66.8994         5.58863 
        2.36848         66.7421         5.55231 
        2.37462         66.2403         5.51639 
        2.38075         65.9208         5.48082 
        2.38689         65.6822         5.44553 
        2.39303         65.3388         5.41056 
        2.39916         64.9013         5.37593 
        2.40529         64.6207         5.34161 
        2.41143         64.2329         5.30756 
        2.41757         63.7755         5.27379 
         2.4237          63.616         5.24037 
        2.42983          63.247         5.20725 
        2.43598         62.9868         5.17433 
        2.44211         62.5839         5.14174 
        2.44823          62.197         5.10951 
        2.45437         62.0059         5.07746 
        2.46052         61.6877         5.04566 
        2.46665          61.264         5.01419 
        2.47279         60.8738           4.983 
        2.47892         60.6462         4.95205 
        2.48507         60.3118         4.92134 
         2.4912         60.0814         4.89094 
