# k  (h/Mpc)    Pcb(k)  (Mpc/h)^3    Pcb_linear(k)  (Mpc/h)^3
     0.00783031         4903.33         4930.92 
       0.013688         6126.47         6230.29 
       0.019231         6411.98         6468.19 
      0.0249154         6164.29         6157.77 
      0.0312784            5487         5515.72 
      0.0375637         4788.68         4835.87 
      0.0433917         4281.17         4289.25 
      0.0492413         3830.03         3859.67 
      0.0555754         3511.04         3515.77 
      0.0619321         3183.75          3254.3 
       0.067871         3008.95         3042.01 
      0.0738098         2808.92         2829.51 
      0.0800417         2581.12         2592.02 
      0.0862327          2326.7         2345.84 
      0.0921407         2103.43         2116.62 
      0.0982031         1910.39          1904.5 
       0.104506          1709.8         1721.53 
       0.110769         1576.76         1581.09 
       0.116806          1497.4         1479.57 
       0.122832         1403.25         1401.05 
       0.129052         1338.57         1331.52 
       0.135211         1284.24         1263.53 
       0.141259         1200.53          1191.7 
       0.147318          1111.6            1114 
       0.153489         1041.52         1032.46 
       0.159709         980.035         953.482 
       0.165845         893.787         883.844 
       0.171974         861.563         825.462 
       0.178125         818.856         778.378 
       0.184229         765.706         741.103 
        0.19034         745.876          709.95 
       0.196428         719.524         681.565 
       0.202534         675.612         652.985 
       0.208729         659.272         622.399 
       0.214876         632.224         590.475 
       0.220989         589.101         558.291 
       0.227147         572.937         527.054 
        0.23329         548.602         498.536 
       0.239377         532.532         473.733 
       0.245482         505.075         452.408 
       0.251667         484.105         433.893 
       0.257832         477.772         417.587 
       0.263955         452.345          402.49 
       0.270079          436.91         387.677 
        0.27624         418.419         372.619 
       0.282372         407.203         357.427 
        0.28843          403.12         342.495 
       0.294538         383.238         327.922 
       0.300721         368.364         314.087 
        0.30691         361.968         301.408 
       0.313033         346.515         290.089 
       0.319153         340.215         279.855 
       0.325316         330.335         270.395 
        0.33145         321.666         261.527 
       0.337538          311.04         253.032 
       0.343633         301.567         244.673 
       0.349808         293.082         236.325 
       0.355968         286.295         228.151 
       0.362074         279.413         220.311 
       0.368217         274.581         212.785 
       0.374374         268.226         205.681 
       0.380519         257.145         199.058 
       0.386598         252.588          192.93 
       0.392688         246.268         187.161 
        0.39888         240.959         181.587 
       0.405048         236.238         176.251 
       0.411186         233.143         171.107 
       0.417313         227.962         166.106 
       0.423458         222.075         161.228 
       0.429607         217.485         156.504 
       0.435692         213.561         152.006 
       0.441815         208.608         147.672 
       0.447964         202.774         143.528 
       0.454126          199.32         139.574 
       0.460267         197.385         135.813 
       0.466387         193.266         132.225 
        0.47254         191.005         128.753 
       0.478662         184.904         125.413 
       0.484765         182.524         122.187 
       0.490885         179.257         119.051 
       0.497035          177.67         115.998 
       0.503198         174.333         113.041 
       0.509342          169.83         110.199 
       0.515458         168.008         107.477 
       0.521598         164.025         104.846 
       0.527764         162.296         102.302 
       0.533884          161.54         99.8679 
           0.54         157.357         97.5196 
       0.546137         153.834         95.2389 
       0.552299         152.142         93.0191 
       0.558452         149.425           90.87 
       0.564573         148.765         88.7972 
       0.570708         144.827         86.7836 
       0.576825         143.185         84.8387 
       0.582926         141.661         82.9598 
       0.589034         139.524         81.1382 
       0.595184         138.101         79.3627 
       0.601379          134.83         77.6313 
       0.607522         132.828         75.9673 
       0.613639         131.733         74.3596 
       0.619772          129.82         72.7942 
       0.625918         128.705         71.2704 
       0.632068         126.234         69.7892 
       0.638161         124.414         68.3634 
         0.6443         123.827         66.9675 
       0.650464         121.453          65.606 
       0.656582         120.955         64.2927 
       0.662703         119.495         63.0156 
       0.668861         116.978         61.7668 
       0.675024         116.987         60.5516 
       0.681124         115.086         59.3822 
       0.687237         112.999         58.2418 
       0.693381         112.479         57.1263 
       0.699536         111.086         56.0383 
       0.705665         109.472         54.9833 
       0.711789         108.125         53.9566 
       0.717957          106.93         52.9493 
        0.72409         106.186         51.9736 
       0.730186         105.505         51.0288 
       0.736317         103.615         50.1027 
       0.742472         102.481         49.1966 
       0.748622         100.973         48.3142 
        0.75476         100.511         47.4556 
       0.760888          99.963         46.6195 
       0.767043         98.1391         45.8004 
       0.773185         97.0564         45.0029 
       0.779291         95.9956         44.2291 
       0.785407         94.8208         43.4726 
       0.791564         94.7563         42.7293 
       0.797719         93.5879         42.0039 
       0.803834         92.7656         41.3001 
       0.809972          92.125         40.6102 
       0.816124         91.0606         39.9348 
       0.822261         89.9087         39.2767 
       0.828378         89.6906         38.6357 
       0.834502         88.3307         38.0086 
       0.840667         87.8763         37.3915 
       0.846816         86.9951           36.79 
       0.852925         86.1465         36.2057 
       0.859047         85.8364          35.633 
       0.865192         84.5583         35.0709 
       0.871341         83.6673         34.5207 
       0.877463         83.1854         33.9848 
       0.883569         82.9457         33.4618 
       0.889708         82.1784         32.9473 
       0.895864         81.4327         32.4423 
       0.902008         80.6967         31.9491 
       0.908149         79.8146         31.4665 
       0.914301         79.5078         30.9932 
       0.920448         79.1303         30.5302 
       0.926574         77.6402         30.0783 
       0.932687         77.3836         29.6366 
       0.938823         76.7492         29.2023 
       0.944975         75.8947         28.7757 
       0.951105         75.3299         28.3593 
       0.957225         75.2049         27.9519 
       0.963368         74.4194         27.5512 
       0.969511         73.7726         27.1585 
       0.975621         73.2838         26.7756 
       0.981748         72.5489         26.3991 
       0.987916         72.0684         26.0276 
        0.99406         71.6647         25.6647 
        1.00019         70.9168         25.3095 
        1.00632         70.4681         24.9614 
        1.01246           69.98         24.6195 
        1.01859         69.6667         24.2845 
        1.02471         68.8578         23.9563 
        1.03085         68.4915          23.633 
        1.03698         68.0618         23.3165 
        1.04314         67.6067         23.0045 
        1.04929         67.0449          22.699 
        1.05541         66.6758         22.4003 
        1.06154         66.3322         22.1063 
        1.06769         65.4958         21.8172 
        1.07382         65.1849         21.5343 
        1.07993         64.8642          21.257 
        1.08607         64.3504         20.9836 
        1.09222         64.1195         20.7147 
        1.09836         63.5426         20.4509 
        1.10449         63.2012          20.192 
        1.11063         62.6639         19.9374 
        1.11677         62.5538         19.6872 
         1.1229         61.8844         19.4419 
        1.12903         61.7194         19.2005 
        1.13518         61.5415          18.963 
        1.14131         60.8643         18.7298 
        1.14745         60.3259         18.5006 
        1.15359         59.8011         18.2752 
        1.15973          59.726         18.0536 
        1.16584         59.3154         17.8366 
        1.17197          58.657         17.6229 
        1.17811         58.4704          17.412 
        1.18424         57.7647         17.2053 
        1.19038         57.7023         17.0013 
        1.19652         57.4568         16.8008 
        1.20267         57.0595         16.6034 
        1.20881         56.6653         16.4094 
        1.21495         56.4521         16.2187 
        1.22108         56.2218         16.0312 
         1.2272         55.7399          15.847 
        1.23334         55.4266         15.6654 
        1.23949         55.1122         15.4862 
        1.24562         54.6904         15.3103 
        1.25174         54.3704         15.1375 
        1.25789         54.3899         14.9668 
        1.26402         53.9059          14.799 
        1.27014         53.6301         14.6343 
        1.27628         53.1354         14.4716 
        1.28244         53.0372         14.3111 
        1.28858         52.6599         14.1532 
        1.29471          52.431         13.9982 
        1.30084           51.98         13.8455 
        1.30697         51.9153          13.695 
        1.31312         51.4438         13.5465 
        1.31925         51.0732         13.4007 
        1.32537          50.885         13.2572 
        1.33151         50.5747         13.1153 
        1.33765         50.3743         12.9755 
        1.34378         50.1833         12.8381 
        1.34992         49.8084         12.7026 
        1.35606         49.5192         12.5688 
         1.3622         49.2243         12.4371 
        1.36833         48.9843         12.3077 
        1.37445         48.6066         12.1802 
        1.38059         48.5122         12.0541 
        1.38675          48.012         11.9295 
        1.39288         48.0094         11.8072 
        1.39901         47.6472         11.6866 
        1.40515         47.4395         11.5675 
         1.4113         47.4226         11.4501 
        1.41742         47.0908         11.3348 
        1.42355         46.6636         11.2208 
         1.4297         46.4491         11.1081 
        1.43585         46.1501          10.997 
        1.44198         45.9354         10.8878 
        1.44809         45.6981         10.7804 
        1.45423         45.5564          10.674 
        1.46036         45.3328         10.5692 
        1.46649         45.1307         10.4658 
        1.47263         44.8085         10.3638 
        1.47877         44.6613         10.2631 
        1.48491         44.5008         10.1636 
        1.49104         44.1359         10.0657 
        1.49718         43.9931         9.96896 
        1.50333         43.8608         9.87337 
        1.50947         43.5226         9.77923 
         1.5156         43.3545         9.68647 
        1.52172         43.0294         9.59492 
        1.52787         42.8841         9.50438 
          1.534         42.6677         9.41512 
        1.54013         42.5727         9.32711 
        1.54627         42.1794         9.24008 
        1.55241         42.0247         9.15414 
        1.55855         41.9277         9.06943 
        1.56467         41.7183         8.98603 
         1.5708         41.5318         8.90345 
        1.57695         41.3035         8.82179 
        1.58308         40.9711         8.74134 
        1.58922         40.8033         8.66185 
        1.59535         40.6849         8.58339 
         1.6015         40.5814         8.50579 
        1.60764         40.3568          8.4292 
        1.61376         40.0963         8.35376 
        1.61989         39.8645         8.27919 
        1.62604         39.7165         8.20538 
        1.63218         39.5227         8.13251 
        1.63831         39.4204          8.0607 
        1.64444         39.1829         7.98973 
        1.65059         39.0037         7.91946 
        1.65673         38.8071         7.85011 
        1.66285          38.738         7.78179 
        1.66898         38.3967         7.71426 
        1.67512         38.3475         7.64741 
        1.68127         38.1358         7.58129 
         1.6874         37.9431          7.5161 
        1.69353         37.8576         7.45172 
        1.69967         37.6804         7.38795 
        1.70581         37.3442         7.32495 
        1.71193         37.1902         7.26293 
        1.71806         37.1196          7.2015 
        1.72421         36.9715         7.14066 
        1.73035         36.7543          7.0806 
        1.73649         36.5127         7.02124 
        1.74262          36.307         6.96261 
        1.74876         36.2024         6.90462 
        1.75489         36.0522         6.84741 
        1.76101         35.9412         6.79087 
        1.76715         35.8064         6.73489 
        1.77329         35.5376         6.67948 
        1.77943         35.5049         6.62468 
        1.78557         35.3095         6.57057 
        1.79171         35.1724         6.51706 
        1.79785         34.9954         6.46413 
        1.80399         34.8545         6.41181 
        1.81012         34.7387         6.36015 
        1.81625         34.4542         6.30907 
        1.82239         34.3596         6.25849 
        1.82853         34.2229         6.20848 
        1.83466         34.0544         6.15908 
        1.84078         33.8869         6.11026 
        1.84692         33.7892          6.0619 
        1.85306          33.562         6.01401 
         1.8592         33.5066         5.96671 
        1.86533         33.3133         5.91995 
        1.87147         33.1665         5.87364 
        1.87761         33.0087         5.82781 
        1.88375         32.9772         5.78252 
        1.88988         32.7287         5.73777 
        1.89601         32.5659         5.69346 
        1.90215         32.4773         5.64959 
        1.90829         32.3655         5.60621 
        1.91442         32.1415         5.56328 
        1.92056         32.0571         5.52084 
         1.9267         31.9547          5.4788 
        1.93284         31.8071         5.43718 
        1.93897         31.6786         5.39607 
        1.94509         31.5532         5.35547 
        1.95123         31.4167         5.31519 
        1.95737         31.2675          5.2753 
        1.96349         31.1217         5.23592 
        1.96964         31.1195         5.19683 
        1.97578         30.8327         5.15812 
        1.98192         30.7382         5.11989 
        1.98805         30.5145         5.08204 
        1.99419         30.5146         5.04457 
        2.00033         30.3301         5.00747 
        2.00647         30.2558         4.97075 
         2.0126         30.0732         4.93446 
        2.01874         29.9418         4.89848 
        2.02488         29.8216         4.86283 
        2.03101         29.6577          4.8276 
        2.03714         29.5736         4.79275 
        2.04328          29.465         4.75821 
        2.04941         29.3252         4.72404 
        2.05554         29.2622         4.69024 
        2.06167         29.0787         4.65672 
        2.06781         29.0038         4.62352 
        2.07396         28.9179          4.5906 
        2.08009         28.7498         4.55806 
        2.08622         28.6222         4.52587 
        2.09237          28.561         4.49393 
        2.09851         28.3277          4.4623 
        2.10464         28.2263         4.43102 
        2.11077         28.2238         4.40009 
        2.11691         28.0425         4.36938 
        2.12305         27.9395         4.33896 
        2.12918         27.8281         4.30891 
        2.13531         27.7261         4.27914 
        2.14145         27.5827         4.24959 
         2.1476         27.4284         4.22028 
        2.15372         27.3494         4.19139 
        2.15985         27.2695         4.16275 
        2.16599         27.1181          4.1343 
        2.17213         27.0688         4.10614 
        2.17827         26.8781         4.07825 
         2.1844         26.8174         4.05065 
        2.19054         26.7539          4.0233 
        2.19666         26.5867         3.99623 
         2.2028         26.5412          3.9694 
        2.20893         26.3519         3.94279 
        2.21508         26.2779         3.91641 
        2.22122         26.1493         3.89025 
        2.22736         26.1016         3.86439 
        2.23349         25.9307         3.83878 
        2.23962         25.8989         3.81338 
        2.24577         25.7496         3.78819 
         2.2519           25.68         3.76326 
        2.25802         25.4949          3.7386 
        2.26417         25.4174         3.71409 
        2.27031         25.3644         3.68978 
        2.27644         25.3149         3.66576 
        2.28257         25.1656         3.64195 
        2.28872         25.0986         3.61831 
        2.29486         24.9692         3.59489 
        2.30099         24.8332         3.57172 
        2.30712         24.7775         3.54875 
        2.31326         24.6403         3.52594 
         2.3194          24.568         3.50335 
        2.32553         24.4883         3.48099 
        2.33166         24.3383         3.45884 
         2.3378         24.3216         3.43685 
        2.34394         24.1806         3.41505 
        2.35007         24.1107         3.39346 
        2.35619         24.0148         3.37209 
        2.36233          23.893         3.35086 
        2.36848         23.7861         3.32976 
        2.37462         23.7198         3.30889 
        2.38075         23.6086         3.28823 
        2.38689         23.5048         3.26772 
        2.39303         23.4575         3.24739 
        2.39916         23.3202         3.22725 
        2.40529         23.2281         3.20729 
        2.41143         23.1591         3.18748 
        2.41757         23.0257         3.16783 
         2.4237         22.9556         3.14838 
        2.42983          22.894          3.1291 
        2.43598         22.7796         3.10993 
        2.44211         22.7123         3.09095 
        2.44823         22.6331         3.07218 
        2.45437         22.5674         3.05351 
        2.46052         22.4262         3.03498 
        2.46665          22.407         3.01663 
        2.47279         22.2426         2.99845 
        2.47892         22.1856          2.9804 
        2.48507         22.1122         2.96249 
         2.4912         22.0266         2.94475 
