# k  (h/Mpc)    Pcb(k)  (Mpc/h)^3    Pcb_linear(k)  (Mpc/h)^3
     0.00783031         13532.8         13720.8 
       0.013688         17599.4         17452.5 
       0.019231         18231.4         18226.2 
      0.0249154         17027.8         17415.9 
      0.0312784         15421.8         15643.6 
      0.0375637         13692.9         13763.8 
      0.0433917         11975.5         12271.7 
      0.0492413         10961.8         11119.6 
      0.0555754         9814.35         10208.1 
      0.0619321         9427.63         9503.47 
       0.067871         8566.59         8901.59 
      0.0738098         7951.77         8268.45 
      0.0800417         7161.11         7544.73 
      0.0862327         6542.56         6798.81 
      0.0921407         5999.28         6120.66 
      0.0982031         5388.03         5514.26 
       0.104506         5059.25         5012.34 
       0.110769         4683.42         4642.17 
       0.116806         4401.82         4379.48 
       0.122832         4199.27         4169.88 
       0.129052         3908.26         3967.73 
       0.135211         3713.42         3752.59 
       0.141259         3555.79          3517.1 
       0.147318          3353.6         3264.97 
       0.153489         3078.37         3010.31 
       0.159709         2914.36         2776.66 
       0.165845         2809.04         2582.83 
       0.171974         2650.26         2429.53 
       0.178125         2524.47         2310.66 
       0.184229         2422.17         2215.76 
        0.19034         2293.78         2130.35 
       0.196428         2252.79          2043.7 
       0.202534         2169.28         1949.15 
       0.208729         2074.88         1845.32 
       0.214876         1989.24         1739.14 
       0.220989         1924.77          1637.2 
       0.227147         1841.28         1544.33 
        0.23329         1771.42         1465.02 
       0.239377         1747.42         1399.84 
       0.245482         1641.42         1345.33 
       0.251667         1634.27         1297.04 
       0.257832         1572.17         1251.48 
       0.263955         1522.13         1205.49 
       0.270079         1473.02         1157.33 
        0.27624          1457.6         1107.14 
       0.282372          1396.3         1057.15 
        0.28843         1390.41         1009.89 
       0.294538         1323.44         966.131 
       0.300721         1317.39         926.825 
        0.30691         1266.13         892.339 
       0.313033         1242.32         862.088 
       0.319153            1224         834.295 
       0.325316          1183.5         807.423 
        0.33145         1158.18         780.777 
       0.337538         1140.24          754.08 
       0.343633         1114.88          727.23 
       0.349808         1079.48         700.513 
       0.355968         1072.63         674.964 
       0.362074         1062.12         651.319 
       0.368217         1029.99         629.443 
       0.374374         992.322         609.374 
       0.380519         994.054         590.899 
       0.386598         968.356         573.661 
       0.392688         964.901         557.041 
        0.39888         937.768         540.475 
       0.405048         926.542         524.156 
       0.411186         913.659         508.184 
       0.417313         894.948          492.63 
       0.423458         880.931         477.626 
       0.429607         868.851         463.386 
       0.435692         851.759         450.107 
       0.441815         846.374         437.527 
       0.447964         828.201         425.603 
       0.454126         820.284         414.202 
       0.460267         802.186         403.232 
       0.466387         792.755         392.602 
        0.47254          786.04          382.17 
       0.478662         779.842         372.029 
       0.484765         758.967           362.2 
       0.490885         754.277         352.691 
       0.497035         738.665         343.523 
       0.503198         734.162          334.73 
       0.509342         726.237          326.35 
       0.515458         722.727         318.369 
       0.521598          706.03         310.664 
       0.527764         691.975          303.18 
       0.533884         691.754         295.963 
           0.54         684.048         288.952 
       0.546137         679.204         282.113 
       0.552299         669.592         275.445 
       0.558452         665.533         268.991 
       0.564573         656.191         262.782 
       0.570708          649.63         256.777 
       0.576825         631.972          251.01 
       0.582926         635.238         245.457 
       0.589034         629.455         240.076 
       0.595184         623.195         234.821 
       0.601379         615.262         229.679 
       0.607522         606.923         224.726 
       0.613639          607.65         219.933 
       0.619772         593.158         215.264 
       0.625918         590.596         210.718 
       0.632068         583.256         206.301 
       0.638161         581.373         202.053 
         0.6443         570.554         197.899 
       0.650464          568.92         193.855 
       0.656582          565.88          189.96 
       0.662703         562.715         186.175 
       0.668861         553.008         182.473 
       0.675024         548.909         178.867 
       0.681124         545.684         175.391 
       0.687237         541.126         171.998 
       0.693381         534.672         168.677 
       0.699536         526.361         165.438 
       0.705665         526.055           162.3 
       0.711789         522.402         159.248 
       0.717957         517.741         156.257 
        0.72409         514.912         153.362 
       0.730186         507.927         150.559 
       0.736317         504.696         147.812 
       0.742472         502.703         145.124 
       0.748622         496.872         142.504 
        0.75476         490.167         139.954 
       0.760888         485.746          137.47 
       0.767043         486.173         135.037 
       0.773185         480.766         132.667 
       0.779291         475.995         130.369 
       0.785407         472.609         128.122 
       0.791564         467.421         125.915 
       0.797719         465.264         123.762 
       0.803834         461.303         121.673 
       0.809972         459.325         119.626 
       0.816124         458.524         117.622 
       0.822261         451.695         115.669 
       0.828378         449.355         113.767 
       0.834502          445.11         111.907 
       0.840667         441.297         110.076 
       0.846816         439.449         108.291 
       0.852925         435.647         106.558 
       0.859047         434.859         104.859 
       0.865192         429.718         103.192 
       0.871341          426.26          101.56 
       0.877463         425.268          99.971 
       0.883569         421.515         98.4204 
       0.889708          418.82         96.8949 
       0.895864         416.001         95.3982 
       0.902008         413.194         93.9364 
       0.908149          409.35         92.5063 
       0.914301         406.259         91.1039 
       0.920448         403.994          89.732 
       0.926574         398.273         88.3934 
       0.932687         398.716         87.0851 
       0.938823         394.324         85.7988 
       0.944975         394.603         84.5356 
       0.951105         389.595         83.3025 
       0.957225         387.141         82.0963 
       0.963368         383.225           80.91 
       0.969511          381.98         79.7472 
       0.975621         379.207         78.6137 
       0.981748         378.001         77.4994 
       0.987916         375.472         76.3998 
        0.99406         369.227         75.3258 
        1.00019         368.717         74.2746 
        1.00632         366.802         73.2446 
        1.01246         363.889         72.2326 
        1.01859         364.322         71.2415 
        1.02471         359.008         70.2703 
        1.03085         357.113         69.3139 
        1.03698         356.072         68.3775 
        1.04314         352.692         67.4544 
        1.04929         349.351         66.5507 
        1.05541         349.921         65.6672 
        1.06154          344.46         64.7977 
        1.06769         343.149         63.9427 
        1.07382         341.274          63.106 
        1.07993          339.04         62.2862 
        1.08607         338.076         61.4777 
        1.09222         335.115         60.6828 
        1.09836         332.911         59.9029 
        1.10449         329.702         59.1378 
        1.11063         326.701         58.3852 
        1.11677         326.866         57.6461 
         1.1229         324.799         56.9211 
        1.12903         322.134         56.2079 
        1.13518         319.402         55.5065 
        1.14131         317.935         54.8175 
        1.14745         316.248         54.1406 
        1.15359         314.066         53.4751 
        1.15973         312.214         52.8206 
        1.16584         309.951         52.1799 
        1.17197          309.54         51.5491 
        1.17811         306.208         50.9267 
        1.18424         303.868         50.3165 
        1.19038         302.762         49.7146 
        1.19652         300.498         49.1228 
        1.20267         299.701         48.5407 
        1.20881         297.701         47.9681 
        1.21495         295.275         47.4057 
        1.22108         293.826         46.8525 
         1.2272          291.84         46.3094 
        1.23334         290.046         45.7736 
        1.23949         288.539         45.2451 
        1.24562         287.168         44.7265 
        1.25174          284.57         44.2167 
        1.25789         282.406         43.7134 
        1.26402         280.843         43.2188 
        1.27014         279.063         42.7332 
        1.27628         277.714         42.2535 
        1.28244          277.16         41.7803 
        1.28858         274.225          41.315 
        1.29471         272.172         40.8579 
        1.30084         271.055         40.4081 
        1.30697         269.361         39.9645 
        1.31312         266.795         39.5268 
        1.31925         266.569         39.0972 
        1.32537         265.277         38.6743 
        1.33151         262.581         38.2563 
        1.33765         260.808         37.8447 
        1.34378         259.972         37.4399 
        1.34992         258.411         37.0408 
        1.35606         257.886         36.6467 
         1.3622         255.698         36.2591 
        1.36833         253.422          35.878 
        1.37445         252.425         35.5026 
        1.38059         250.196         35.1314 
        1.38675         249.428         34.7647 
        1.39288         247.672         34.4047 
        1.39901         247.067         34.0499 
        1.40515         245.022         33.6994 
         1.4113         243.715          33.354 
        1.41742         242.006         33.0147 
        1.42355         240.477         32.6795 
         1.4297          238.87          32.348 
        1.43585         237.638         32.0212 
        1.44198         236.438         31.7001 
        1.44809          235.27         31.3841 
        1.45423         233.528         31.0713 
        1.46036         232.509         30.7632 
        1.46649         230.586         30.4593 
        1.47263         229.202         30.1592 
        1.47877         228.032         29.8633 
        1.48491         226.294         29.5709 
        1.49104         225.547         29.2831 
        1.49718         223.547         28.9989 
        1.50333         222.782          28.718 
        1.50947         221.469         28.4414 
         1.5156         219.426         28.1689 
        1.52172         218.653         27.8999 
        1.52787         217.087         27.6339 
          1.534         216.411         27.3718 
        1.54013         214.518         27.1133 
        1.54627         213.723         26.8576 
        1.55241         212.201         26.6053 
        1.55855         210.907         26.3565 
        1.56467         209.583         26.1116 
         1.5708         209.262         25.8692 
        1.57695         207.379         25.6294 
        1.58308         206.407         25.3933 
        1.58922         204.404           25.16 
        1.59535         203.095         24.9296 
         1.6015         202.823         24.7019 
        1.60764         201.287         24.4771 
        1.61376         199.949         24.2558 
        1.61989         199.032          24.037 
        1.62604         197.847         23.8204 
        1.63218         196.793         23.6066 
        1.63831         195.454          23.396 
        1.64444         194.664         23.1878 
        1.65059         193.144         22.9817 
        1.65673         192.015         22.7783 
        1.66285         191.073          22.578 
        1.66898         189.718         22.3799 
        1.67512         189.473         22.1839 
        1.68127         187.294         21.9901 
         1.6874         186.393          21.799 
        1.69353         185.551         21.6103 
        1.69967         184.066         21.4234 
        1.70581         183.314         21.2388 
        1.71193         181.955          21.057 
        1.71806         181.504          20.877 
        1.72421         180.024         20.6988 
        1.73035         179.387         20.5228 
        1.73649         178.348         20.3489 
        1.74262          177.08         20.1772 
        1.74876         176.243         20.0073 
        1.75489         175.002         19.8398 
        1.76101         173.849         19.6742 
        1.76715         173.357         19.5103 
        1.77329         172.395         19.3481 
        1.77943         171.385         19.1876 
        1.78557         170.396         19.0292 
        1.79171         169.435         18.8725 
        1.79785         168.194         18.7176 
        1.80399         167.308         18.5645 
        1.81012         166.313         18.4133 
        1.81625         165.707         18.2638 
        1.82239         164.513         18.1158 
        1.82853         163.989         17.9695 
        1.83466         162.704         17.8249 
        1.84078         162.105         17.6821 
        1.84692         160.416         17.5406 
        1.85306         160.304         17.4005 
         1.8592         159.067         17.2622 
        1.86533         158.174         17.1254 
        1.87147         157.059         16.9899 
        1.87761         156.605         16.8559 
        1.88375         154.996         16.7235 
        1.88988         154.273         16.5926 
        1.89601         153.755         16.4631 
        1.90215         152.629         16.3348 
        1.90829         152.012          16.208 
        1.91442         151.077         16.0825 
        1.92056          150.33         15.9585 
         1.9267         149.531         15.8356 
        1.93284         148.566         15.7139 
        1.93897         147.726         15.5938 
        1.94509         147.059         15.4752 
        1.95123          146.37         15.3575 
        1.95737         145.657         15.2409 
        1.96349         144.721         15.1259 
        1.96964         143.592         15.0117 
        1.97578         142.804         14.8986 
        1.98192         142.276          14.787 
        1.98805         141.201         14.6764 
        1.99419         140.546          14.567 
        2.00033         139.762         14.4587 
        2.00647         139.214         14.3515 
         2.0126         137.893         14.2456 
        2.01874         137.494         14.1405 
        2.02488         136.963         14.0365 
        2.03101          135.67         13.9336 
        2.03714         135.172         13.8319 
        2.04328          134.32         13.7311 
        2.04941         133.711         13.6314 
        2.05554         132.817         13.5328 
        2.06167         132.487          13.435 
        2.06781         131.711         13.3381 
        2.07396         130.648         13.2421 
        2.08009         130.222         13.1471 
        2.08622         129.315         13.0532 
        2.09237         128.541         12.9601 
        2.09851          127.95         12.8678 
        2.10464         127.489         12.7766 
        2.11077         126.742         12.6864 
        2.11691         126.091         12.5969 
        2.12305         124.922         12.5082 
        2.12918         124.436         12.4206 
        2.13531          123.91         12.3338 
        2.14145         122.999         12.2476 
         2.1476         122.157         12.1622 
        2.15372         121.904          12.078 
        2.15985          121.49         11.9945 
        2.16599         120.434         11.9116 
        2.17213         119.776         11.8296 
        2.17827         119.276         11.7483 
         2.1844         118.446         11.6679 
        2.19054         118.002         11.5882 
        2.19666         117.348         11.5093 
         2.2028         116.552         11.4312 
        2.20893         116.097         11.3537 
        2.21508         115.349         11.2768 
        2.22122         114.811         11.2006 
        2.22736         114.231         11.1253 
        2.23349         113.599         11.0507 
        2.23962         112.854         10.9767 
        2.24577         112.485         10.9034 
         2.2519         111.993         10.8308 
        2.25802         110.973          10.759 
        2.26417         110.554         10.6877 
        2.27031          109.81         10.6169 
        2.27644         109.324          10.547 
        2.28257         108.744         10.4777 
        2.28872         108.293         10.4089 
        2.29486         107.627         10.3408 
        2.30099         107.136         10.2733 
        2.30712         106.531         10.2065 
        2.31326          105.85         10.1401 
         2.3194         105.282         10.0744 
        2.32553         104.809         10.0094 
        2.33166         104.316         9.94494 
         2.3378         103.835         9.88098 
        2.34394         103.337         9.81757 
        2.35007         102.649         9.75479 
        2.35619         102.157         9.69265 
        2.36233          101.59          9.6309 
        2.36848         100.968         9.56956 
        2.37462         100.616         9.50888 
        2.38075          100.03         9.44879 
        2.38689         99.4928         9.38916 
        2.39303         98.7134         9.33006 
        2.39916         98.4526         9.27153 
        2.40529         98.0495         9.21351 
        2.41143         97.4201         9.15594 
        2.41757         96.9582         9.09883 
         2.4237         96.3366         9.04232 
        2.42983         95.7538         8.98629 
        2.43598         95.2822         8.93059 
        2.44211          95.031         8.87546 
        2.44823         94.5127         8.82091 
        2.45437         93.7761         8.76667 
        2.46052         93.2509         8.71284 
        2.46665         92.8961         8.65956 
        2.47279         92.3761         8.60675 
        2.47892         92.0091         8.55433 
        2.48507         91.4413         8.50231 
         2.4912          91.113         8.45082 
