# k  (h/Mpc)    P(k)  (Mpc/h)^3    P_linear(k)  (Mpc/h)^3
     0.00783031         1637.04         1649.92 
       0.013688         2106.99         2133.53 
       0.019231         2252.97         2266.45 
      0.0249154         2208.41         2209.23 
      0.0312784         2023.99         2030.34 
      0.0375637         1811.72         1821.45 
      0.0433917         1644.04         1644.05 
      0.0492413         1492.44         1498.44 
      0.0555754         1377.86         1376.85 
      0.0619321         1265.06         1280.88 
       0.067871         1195.74         1201.61 
      0.0738098          1118.6          1122.5 
      0.0800417         1033.87         1034.88 
      0.0862327         940.535         944.443 
      0.0921407         856.438         859.902 
      0.0982031         781.472         780.768 
       0.104506         706.627           711.2 
       0.110769         653.277         656.381 
       0.116806         618.475          615.52 
       0.122832         581.362         583.056 
       0.129052         554.793         554.023 
       0.135211         529.609         526.015 
       0.141259         497.703         497.074 
       0.147318           463.5         466.288 
       0.153489         434.557         434.201 
       0.159709         406.822         403.059 
       0.165845         374.121         375.337 
       0.171974         357.533         351.734 
       0.178125         338.635         332.316 
       0.184229         319.625         316.621 
        0.19034         309.497         303.314 
       0.196428         297.351         291.173 
       0.202534         281.256         279.077 
       0.208729         272.107          266.31 
       0.214876         260.934         253.115 
       0.220989         243.677         239.866 
       0.227147         235.675         226.987 
        0.23329         224.932         215.164 
       0.239377         216.002         204.795 
       0.245482         205.636         195.797 
       0.251667         196.686         187.915 
       0.257832         192.644         180.937 
       0.263955         183.517         174.475 
       0.270079         177.248         168.151 
        0.27624         169.635         161.748 
       0.282372         163.959         155.304 
        0.28843         160.826         148.971 
       0.294538         153.685         142.784 
       0.300721         146.749         136.892 
        0.30691         143.434         131.478 
       0.313033          137.76         126.629 
       0.319153         135.114         122.237 
       0.325316         129.338         118.172 
        0.33145         125.358         114.361 
       0.337538         121.825         110.709 
       0.343633         118.426         107.115 
       0.349808         114.606         103.522 
       0.355968          111.15         99.9971 
       0.362074         108.865         96.6114 
       0.368217         105.717         93.3562 
       0.374374         103.456         90.2817 
       0.380519         99.0529         87.4138 
       0.386598         96.4123         84.7614 
       0.392688         93.7611         82.2656 
        0.39888         91.9905         79.8537 
       0.405048         89.8731         77.5443 
       0.411186         87.6868         75.3154 
       0.417313         85.3369         73.1433 
       0.423458         83.0006         71.0219 
       0.429607         81.6093         68.9637 
       0.435692         80.1614         67.0009 
       0.441815         77.2491         65.1103 
       0.447964         75.0753         63.3025 
       0.454126         73.7451         61.5776 
       0.460267         73.1063         59.9392 
       0.466387         71.1094         58.3765 
        0.47254         70.1406         56.8634 
       0.478662         67.9501         55.4063 
       0.484765         66.6526         53.9978 
       0.490885         64.8404         52.6265 
       0.497035         64.0162         51.2892 
       0.503198         62.4647          49.993 
       0.509342         60.9322         48.7468 
       0.515458         60.2273         47.5527 
       0.521598         58.8254         46.3988 
       0.527764           58.09         45.2836 
       0.533884         56.9223         44.2171 
           0.54         55.7667         43.1879 
       0.546137         54.1753         42.1878 
       0.552299         53.3375         41.2133 
       0.558452         52.3147         40.2695 
       0.564573         51.9157         39.3584 
       0.570708         50.4895         38.4726 
       0.576825         49.8766         37.6164 
       0.582926         49.1006         36.7891 
       0.589034         48.1982          35.987 
       0.595184         47.5778         35.2055 
       0.601379         46.3289         34.4434 
       0.607522          45.712         33.7108 
       0.613639         45.0234         33.0027 
       0.619772         44.3013          32.313 
       0.625918         43.4569         31.6414 
       0.632068         43.1221         30.9883 
       0.638161          42.266         30.3594 
         0.6443         41.6808         29.7434 
       0.650464         40.6873         29.1423 
       0.656582         40.4722         28.5624 
       0.662703         40.0454         27.9984 
       0.668861         39.0189         27.4469 
       0.675024         38.6376         26.9103 
       0.681124         38.3309         26.3938 
       0.687237           37.59         25.8901 
       0.693381         36.8923         25.3972 
       0.699536         36.7581         24.9163 
       0.705665         36.0947         24.4498 
       0.711789         35.4846         23.9957 
       0.717957         34.8334         23.5501 
        0.72409         34.5453         23.1184 
       0.730186         34.3833         22.7003 
       0.736317         33.7291         22.2904 
       0.742472         33.3116         21.8894 
       0.748622         32.8112         21.4987 
        0.75476         32.0618         21.1186 
       0.760888         31.9671         20.7483 
       0.767043         31.4638         20.3855 
       0.773185         31.1851         20.0321 
       0.779291          30.876         19.6892 
       0.785407         30.3581         19.3539 
       0.791564         30.2026         19.0243 
       0.797719         29.6036         18.7027 
       0.803834         29.4537         18.3906 
       0.809972         28.9387         18.0846 
       0.816124         28.6508         17.7849 
       0.822261         28.3583          17.493 
       0.828378         28.0689         17.2085 
       0.834502          27.814         16.9302 
       0.840667         27.5318         16.6563 
       0.846816         26.9551         16.3893 
       0.852925         26.9004         16.1299 
       0.859047         26.5933         15.8755 
       0.865192          26.245         15.6259 
       0.871341         25.9183         15.3815 
       0.877463         25.6901         15.1435 
       0.883569         25.5584         14.9111 
       0.889708         25.1662         14.6825 
       0.895864         24.8646         14.4581 
       0.902008         24.5835          14.239 
       0.908149         24.3192         14.0245 
       0.914301           24.21         13.8141 
       0.920448         23.8585         13.6083 
       0.926574         23.6822         13.4074 
       0.932687         23.4016          13.211 
       0.938823         23.1317         13.0179 
       0.944975         22.9453         12.8283 
       0.951105         22.7187         12.6431 
       0.957225            22.6         12.4619 
       0.963368         22.2724         12.2837 
       0.969511         22.0634          12.109 
       0.975621         21.8674         11.9387 
       0.981748         21.6075         11.7712 
       0.987916         21.4765         11.6059 
        0.99406         21.2647         11.4445 
        1.00019         21.0996         11.2864 
        1.00632         20.9214         11.1315 
        1.01246         20.7475         10.9793 
        1.01859         20.5053         10.8302 
        1.02471         20.3013         10.6841 
        1.03085         20.2356         10.5402 
        1.03698          20.048         10.3993 
        1.04314         19.8218         10.2603 
        1.04929         19.5963         10.1243 
        1.05541         19.5367         9.99125 
        1.06154         19.3779         9.86031 
        1.06769         19.2275         9.73153 
        1.07382         18.9463         9.60549 
        1.07993         18.7976         9.48197 
        1.08607         18.7253         9.36014 
        1.09222         18.5086         9.24033 
        1.09836         18.4335         9.12277 
        1.10449         18.2058         9.00741 
        1.11063         18.1315         8.89392 
        1.11677         18.0317         8.78244 
         1.1229         17.8579         8.67307 
        1.12903         17.7423         8.56548 
        1.13518         17.5059         8.45963 
        1.14131          17.437         8.35565 
        1.14745         17.2057         8.25348 
        1.15359         17.0908           8.153 
        1.15973         16.9496         8.05417 
        1.16584         16.8306         7.95743 
        1.17197         16.6947         7.86215 
        1.17811         16.5669         7.76815 
        1.18424         16.4678         7.67596 
        1.19038         16.3837         7.58502 
        1.19652         16.2418         7.49559 
        1.20267         16.1301         7.40761 
        1.20881         15.9727         7.32107 
        1.21495         15.8475         7.23605 
        1.22108         15.8152         7.15241 
         1.2272         15.6756         7.07029 
        1.23334         15.5985         6.98929 
        1.23949          15.456         6.90936 
        1.24562         15.3293         6.83092 
        1.25174         15.2513         6.75382 
        1.25789         15.0902         6.67767 
        1.26402         15.0519         6.60285 
        1.27014         14.9689         6.52936 
        1.27628         14.7832         6.45677 
        1.28244         14.7827         6.38515 
        1.28858         14.6453         6.31472 
        1.29471         14.4611         6.24552 
        1.30084         14.3867         6.17742 
        1.30697         14.3798         6.11024 
        1.31312         14.2207         6.04396 
        1.31925         14.1527         5.97889 
        1.32537         14.0648         5.91483 
        1.33151         13.9648          5.8515 
        1.33765         13.8664         5.78913 
        1.34378         13.8403         5.72779 
        1.34992         13.7094         5.66731 
        1.35606         13.5984         5.60757 
         1.3622         13.5044          5.5488 
        1.36833         13.4545         5.49102 
        1.37445         13.3771         5.43409 
        1.38059          13.307          5.3778 
        1.38675         13.2053         5.32217 
        1.39288         13.0877         5.26756 
        1.39901         13.0371         5.21374 
        1.40515         12.9512         5.16055 
         1.4113         12.8548         5.10813 
        1.41742         12.8093         5.05664 
        1.42355         12.6921         5.00576 
         1.4297         12.6517         4.95544 
        1.43585          12.585         4.90583 
        1.44198         12.5123         4.85709 
        1.44809         12.4427         4.80911 
        1.45423         12.3401          4.7616 
        1.46036         12.2868         4.71483 
        1.46649          12.209         4.66866 
        1.47263         12.1584         4.62308 
        1.47877         12.0776         4.57814 
        1.48491         12.0212         4.53372 
        1.49104         11.9241         4.48999 
        1.49718         11.8934          4.4468 
        1.50333         11.8144         4.40412 
        1.50947         11.7276         4.36208 
         1.5156         11.6991         4.32066 
        1.52172         11.6329         4.27978 
        1.52787         11.5641         4.23935 
          1.534         11.5093         4.19949 
        1.54013         11.4475         4.16018 
        1.54627         11.3759         4.12131 
        1.55241         11.2881         4.08294 
        1.55855         11.2824          4.0451 
        1.56467         11.1929         4.00785 
         1.5708         11.1517         3.97097 
        1.57695         11.0654         3.93449 
        1.58308         11.0007         3.89856 
        1.58922           10.96         3.86306 
        1.59535         10.8924         3.82801 
         1.6015         10.8135         3.79334 
        1.60764         10.7908         3.75913 
        1.61376         10.7531         3.72543 
        1.61989         10.6513         3.69212 
        1.62604         10.6269         3.65914 
        1.63218          10.577         3.62658 
        1.63831          10.519          3.5945 
        1.64444          10.436          3.5628 
        1.65059         10.3912          3.5314 
        1.65673         10.3625         3.50042 
        1.66285         10.3129          3.4699 
        1.66898         10.2534         3.43973 
        1.67512         10.1916         3.40987 
        1.68127         10.1279         3.38033 
         1.6874         10.1061         3.35121 
        1.69353         10.0431         3.32245 
        1.69967         9.99978         3.29396 
        1.70581         9.93096         3.26582 
        1.71193          9.9157         3.23812 
        1.71806         9.87434         3.21067 
        1.72421         9.79701          3.1835 
        1.73035          9.7574         3.15667 
        1.73649         9.72326         3.13015 
        1.74262         9.64203         3.10396 
        1.74876         9.64264         3.07806 
        1.75489         9.58375         3.05251 
        1.76101         9.51757         3.02725 
        1.76715         9.50253         3.00224 
        1.77329         9.46019         2.97749 
        1.77943         9.38638         2.95301 
        1.78557         9.38114         2.92884 
        1.79171         9.33413         2.90494 
        1.79785         9.28943          2.8813 
        1.80399         9.20626         2.85792 
        1.81012         9.19545         2.83484 
        1.81625         9.13473         2.81203 
        1.82239         9.09861         2.78943 
        1.82853         9.05055         2.76709 
        1.83466          8.9978         2.74502 
        1.84078          8.9789         2.72321 
        1.84692         8.94435          2.7016 
        1.85306         8.90726          2.6802 
         1.8592         8.87416         2.65907 
        1.86533         8.84092         2.63818 
        1.87147         8.77953         2.61749 
        1.87761          8.7669         2.59701 
        1.88375         8.71119         2.57678 
        1.88988         8.66669         2.55678 
        1.89601         8.64947         2.53699 
        1.90215         8.58125         2.51739 
        1.90829         8.56967         2.49801 
        1.91442         8.51637         2.47883 
        1.92056         8.50814         2.45987 
         1.9267         8.44604         2.44109 
        1.93284         8.44229         2.42249 
        1.93897         8.38605         2.40412 
        1.94509         8.33514         2.38599 
        1.95123         8.32105         2.36799 
        1.95737         8.28921         2.35017 
        1.96349         8.22228         2.33258 
        1.96964         8.20561         2.31512 
        1.97578         8.17314         2.29783 
        1.98192         8.13077         2.28075 
        1.98805          8.1069         2.26384 
        1.99419         8.08583          2.2471 
        2.00033         8.03055         2.23053 
        2.00647         8.01949         2.21413 
         2.0126         7.97951         2.19792 
        2.01874         7.94735         2.18184 
        2.02488         7.91548         2.16592 
        2.03101          7.8647         2.15018 
        2.03714         7.83561         2.13462 
        2.04328         7.81521         2.11919 
        2.04941         7.77291         2.10393 
        2.05554         7.75926         2.08883 
        2.06167         7.72113         2.07386 
        2.06781         7.68846         2.05903 
        2.07396         7.65793         2.04432 
        2.08009         7.63119         2.02979 
        2.08622          7.6083         2.01541 
        2.09237         7.59096         2.00115 
        2.09851         7.52988         1.98702 
        2.10464         7.51512         1.97305 
        2.11077         7.48698         1.95923 
        2.11691         7.47746         1.94551 
        2.12305         7.42944         1.93193 
        2.12918         7.40568          1.9185 
        2.13531         7.37229         1.90521 
        2.14145         7.35293         1.89201 
         2.1476          7.3186         1.87892 
        2.15372         7.29052         1.86601 
        2.15985         7.27128         1.85322 
        2.16599         7.24143         1.84051 
        2.17213         7.22965         1.82794 
        2.17827           7.177         1.81548 
         2.1844          7.1556         1.80315 
        2.19054           7.133         1.79093 
        2.19666         7.10839         1.77885 
         2.2028         7.06771         1.76686 
        2.20893         7.05991         1.75498 
        2.21508         7.03854         1.74319 
        2.22122         6.98143         1.73151 
        2.22736         6.97679         1.71996 
        2.23349         6.94824         1.70852 
        2.23962         6.93187         1.69718 
        2.24577         6.88792         1.68593 
         2.2519         6.88124          1.6748 
        2.25802         6.83465         1.66379 
        2.26417         6.82193         1.65284 
        2.27031         6.79265         1.64198 
        2.27644         6.76636         1.63126 
        2.28257         6.74546         1.62063 
        2.28872         6.73171         1.61007 
        2.29486         6.70274         1.59961 
        2.30099         6.67256         1.58926 
        2.30712         6.65303         1.57901 
        2.31326           6.627         1.56882 
         2.3194         6.60246         1.55873 
        2.32553         6.57198         1.54875 
        2.33166         6.55714         1.53886 
         2.3378         6.53538         1.52904 
        2.34394         6.51284          1.5193 
        2.35007         6.47787         1.50967 
        2.35619         6.47293         1.50012 
        2.36233         6.43502         1.49064 
        2.36848         6.42571         1.48122 
        2.37462          6.3992         1.47191 
        2.38075         6.38593         1.46268 
        2.38689         6.36114         1.45352 
        2.39303         6.33155         1.44444 
        2.39916         6.31532         1.43545 
        2.40529         6.28802         1.42654 
        2.41143         6.27495          1.4177 
        2.41757         6.25782         1.40893 
         2.4237         6.22611         1.40024 
        2.42983         6.21812         1.39164 
        2.43598         6.19898         1.38308 
        2.44211         6.17294         1.37461 
        2.44823         6.13848         1.36622 
        2.45437         6.12455         1.35789 
        2.46052         6.10734         1.34962 
        2.46665         6.09518         1.34143 
        2.47279         6.05232         1.33331 
        2.47892         6.04086         1.32525 
        2.48507         6.03113         1.31726 
         2.4912         6.00577         1.30934 
