# k  (h/Mpc)    P(k)  (Mpc/h)^3    P_linear(k)  (Mpc/h)^3
     0.00783031         11499.6         11539.7 
       0.013688         14559.1         14910.5 
       0.019231         15602.2         15832.6 
      0.0249154           15404         15428.7 
      0.0312784           13972         14176.5 
      0.0375637         12422.2         12716.2 
      0.0433917         11324.5         11476.6 
      0.0492413         10215.8         10459.5 
      0.0555754         9438.57         9610.15 
      0.0619321         8508.77         8939.95 
       0.067871         8091.21          8386.4 
      0.0738098         7608.56            7834 
      0.0800417         7020.12         7222.36 
      0.0862327         6376.83         6591.06 
      0.0921407         5830.28         6000.97 
      0.0982031         5364.79         5448.64 
       0.104506         4831.09          4963.1 
       0.110769         4484.47         4580.49 
       0.116806          4288.3         4295.31 
       0.122832         4020.91         4068.74 
       0.129052            3819         3866.11 
       0.135211         3699.61         3670.64 
       0.141259         3449.26         3468.66 
       0.147318         3205.25         3253.81 
       0.153489          3036.6         3029.89 
       0.159709         2915.51         2812.57 
       0.165845         2665.61         2619.12 
       0.171974         2596.32          2454.4 
       0.178125         2508.99          2318.9 
       0.184229         2318.27         2209.38 
        0.19034          2283.6         2116.51 
       0.196428         2220.25         2031.79 
       0.202534         2092.89         1947.38 
       0.208729         2052.62         1858.29 
       0.214876         1970.02         1766.21 
       0.220989         1870.32         1673.76 
       0.227147         1824.05         1583.89 
        0.23329         1755.22         1501.38 
       0.239377         1740.98         1429.03 
       0.245482         1660.62         1366.24 
       0.251667         1600.28         1311.24 
       0.257832         1578.94         1262.55 
       0.263955         1509.33         1217.45 
       0.270079         1472.78         1173.33 
        0.27624         1412.65         1128.65 
       0.282372         1396.26         1083.68 
        0.28843         1376.07         1039.49 
       0.294538         1313.61         996.314 
       0.300721         1287.59         955.206 
        0.30691          1260.3         917.426 
       0.313033         1213.64         883.587 
       0.319153         1200.39         852.944 
       0.325316         1185.85         824.574 
        0.33145         1163.03         797.984 
       0.337538         1125.81         772.504 
       0.343633         1099.76         747.425 
       0.349808         1079.46         722.348 
       0.355968          1059.4         697.755 
       0.362074         1029.21          674.13 
       0.368217         1025.98         651.416 
       0.374374         1010.92         629.963 
       0.380519         976.562         609.951 
       0.386598         971.489         591.443 
       0.392688         949.872         574.028 
        0.39888         928.584         557.198 
       0.405048         913.477         541.084 
       0.411186         909.969          525.53 
       0.417313          907.62         510.374 
       0.423458         878.954         495.571 
       0.429607         855.526          481.21 
       0.435692         849.007         467.514 
       0.441815         833.838         454.322 
       0.447964         824.153         441.707 
       0.454126         813.328         429.671 
       0.460267         803.105         418.239 
       0.466387         791.867         407.334 
        0.47254         777.478         396.777 
       0.478662         767.856          386.61 
       0.484765         761.244         376.781 
       0.490885         752.345         367.213 
       0.497035         739.751         357.881 
       0.503198         738.983         348.836 
       0.509342         725.125         340.141 
       0.515458         711.484         331.809 
       0.521598         707.869         323.758 
       0.527764         693.073         315.975 
       0.533884         688.137         308.534 
           0.54         681.856         301.353 
       0.546137         672.366         294.374 
       0.552299         669.197         287.574 
       0.558452         661.795         280.988 
       0.564573         655.057         274.631 
       0.570708         650.124          268.45 
       0.576825         637.148         262.476 
       0.582926         635.139         256.703 
       0.589034         627.013         251.107 
       0.595184         621.032         245.653 
       0.601379         611.682         240.336 
       0.607522         603.269         235.224 
       0.613639         602.112         230.283 
       0.619772          598.55          225.47 
       0.625918         588.834         220.784 
       0.632068          585.04         216.227 
       0.638161         578.407         211.838 
         0.6443         573.143          207.54 
       0.650464         568.308         203.346 
       0.656582         563.873           199.3 
       0.662703         557.644         195.364 
       0.668861         551.945         191.516 
       0.675024         548.067         187.772 
       0.681124         540.444         184.168 
       0.687237         539.188         180.653 
       0.693381          531.31         177.214 
       0.699536         529.452         173.858 
       0.705665         524.127         170.603 
       0.711789         522.881         167.435 
       0.717957          515.08         164.325 
        0.72409         510.751         161.313 
       0.730186         511.418         158.395 
       0.736317         503.595         155.535 
       0.742472         497.986         152.737 
       0.748622         495.259         150.011 
        0.75476         491.215         147.359 
       0.760888         488.211         144.775 
       0.767043         485.479         142.243 
       0.773185         482.527         139.778 
       0.779291         476.077         137.385 
       0.785407         473.495         135.045 
       0.791564         469.901         132.746 
       0.797719         463.518         130.501 
       0.803834         465.659         128.324 
       0.809972         458.841         126.188 
       0.816124         454.893         124.098 
       0.822261         451.745          122.06 
       0.828378         449.769         120.075 
       0.834502         443.176         118.133 
       0.840667         443.184         116.222 
       0.846816         437.091         114.359 
       0.852925         437.123         112.549 
       0.859047         433.145         110.774 
       0.865192         431.092         109.032 
       0.871341         425.291         107.327 
       0.877463         423.027         105.666 
       0.883569         419.566         104.045 
       0.889708         415.945          102.45 
       0.895864         412.849         100.884 
       0.902008         411.391         99.3548 
       0.908149         408.065         97.8583 
       0.914301         406.296         96.3904 
       0.920448         402.447         94.9542 
       0.926574         400.422         93.5525 
       0.932687          398.27         92.1823 
       0.938823         393.766         90.8349 
       0.944975         392.369         89.5115 
       0.951105         389.444         88.2194 
       0.957225         384.098         86.9553 
       0.963368         385.124         85.7118 
       0.969511         378.378         84.4928 
       0.975621         378.775         83.3042 
       0.981748         375.998         82.1357 
       0.987916         373.837         80.9823 
        0.99406         370.596         79.8557 
        1.00019          366.89         78.7529 
        1.00632         366.943          77.672 
        1.01246         363.896           76.61 
        1.01859         359.743         75.5697 
        1.02471         357.708         74.5502 
        1.03085         356.887         73.5461 
        1.03698         354.388         72.5627 
        1.04314         353.217         71.5932 
        1.04929          350.48         70.6439 
        1.05541         346.109         69.7157 
        1.06154          345.32          68.802 
        1.06769         341.798         67.9034 
        1.07382         340.925         67.0239 
        1.07993         338.257         66.1621 
        1.08607         336.031         65.3119 
        1.09222         333.862          64.476 
        1.09836         332.438         63.6557 
        1.10449         330.129         62.8507 
        1.11063         327.266         62.0588 
        1.11677         324.372         61.2809 
         1.1229         323.709         60.5178 
        1.12903         321.543         59.7671 
        1.13518         319.038         59.0285 
        1.14131         318.308         58.3029 
        1.14745         314.038           57.59 
        1.15359          312.12         56.8889 
        1.15973         311.148         56.1993 
        1.16584         309.613         55.5243 
        1.17197          307.16         54.8595 
        1.17811          304.45         54.2035 
        1.18424          302.95         53.5603 
        1.19038         301.348         52.9257 
        1.19652         298.209         52.3017 
        1.20267         297.879         51.6878 
        1.20881         295.732         51.0839 
        1.21495         294.194         50.4907 
        1.22108         292.294         49.9071 
         1.2272         288.697         49.3341 
        1.23334         287.921         48.7689 
        1.23949         286.729         48.2112 
        1.24562         285.033         47.6638 
        1.25174         282.868         47.1259 
        1.25789         280.638         46.5946 
        1.26402         280.333         46.0725 
        1.27014         278.787         45.5597 
        1.27628         275.686         45.0532 
        1.28244         274.793         44.5535 
        1.28858         273.021          44.062 
        1.29471         271.725         43.5791 
        1.30084         270.327         43.1039 
        1.30697         267.468         42.6352 
        1.31312         265.851         42.1727 
        1.31925         264.727         41.7186 
        1.32537         263.594         41.2717 
        1.33151         261.401         40.8298 
        1.33765         259.723         40.3946 
        1.34378         258.081         39.9666 
        1.34992         256.141         39.5446 
        1.35606          255.25         39.1277 
         1.3622         253.619         38.7177 
        1.36833         251.849         38.3145 
        1.37445         251.041         37.9173 
        1.38059         248.779         37.5245 
        1.38675         247.268         37.1363 
        1.39288         246.251         36.7552 
        1.39901         244.198         36.3797 
        1.40515         243.212         36.0086 
         1.4113         241.295         35.6428 
        1.41742         239.171         35.2835 
        1.42355         239.767         34.9285 
         1.4297         237.347         34.5774 
        1.43585         235.599         34.2312 
        1.44198             234         33.8911 
        1.44809         233.151         33.5563 
        1.45423         231.852         33.2248 
        1.46036         230.375         32.8984 
        1.46649         229.304         32.5763 
        1.47263           227.8         32.2583 
        1.47877         226.272         31.9447 
        1.48491         224.431         31.6347 
        1.49104         222.926         31.3296 
        1.49718         221.935         31.0282 
        1.50333         220.182         30.7304 
        1.50947         219.539         30.4371 
         1.5156         218.174         30.1481 
        1.52172          216.72         29.8628 
        1.52787         215.396         29.5807 
          1.534         214.753         29.3026 
        1.54013         213.165         29.0283 
        1.54627         212.074         28.7571 
        1.55241         210.764         28.4893 
        1.55855         209.907         28.2253 
        1.56467          208.26         27.9654 
         1.5708         206.776         27.7081 
        1.57695         205.926         27.4535 
        1.58308         204.489         27.2028 
        1.58922         203.377         26.9551 
        1.59535         201.685         26.7105 
         1.6015         200.975         26.4686 
        1.60764         199.826         26.2299 
        1.61376         198.097         25.9947 
        1.61989          196.95         25.7623 
        1.62604         195.769         25.5322 
        1.63218         194.931         25.3051 
        1.63831         194.234         25.0812 
        1.64444         192.555           24.86 
        1.65059         191.826         24.6409 
        1.65673          190.23         24.4247 
        1.66285         189.449         24.2118 
        1.66898         188.336         24.0013 
        1.67512          187.14         23.7929 
        1.68127         186.156         23.5868 
         1.6874         185.033         23.3836 
        1.69353         184.184         23.1829 
        1.69967         182.708         22.9841 
        1.70581         182.182         22.7878 
        1.71193         180.657         22.5945 
        1.71806         179.622          22.403 
        1.72421         178.809         22.2133 
        1.73035         177.514         22.0261 
        1.73649         176.355         21.8411 
        1.74262         175.619         21.6584 
        1.74876         174.748         21.4776 
        1.75489         173.793         21.2993 
        1.76101         172.404         21.1231 
        1.76715         171.484         20.9486 
        1.77329         170.488         20.7759 
        1.77943         169.262         20.6051 
        1.78557         168.802         20.4364 
        1.79171         167.791         20.2696 
        1.79785         166.729         20.1047 
        1.80399         165.641         19.9416 
        1.81012         164.533         19.7805 
        1.81625         163.908         19.6213 
        1.82239         162.618         19.4637 
        1.82853         162.106         19.3078 
        1.83466         160.689         19.1538 
        1.84078         160.255         19.0016 
        1.84692         159.342         18.8508 
        1.85306         158.075         18.7015 
         1.8592         157.621         18.5541 
        1.86533         156.056         18.4083 
        1.87147         155.584         18.2639 
        1.87761         154.529         18.1211 
        1.88375          153.37         17.9799 
        1.88988         152.908         17.8403 
        1.89601         152.471         17.7022 
        1.90215         151.561         17.5655 
        1.90829         150.146         17.4302 
        1.91442          149.38         17.2964 
        1.92056         148.378         17.1641 
         1.9267         147.741          17.033 
        1.93284         146.882         16.9033 
        1.93897         145.939         16.7751 
        1.94509         145.142         16.6486 
        1.95123         144.427          16.523 
        1.95737         143.751         16.3987 
        1.96349         142.747         16.2759 
        1.96964         142.057         16.1541 
        1.97578         141.141         16.0334 
        1.98192         140.405         15.9142 
        1.98805         139.703         15.7963 
        1.99419          138.51         15.6795 
        2.00033          138.13         15.5638 
        2.00647         137.441         15.4494 
         2.0126         136.517         15.3363 
        2.01874         135.781         15.2241 
        2.02488         134.997          15.113 
        2.03101         134.472         15.0032 
        2.03714         133.406         14.8946 
        2.04328         132.773          14.787 
        2.04941         132.387         14.6805 
        2.05554         131.634         14.5751 
        2.06167         130.574         14.4706 
        2.06781         129.781         14.3672 
        2.07396         129.337         14.2646 
        2.08009         128.522         14.1632 
        2.08622         127.696         14.0628 
        2.09237         126.771         13.9633 
        2.09851         126.486         13.8647 
        2.10464         125.631         13.7672 
        2.11077         124.976         13.6708 
        2.11691          124.35         13.5751 
        2.12305         123.712         13.4803 
        2.12918          122.89         13.3866 
        2.13531         122.319         13.2939 
        2.14145         121.599         13.2018 
         2.1476         120.798         13.1104 
        2.15372          120.18         13.0204 
        2.15985          119.43         12.9311 
        2.16599         118.737         12.8424 
        2.17213         118.246         12.7547 
        2.17827         117.446         12.6678 
         2.1844          117.16         12.5818 
        2.19054         116.132         12.4965 
        2.19666          115.52         12.4122 
         2.2028         115.063         12.3285 
        2.20893         114.601         12.2456 
        2.21508         113.488         12.1634 
        2.22122         113.184         12.0819 
        2.22736         112.619         12.0013 
        2.23349         111.993         11.9215 
        2.23962         111.379         11.8423 
        2.24577         110.801         11.7638 
         2.2519         109.935         11.6862 
        2.25802         109.525         11.6093 
        2.26417         108.821         11.5329 
        2.27031         108.195         11.4572 
        2.27644          107.85         11.3823 
        2.28257          107.29         11.3081 
        2.28872         106.685         11.2345 
        2.29486         106.299         11.1615 
        2.30099         105.339         11.0893 
        2.30712         105.074         11.0177 
        2.31326         104.429         10.9467 
         2.3194          103.81         10.8763 
        2.32553         103.114         10.8066 
        2.33166          102.78         10.7376 
         2.3378          102.35         10.6691 
        2.34394          101.51         10.6012 
        2.35007         100.789         10.5339 
        2.35619         100.413         10.4673 
        2.36233         99.9915         10.4012 
        2.36848         99.2819         10.3355 
        2.37462         98.9101         10.2704 
        2.38075         98.3496          10.206 
        2.38689         97.9247         10.1422 
        2.39303         97.4125         10.0788 
        2.39916         96.9235         10.0161 
        2.40529          96.389          9.9539 
        2.41143         95.8902         9.89219 
        2.41757         95.2547         9.83098 
         2.4237         94.7604          9.7704 
        2.42983         94.2086         9.71034 
        2.43598         94.0101         9.65063 
        2.44211         93.3695         9.59151 
        2.44823          92.752         9.53302 
        2.45437          92.439         9.47487 
        2.46052         91.8332         9.41714 
        2.46665         91.3455            9.36 
        2.47279          91.004         9.30336 
        2.47892         90.4913         9.24715 
        2.48507          90.145         9.19135 
         2.4912         89.3966         9.13611 
