# k  (h/Mpc)    P(k)  (Mpc/h)^3    P_linear(k)  (Mpc/h)^3
     0.00783031         11816.8         11855.9 
       0.013688         14954.6         15318.8 
       0.019231         16026.2         16266.1 
      0.0249154         15824.6         15851.1 
      0.0312784         14349.6         14564.6 
      0.0375637         12755.9         13064.3 
      0.0433917         11629.3         11790.7 
      0.0492413         10489.5         10745.7 
      0.0555754          9690.8         9873.14 
      0.0619321         8733.11         9184.59 
       0.067871         8304.95         8615.88 
      0.0738098         7810.78         8048.37 
      0.0800417         7205.91         7419.98 
      0.0862327         6545.77         6771.41 
      0.0921407         5985.59         6165.17 
      0.0982031         5508.78         5597.73 
       0.104506         4960.74          5098.9 
       0.110769         4605.32         4705.82 
       0.116806         4404.25         4412.83 
       0.122832         4130.26         4180.06 
       0.129052         3921.88         3971.89 
       0.135211         3800.44         3771.07 
       0.141259         3542.83         3563.57 
       0.147318         3292.93         3342.84 
       0.153489         3120.29         3112.79 
       0.159709         2997.47         2889.52 
       0.165845         2740.92         2690.77 
       0.171974         2669.72         2521.55 
       0.178125         2581.25         2382.35 
       0.184229         2384.45         2269.82 
        0.19034         2349.59         2174.42 
       0.196428         2284.96         2087.38 
       0.202534          2154.7         2000.66 
       0.208729         2113.03         1909.13 
       0.214876         2027.97         1814.53 
       0.220989         1926.93         1719.55 
       0.227147         1878.98         1627.22 
        0.23329         1808.11         1542.46 
       0.239377         1794.41         1468.13 
       0.245482         1712.15         1403.62 
       0.251667         1650.06         1347.12 
       0.257832          1627.7         1297.09 
       0.263955         1556.75         1250.76 
       0.270079         1519.73         1205.43 
        0.27624         1457.66         1159.53 
       0.282372         1441.42         1113.33 
        0.28843          1419.8         1067.93 
       0.294538         1356.05         1023.57 
       0.300721         1329.95         981.339 
        0.30691         1301.18         942.526 
       0.313033         1253.55         907.761 
       0.319153         1240.26          876.28 
       0.325316          1225.4         847.134 
        0.33145         1201.79         819.816 
       0.337538         1163.74         793.639 
       0.343633         1137.17         767.874 
       0.349808         1116.65         742.111 
       0.355968         1095.66         716.845 
       0.362074         1064.85         692.574 
       0.368217         1061.61         669.238 
       0.374374         1046.03         647.198 
       0.380519         1010.86         626.638 
       0.386598         1006.06         607.625 
       0.392688         983.259         589.733 
        0.39888         961.827         572.442 
       0.405048          946.03         555.887 
       0.411186         942.268         539.908 
       0.417313         940.286         524.338 
       0.423458         910.653         509.129 
       0.429607         886.427         494.375 
       0.435692         880.007         480.305 
       0.441815         864.126         466.751 
       0.447964         854.607         453.792 
       0.454126         843.245         441.426 
       0.460267         832.967         429.681 
       0.466387         821.229         418.479 
        0.47254         806.217         407.632 
       0.478662         796.699         397.187 
       0.484765         789.827         387.089 
       0.490885         780.525         377.259 
       0.497035         767.605         367.672 
       0.503198         766.775          358.38 
       0.509342         752.598         349.447 
       0.515458         738.318         340.887 
       0.521598         735.229         332.615 
       0.527764         719.546          324.62 
       0.533884          714.13         316.975 
           0.54         707.917         309.597 
       0.546137         698.406         302.427 
       0.552299         694.797         295.442 
       0.558452         687.384         288.676 
       0.564573         680.628         282.144 
       0.570708         675.396         275.794 
       0.576825         661.849         269.657 
       0.582926         659.984         263.726 
       0.589034         651.704         257.976 
       0.595184         645.271         252.374 
       0.601379         635.551         246.911 
       0.607522         627.024         241.659 
       0.613639         625.964         236.583 
       0.619772         622.005         231.639 
       0.625918         612.158         226.824 
       0.632068         608.315         222.142 
       0.638161         601.201         217.634 
         0.6443         595.795         213.218 
       0.650464         590.986         208.909 
       0.656582         586.434         204.752 
       0.662703         579.677         200.709 
       0.668861         573.954         196.756 
       0.675024         570.014         192.909 
       0.681124         561.805         189.206 
       0.687237         560.861         185.595 
       0.693381         552.382         182.062 
       0.699536          550.89         178.615 
       0.705665         545.232         175.271 
       0.711789         543.879         172.015 
       0.717957         535.939         168.821 
        0.72409         531.452         165.726 
       0.730186          531.73         162.729 
       0.736317         523.923         159.791 
       0.742472         517.971         156.916 
       0.748622         515.417         154.115 
        0.75476          510.87          151.39 
       0.760888         507.925         148.736 
       0.767043          505.27         146.135 
       0.773185         502.114         143.602 
       0.779291         495.545         141.144 
       0.785407         492.693          138.74 
       0.791564         489.107         136.378 
       0.797719          482.48         134.072 
       0.803834         484.412         131.834 
       0.809972         477.421         129.641 
       0.816124         473.471         127.493 
       0.822261         470.354           125.4 
       0.828378         468.167         123.361 
       0.834502         461.301         121.365 
       0.840667         461.246         119.402 
       0.846816         455.213         117.488 
       0.852925         455.085         115.628 
       0.859047         450.956         113.805 
       0.865192          448.68         112.015 
       0.871341         442.741         110.263 
       0.877463         440.727         108.557 
       0.883569         436.832         106.892 
       0.889708         432.992         105.253 
       0.895864         429.682         103.644 
       0.902008         428.366         102.073 
       0.908149         424.869         100.536 
       0.914301         423.128         99.0275 
       0.920448         418.843          97.552 
       0.926574         416.827         96.1119 
       0.932687         414.809         94.7043 
       0.938823         409.953           93.32 
       0.944975         408.443         91.9604 
       0.951105         405.501          90.633 
       0.957225         399.809         89.3342 
       0.963368         400.968         88.0567 
       0.969511         394.047         86.8044 
       0.975621         394.364         85.5833 
       0.981748         391.515         84.3828 
       0.987916         389.247         83.1979 
        0.99406          385.86         82.0404 
        1.00019         381.956         80.9074 
        1.00632          381.91          79.797 
        1.01246         378.765         78.7059 
        1.01859         374.599         77.6372 
        1.02471         372.556         76.5898 
        1.03085         371.488         75.5582 
        1.03698         369.021         74.5479 
        1.04314         367.546         73.5519 
        1.04929         364.857         72.5766 
        1.05541         360.161          71.623 
        1.06154         359.499         70.6843 
        1.06769         355.839         69.7611 
        1.07382         354.707         68.8576 
        1.07993         352.256         67.9722 
        1.08607         349.942         67.0988 
        1.09222         347.491         66.2399 
        1.09836         345.965         65.3972 
        1.10449         343.564         64.5702 
        1.11063         340.765         63.7567 
        1.11677         337.527         62.9575 
         1.1229         336.978         62.1735 
        1.12903         334.545         61.4022 
        1.13518         332.066         60.6434 
        1.14131         331.226          59.898 
        1.14745         326.839         59.1656 
        1.15359         324.833         58.4453 
        1.15973         323.816         57.7368 
        1.16584         322.182         57.0434 
        1.17197         319.639         56.3603 
        1.17811         316.733         55.6865 
        1.18424         315.276         55.0256 
        1.19038         313.565         54.3737 
        1.19652         310.357         53.7326 
        1.20267         309.939         53.1019 
        1.20881         307.853         52.4815 
        1.21495         305.909         51.8721 
        1.22108         304.111         51.2725 
         1.2272         300.226         50.6838 
        1.23334         299.468         50.1031 
        1.23949         298.113         49.5302 
        1.24562         296.607         48.9679 
        1.25174         294.182         48.4151 
        1.25789         291.932         47.8693 
        1.26402         291.479         47.3329 
        1.27014         289.904         46.8061 
        1.27628         286.766         46.2858 
        1.28244         285.696         45.7724 
        1.28858         283.951         45.2675 
        1.29471         282.553         44.7714 
        1.30084         281.174         44.2832 
        1.30697         278.185         43.8016 
        1.31312         276.435         43.3265 
        1.31925         275.335           42.86 
        1.32537         274.065         42.4008 
        1.33151          271.74         41.9468 
        1.33765         269.989         41.4997 
        1.34378         268.271           41.06 
        1.34992         266.173         40.6264 
        1.35606         265.261         40.1982 
         1.3622         263.646         39.7769 
        1.36833         261.953         39.3627 
        1.37445         260.957         38.9546 
        1.38059         258.504         38.5511 
        1.38675         257.036         38.1523 
        1.39288         256.058         37.7608 
        1.39901         253.779          37.375 
        1.40515          252.74         36.9937 
         1.4113         250.784         36.6179 
        1.41742         248.523         36.2488 
        1.42355         249.078         35.8841 
         1.4297         246.612         35.5234 
        1.43585         244.657         35.1677 
        1.44198         243.201         34.8183 
        1.44809         242.277         34.4744 
        1.45423          240.83         34.1338 
        1.46036         239.356         33.7985 
        1.46649         238.244         33.4676 
        1.47263         236.472         33.1408 
        1.47877         234.988         32.8186 
        1.48491         233.131         32.5002 
        1.49104          231.62         32.1867 
        1.49718         230.581         31.8771 
        1.50333         228.644         31.5712 
        1.50947         228.013         31.2698 
         1.5156         226.537         30.9729 
        1.52172         225.016         30.6798 
        1.52787         223.612           30.39 
          1.534         223.081         30.1043 
        1.54013         221.299         29.8225 
        1.54627         220.202         29.5439 
        1.55241          218.79         29.2688 
        1.55855         217.874         28.9975 
        1.56467         216.239         28.7305 
         1.5708         214.785         28.4661 
        1.57695         213.782         28.2046 
        1.58308         212.368         27.9471 
        1.58922         211.084         27.6925 
        1.59535         209.393         27.4413 
         1.6015         208.674         27.1928 
        1.60764         207.399         26.9475 
        1.61376         205.597         26.7059 
        1.61989         204.371         26.4671 
        1.62604         203.195         26.2307 
        1.63218         202.253         25.9974 
        1.63831         201.644         25.7674 
        1.64444         199.817         25.5401 
        1.65059          199.09         25.3151 
        1.65673         197.405          25.093 
        1.66285         196.586         24.8742 
        1.66898         195.466         24.6579 
        1.67512         194.163         24.4438 
        1.68127         193.188         24.2321 
         1.6874         191.974         24.0233 
        1.69353         191.057         23.8172 
        1.69967         189.573         23.6129 
        1.70581         188.967         23.4112 
        1.71193         187.446         23.2126 
        1.71806         186.347         23.0159 
        1.72421         185.484         22.8211 
        1.73035         184.093         22.6287 
        1.73649         182.911         22.4387 
        1.74262         182.149         22.2509 
        1.74876         181.241         22.0652 
        1.75489         180.284          21.882 
        1.76101         178.893          21.701 
        1.76715         177.887         21.5217 
        1.77329         176.739         21.3443 
        1.77943          175.58         21.1688 
        1.78557         175.054         20.9955 
        1.79171         174.048         20.8242 
        1.79785         172.943         20.6547 
        1.80399         171.793         20.4872 
        1.81012         170.732         20.3217 
        1.81625         169.887         20.1582 
        1.82239         168.667         19.9962 
        1.82853         168.123          19.836 
        1.83466          166.62         19.6778 
        1.84078         166.157         19.5215 
        1.84692         165.144         19.3666 
        1.85306         163.887         19.2132 
         1.8592         163.423         19.0617 
        1.86533         161.773         18.9119 
        1.87147         161.238         18.7636 
        1.87761         160.266         18.6168 
        1.88375         158.968         18.4718 
        1.88988         158.519         18.3284 
        1.89601         158.092         18.1865 
        1.90215         157.055          18.046 
        1.90829         155.645         17.9071 
        1.91442         154.914         17.7696 
        1.92056         153.816         17.6337 
         1.9267         153.226          17.499 
        1.93284         152.243         17.3657 
        1.93897         151.293         17.2341 
        1.94509         150.458         17.1041 
        1.95123         149.716         16.9751 
        1.95737         149.022         16.8473 
        1.96349         147.964         16.7212 
        1.96964         147.259          16.596 
        1.97578         146.263         16.4721 
        1.98192         145.501         16.3496 
        1.98805         144.788         16.2284 
        1.99419         143.522         16.1085 
        2.00033         143.156         15.9896 
        2.00647         142.396         15.8721 
         2.0126         141.454         15.7559 
        2.01874         140.654         15.6407 
        2.02488          139.95         15.5265 
        2.03101         139.405         15.4137 
        2.03714         138.284         15.3021 
        2.04328         137.545         15.1915 
        2.04941         137.218         15.0821 
        2.05554         136.387         14.9739 
        2.06167         135.318         14.8665 
        2.06781          134.51         14.7602 
        2.07396         133.971         14.6548 
        2.08009         133.235         14.5506 
        2.08622         132.287         14.4476 
        2.09237         131.364         14.3453 
        2.09851         131.053          14.244 
        2.10464         130.184         14.1439 
        2.11077         129.499         14.0448 
        2.11691         128.868         13.9465 
        2.12305         128.198         13.8491 
        2.12918         127.312         13.7529 
        2.13531         126.653         13.6576 
        2.14145         126.003         13.5629 
         2.1476         125.179         13.4691 
        2.15372         124.528         13.3766 
        2.15985         123.721         13.2849 
        2.16599         123.064         13.1938 
        2.17213          122.51         13.1036 
        2.17827          121.72         13.0144 
         2.1844         121.335          12.926 
        2.19054         120.296         12.8384 
        2.19666         119.694         12.7517 
         2.2028         119.202         12.6658 
        2.20893          118.72         12.5807 
        2.21508          117.53         12.4962 
        2.22122         117.205         12.4124 
        2.22736         116.657         12.3296 
        2.23349         116.044         12.2476 
        2.23962         115.371         12.1663 
        2.24577         114.797         12.0857 
         2.2519         113.883         12.0059 
        2.25802         113.469         11.9269 
        2.26417         112.704         11.8485 
        2.27031         112.105         11.7706 
        2.27644         111.739         11.6937 
        2.28257         111.162         11.6175 
        2.28872         110.492         11.5418 
        2.29486         110.046         11.4669 
        2.30099         109.144         11.3927 
        2.30712         108.825         11.3192 
        2.31326         108.141         11.2462 
         2.3194         107.559         11.1738 
        2.32553         106.808         11.1023 
        2.33166         106.546         11.0314 
         2.3378         105.966          10.961 
        2.34394         105.103         10.8912 
        2.35007         104.454         10.8221 
        2.35619         104.007         10.7537 
        2.36233         103.578         10.6857 
        2.36848         102.815         10.6182 
        2.37462         102.493         10.5514 
        2.38075         101.907         10.4853 
        2.38689         101.417         10.4196 
        2.39303         100.869         10.3546 
        2.39916         100.405         10.2901 
        2.40529         99.8525         10.2262 
        2.41143         99.2534         10.1628 
        2.41757         98.6098         10.0999 
         2.4237         98.1528         10.0377 
        2.42983         97.5353           9.976 
        2.43598         97.3311         9.91465 
        2.44211          96.714         9.85392 
        2.44823         96.0435         9.79383 
        2.45437         95.7105         9.73408 
        2.46052         95.0575         9.67478 
        2.46665         94.5898         9.61608 
        2.47279         94.2154         9.55789 
        2.47892         93.6993         9.50013 
        2.48507         93.3467         9.44281 
         2.4912         92.5871         9.38606 
