# k  (h/Mpc)    P(k)  (Mpc/h)^3    P_linear(k)  (Mpc/h)^3
     0.00783031         924.044         935.581 
       0.013688         1045.86         1049.26 
       0.019231          965.89         966.046 
      0.0249154         800.334         803.186 
      0.0312784         615.407         614.053 
      0.0375637         469.756          467.18 
      0.0433917         378.002         376.964 
      0.0492413         325.321         323.989 
      0.0555754         294.015         294.552 
      0.0619321         279.439         278.136 
       0.067871         262.039         262.741 
      0.0738098          240.22         240.877 
      0.0800417         209.732         210.515 
      0.0862327         177.519         177.304 
      0.0921407         148.902         148.243 
      0.0982031         125.395         124.997 
       0.104506         110.426         109.204 
       0.110769         101.828         100.871 
       0.116806         97.7754         97.4111 
       0.122832         96.1861         95.6584 
       0.129052         92.9721         93.0045 
       0.135211         87.9041         87.9326 
       0.141259         80.8557         80.4719 
       0.147318         72.3173         71.6128 
       0.153489         63.3743         62.7581 
       0.159709         56.0985         55.3586 
       0.165845         51.2322         50.1992 
       0.171974         47.7392         47.1144 
       0.178125         46.2533         45.5501 
       0.184229          45.382         44.7276 
        0.19034          44.116         43.8411 
       0.196428         42.8066         42.3325 
       0.202534         40.7594         40.0053 
       0.208729         37.6215         37.0094 
       0.214876         34.3837         33.8395 
       0.220989         31.6891         30.9427 
       0.227147         29.2066         28.5918 
        0.23329         27.5263         26.9161 
       0.239377         26.5057         25.8347 
       0.245482         25.5732         25.1261 
       0.251667         25.1643         24.5353 
       0.257832         24.3995         23.8526 
       0.263955         23.5297         22.9562 
       0.270079         22.3998         21.8309 
        0.27624         21.2628         20.5622 
       0.282372          20.043         19.2961 
        0.28843         18.8235         18.1654 
       0.294538         17.8772         17.2211 
       0.300721         17.2338         16.4799 
        0.30691         16.5472         15.9175 
       0.313033         16.0786         15.4646 
       0.319153         15.5053           15.04 
       0.325316         15.2214         14.5787 
        0.33145          14.657         14.0593 
       0.337538         14.0951         13.4877 
       0.343633         13.4477         12.8913 
       0.349808           12.92         12.3027 
       0.355968         12.3932         11.7653 
       0.362074         11.9082         11.3038 
       0.368217         11.5112         10.9089 
       0.374374         11.1252         10.5717 
       0.380519         10.8529         10.2691 
       0.386598         10.5761         9.98022 
       0.392688         10.3123         9.68653 
        0.39888         9.96376         9.37349 
       0.405048         9.65061         9.05195 
       0.411186         9.33962         8.73165 
       0.417313          9.0004         8.42213 
       0.423458         8.72463         8.13291 
       0.429607         8.44095         7.87019 
       0.435692         8.18656         7.63452 
       0.441815         7.97123         7.41854 
       0.447964         7.80228         7.21598 
       0.454126         7.54754         7.01946 
       0.460267         7.37075         6.82519 
       0.466387         7.13873         6.63227 
        0.47254         6.96996         6.43872 
       0.478662         6.80411         6.24897 
       0.484765         6.57635         6.06648 
       0.490885         6.40852         5.89328 
       0.497035         6.29802         5.72957 
       0.503198         6.10759         5.57547 
       0.509342         5.95705         5.43099 
       0.515458         5.80957         5.29416 
       0.521598          5.6791         5.16138 
       0.527764         5.52185         5.03063 
       0.533884         5.42849         4.90314 
           0.54         5.28535         4.77855 
       0.546137         5.16779         4.65683 
       0.552299         5.05241         4.53846 
       0.558452         4.90536         4.42466 
       0.564573         4.81418         4.31626 
       0.570708         4.70487         4.21271 
       0.576825         4.58575         4.11399 
       0.582926         4.49781         4.01918 
       0.589034         4.37222         3.92711 
       0.595184         4.29381         3.83673 
       0.601379         4.19348         3.74802 
       0.607522         4.12505         3.66245 
       0.613639         4.05324         3.57971 
       0.619772         3.93715         3.49928 
       0.625918           3.883         3.42121 
       0.632068         3.81596         3.34561 
       0.638161         3.71831         3.27314 
         0.6443         3.64174         3.20257 
       0.650464         3.55835         3.13406 
       0.656582         3.51323         3.06818 
       0.662703         3.44224         3.00421 
       0.668861         3.38219         2.94163 
       0.675024         3.30891         2.88062 
       0.681124         3.24175          2.8218 
       0.687237         3.18988         2.76441 
       0.693381         3.13298         2.70831 
       0.699536         3.04886          2.6537 
       0.705665         3.00385         2.60091 
       0.711789         2.95219         2.54972 
       0.717957         2.89387         2.49965 
        0.72409         2.84174         2.45127 
       0.730186         2.79271         2.40449 
       0.736317         2.76245         2.35869 
       0.742472         2.71383         2.31388 
       0.748622         2.65732         2.27024 
        0.75476         2.60583         2.22778 
       0.760888         2.56189         2.18646 
       0.767043         2.52983         2.14602 
       0.773185         2.47514         2.10669 
       0.779291         2.44443         2.06858 
       0.785407         2.40053         2.03137 
       0.791564         2.36608         1.99488 
       0.797719         2.32817         1.95931 
       0.803834         2.29862         1.92486 
       0.809972         2.26105         1.89112 
       0.816124         2.21726         1.85813 
       0.822261         2.17398         1.82602 
       0.828378         2.14605         1.79477 
       0.834502         2.12464         1.76423 
       0.840667         2.07646          1.7342 
       0.846816         2.04368         1.70495 
       0.852925         2.02564         1.67656 
       0.859047          1.9931         1.64877 
       0.865192         1.96285         1.62151 
       0.871341          1.9381         1.59485 
       0.877463          1.9102         1.56892 
       0.883569         1.87405         1.54363 
       0.889708         1.84741         1.51878 
       0.895864          1.8188         1.49441 
       0.902008         1.79211         1.47063 
       0.908149         1.77234         1.44738 
       0.914301         1.73763          1.4246 
       0.920448          1.7154         1.40233 
       0.926574         1.68984         1.38063 
       0.932687         1.66664         1.35943 
       0.938823         1.64907          1.3386 
       0.944975         1.62618         1.31816 
       0.951105         1.60556         1.29822 
       0.957225         1.59202         1.27874 
       0.963368           1.567         1.25959 
       0.969511         1.54213         1.24083 
       0.975621         1.51892         1.22256 
       0.981748          1.5042         1.20461 
       0.987916         1.48191         1.18692 
        0.99406         1.45731         1.16964 
        1.00019          1.4446         1.15275 
        1.00632         1.42337          1.1362 
        1.01246         1.40647         1.11996 
        1.01859         1.38908         1.10407 
        1.02471         1.37006          1.0885 
        1.03085         1.35446         1.07318 
        1.03698         1.33495         1.05819 
        1.04314         1.32133         1.04343 
        1.04929         1.30383         1.02898 
        1.05541         1.28924         1.01486 
        1.06154         1.27175         1.00098 
        1.06769         1.25962        0.987335 
        1.07382         1.24109        0.973991 
        1.07993         1.22347        0.960924 
        1.08607          1.2161        0.948044 
        1.09222         1.19773        0.935388 
        1.09836         1.18745        0.922979 
        1.10449         1.17373         0.91081 
        1.11063         1.15466        0.898847 
        1.11677         1.14201        0.887105 
         1.1229         1.13014        0.875594 
        1.12903         1.11639        0.864277 
        1.13518         1.10536        0.853152 
        1.14131         1.08991        0.842229 
        1.14745          1.0717        0.831505 
        1.15359         1.06518        0.820965 
        1.15973         1.04881        0.810605 
        1.16584         1.04379         0.80047 
        1.17197         1.03087        0.790495 
        1.17811         1.02153         0.78066 
        1.18424         1.01067        0.771021 
        1.19038        0.997217        0.761518 
        1.19652        0.985473         0.75218 
        1.20267        0.978034        0.742998 
        1.20881        0.964868        0.733973 
        1.21495        0.956796        0.725112 
        1.22108        0.946502        0.716399 
         1.2272        0.939166        0.707851 
        1.23334        0.926143        0.699423 
        1.23949        0.915654        0.691113 
        1.24562        0.908338        0.682961 
        1.25174        0.898654        0.674954 
        1.25789         0.88945        0.667051 
        1.26402        0.877834        0.659289 
        1.27014        0.869666         0.65167 
        1.27628        0.864708        0.644149 
        1.28244        0.851861        0.636733 
        1.28858         0.84474        0.629444 
        1.29471        0.836052        0.622286 
        1.30084        0.826096        0.615246 
        1.30697        0.819606        0.608304 
        1.31312        0.807977         0.60146 
        1.31925        0.802791        0.594743 
        1.32537        0.794678        0.588135 
        1.33151        0.788878        0.581604 
        1.33765        0.779293        0.575177 
        1.34378        0.771009        0.568859 
        1.34992        0.765502        0.562632 
        1.35606        0.755542        0.556484 
         1.3622        0.750585         0.55044 
        1.36833        0.742359          0.5445 
        1.37445        0.733422        0.538651 
        1.38059        0.728546         0.53287 
        1.38675        0.725069        0.527161 
        1.39288        0.715696        0.521558 
        1.39901        0.708524        0.516039 
        1.40515        0.702464        0.510588 
         1.4113        0.695682        0.505218 
        1.41742         0.68925        0.499946 
        1.42355        0.686066        0.494739 
         1.4297        0.676666        0.489591 
        1.43585        0.671063        0.484519 
        1.44198        0.667798        0.479537 
        1.44809          0.6591        0.474636 
        1.45423        0.653857        0.469785 
        1.46036        0.647746        0.465011 
        1.46649        0.642263        0.460302 
        1.47263          0.6362        0.455654 
        1.47877        0.630105        0.451073 
        1.48491        0.624892        0.446547 
        1.49104        0.618976        0.442094 
        1.49718        0.615122        0.437698 
        1.50333        0.608161        0.433355 
        1.50947        0.604257        0.429079 
         1.5156        0.598579        0.424868 
        1.52172        0.593113        0.420714 
        1.52787        0.587342        0.416607 
          1.534        0.583296         0.41256 
        1.54013         0.57734         0.40857 
        1.54627        0.572772        0.404627 
        1.55241        0.567397        0.400734 
        1.55855        0.563319        0.396899 
        1.56467        0.560103        0.393124 
         1.5708         0.55311        0.389388 
        1.57695        0.550639        0.385695 
        1.58308        0.545785        0.382058 
        1.58922        0.540698        0.378466 
        1.59535        0.536587        0.374922 
         1.6015        0.531833        0.371418 
        1.60764        0.528279         0.36796 
        1.61376        0.523507        0.364556 
        1.61989        0.519595        0.361193 
        1.62604        0.514597        0.357864 
        1.63218        0.512161         0.35458 
        1.63831        0.507334        0.351344 
        1.64444        0.503118        0.348148 
        1.65059        0.499319        0.344984 
        1.65673        0.494218        0.341862 
        1.66285        0.491286        0.338788 
        1.66898        0.489308        0.335751 
        1.67512        0.483063        0.332745 
        1.68127        0.479175        0.329773 
         1.6874        0.477437        0.326845 
        1.69353        0.472504        0.323953 
        1.69967        0.468446         0.32109 
        1.70581        0.465976        0.318263 
        1.71193        0.461958         0.31548 
        1.71806        0.458838        0.312725 
        1.72421        0.455137        0.309998 
        1.73035        0.450946        0.307306 
        1.73649        0.448894        0.304646 
        1.74262         0.44521        0.302021 
        1.74876        0.441271        0.299424 
        1.75489        0.437396        0.296864 
        1.76101         0.43483        0.294334 
        1.76715        0.431664         0.29183 
        1.77329        0.428939        0.289352 
        1.77943        0.424703        0.286902 
        1.78557        0.421693        0.284484 
        1.79171        0.419529        0.282094 
        1.79785        0.415936         0.27973 
        1.80399        0.413275        0.277394 
        1.81012        0.410519        0.275088 
        1.81625        0.407324        0.272809 
        1.82239        0.404965        0.270553 
        1.82853         0.40049        0.268323 
        1.83466        0.398318        0.266121 
        1.84078        0.394838        0.263945 
        1.84692        0.393183        0.261791 
        1.85306        0.390799        0.259658 
         1.8592        0.387778        0.257552 
        1.86533        0.385208        0.255471 
        1.87147        0.382394         0.25341 
        1.87761        0.379527        0.251371 
        1.88375        0.376374        0.249357 
        1.88988        0.374769        0.247367 
        1.89601        0.371432        0.245398 
        1.90215         0.36909        0.243449 
        1.90829        0.366114        0.241522 
        1.91442        0.364099        0.239615 
        1.92056        0.361717        0.237731 
         1.9267        0.358687        0.235865 
        1.93284         0.35713        0.234018 
        1.93897        0.353868        0.232195 
        1.94509         0.35215        0.230394 
        1.95123        0.349338        0.228609 
        1.95737        0.347331        0.226841 
        1.96349        0.344407        0.225096 
        1.96964        0.342881        0.223364 
        1.97578        0.340118         0.22165 
        1.98192        0.338501        0.219958 
        1.98805        0.335801        0.218283 
        1.99419        0.333986        0.216625 
        2.00033        0.332475        0.214984 
        2.00647        0.329495         0.21336 
         2.0126         0.32739        0.211756 
        2.01874        0.325552        0.210166 
        2.02488        0.323825        0.208591 
        2.03101        0.320599        0.207034 
        2.03714        0.318341        0.205495 
        2.04328        0.317664        0.203971 
        2.04941        0.314976        0.202462 
        2.05554        0.312911         0.20097 
        2.06167        0.311004        0.199491 
        2.06781        0.308584        0.198027 
        2.07396        0.306498        0.196576 
        2.08009        0.304913        0.195141 
        2.08622        0.302976        0.193722 
        2.09237        0.301659        0.192315 
        2.09851        0.299707        0.190922 
        2.10464        0.297914        0.189544 
        2.11077         0.29614        0.188182 
        2.11691        0.293744         0.18683 
        2.12305        0.292168        0.185492 
        2.12918        0.290649         0.18417 
        2.13531        0.288346         0.18286 
        2.14145        0.287356        0.181561 
         2.1476        0.285068        0.180272 
        2.15372        0.283993        0.179002 
        2.15985        0.281456        0.177744 
        2.16599        0.279384        0.176494 
        2.17213        0.278351        0.175257 
        2.17827        0.277048        0.174032 
         2.1844        0.275527        0.172821 
        2.19054        0.273705         0.17162 
        2.19666        0.271685        0.170432 
         2.2028        0.270464        0.169255 
        2.20893        0.269047        0.168088 
        2.21508        0.267311        0.166931 
        2.22122        0.264655        0.165784 
        2.22736        0.263867        0.164651 
        2.23349        0.262904        0.163528 
        2.23962        0.261162        0.162415 
        2.24577         0.25896        0.161312 
         2.2519        0.257968        0.160221 
        2.25802        0.256179        0.159141 
        2.26417        0.254791        0.158068 
        2.27031        0.253227        0.157004 
        2.27644        0.251998        0.155953 
        2.28257        0.250708        0.154912 
        2.28872        0.249068        0.153878 
        2.29486        0.247665        0.152854 
        2.30099        0.246122        0.151842 
        2.30712        0.244974        0.150838 
        2.31326        0.243608        0.149841 
         2.3194        0.242944        0.148854 
        2.32553        0.241289        0.147878 
        2.33166        0.240037        0.146911 
         2.3378         0.23866        0.145951 
        2.34394        0.236515        0.144999 
        2.35007        0.235665        0.144057 
        2.35619        0.234525        0.143125 
        2.36233        0.232576        0.142199 
        2.36848        0.231874        0.141279 
        2.37462        0.230238        0.140369 
        2.38075        0.229609        0.139468 
        2.38689         0.22796        0.138574 
        2.39303        0.227079        0.137688 
        2.39916        0.225247        0.136811 
        2.40529        0.224464        0.135941 
        2.41143        0.223233        0.135079 
        2.41757        0.222146        0.134223 
         2.4237         0.22093        0.133377 
        2.42983        0.219679        0.132538 
        2.43598        0.218822        0.131703 
        2.44211        0.217764        0.130878 
        2.44823        0.216463        0.130061 
        2.45437        0.214909        0.129249 
        2.46052        0.214269        0.128444 
        2.46665        0.212848        0.127646 
        2.47279        0.211769        0.126856 
        2.47892        0.210636        0.126072 
        2.48507        0.209615        0.125294 
         2.4912        0.208677        0.124523 
