# k  (h/Mpc)    P(k)  (Mpc/h)^3    P_linear(k)  (Mpc/h)^3
     0.00783031         6297.77         6354.47 
       0.013688         7182.78         7318.58 
       0.019231         6941.36         7007.09 
      0.0249154         6175.44         6153.87 
      0.0312784         5067.82         5077.86 
      0.0375637         4157.64         4183.57 
      0.0433917         3593.27         3586.27 
      0.0492413          3175.1         3185.23 
      0.0555754         2906.81         2896.28 
      0.0619321         2622.79          2667.8 
       0.067871         2437.89            2450 
      0.0738098         2205.87         2205.91 
      0.0800417         1944.05         1932.73 
      0.0862327         1680.26         1674.19 
      0.0921407         1478.36         1465.82 
      0.0982031         1329.34         1304.07 
       0.104506          1196.5         1189.34 
       0.110769         1124.68         1114.37 
       0.116806         1081.65         1059.91 
       0.122832         1016.22         1006.21 
       0.129052         955.153         940.961 
       0.135211         891.801         865.211 
       0.141259         807.088           786.1 
       0.147318         727.606         710.958 
       0.153489         669.436         646.083 
       0.159709         628.691         596.009 
       0.165845         579.562         560.575 
       0.171974         567.061         534.833 
       0.178125           543.9         513.251 
       0.184229         511.421         491.342 
        0.19034         493.486         466.284 
       0.196428         468.433         438.083 
       0.202534         430.455         408.379 
       0.208729         413.306         379.466 
       0.214876         391.126         354.247 
       0.220989         363.478         333.671 
       0.227147         353.763         317.285 
        0.23329         340.149         304.118 
       0.239377         332.085         292.669 
       0.245482         315.617         281.387 
       0.251667         301.374         269.293 
       0.257832         295.384         256.446 
       0.263955         276.854          243.35 
       0.270079         264.103          230.63 
        0.27624         251.732         218.904 
       0.282372          243.48         208.663 
        0.28843         240.294         199.975 
       0.294538         228.648         192.368 
       0.300721         219.779          185.41 
        0.30691         215.766         178.745 
       0.313033         205.976         172.157 
       0.319153         201.783         165.481 
       0.325316         194.824         158.745 
        0.33145          188.31         152.213 
       0.337538         181.284         146.094 
       0.343633         175.424          140.45 
       0.349808         169.791         135.271 
       0.355968         165.519         130.567 
       0.362074         161.414         126.257 
       0.368217         157.972         122.136 
       0.374374         153.766          118.12 
       0.380519         147.215         114.183 
       0.386598         144.096         110.348 
       0.392688         139.595         106.613 
        0.39888         136.842         102.974 
       0.405048          133.48         99.5452 
       0.411186         131.114         96.3513 
       0.417313         127.814         93.3639 
       0.423458         124.381         90.5388 
       0.429607         121.446         87.8491 
       0.435692           119.5         85.2872 
       0.441815          115.96         82.7819 
       0.447964         112.362         80.3379 
       0.454126         110.272         77.9641 
       0.460267         109.156          75.681 
       0.466387         106.335         73.4992 
        0.47254             105         71.4082 
       0.478662         101.324         69.4262 
       0.484765         99.7355         67.5385 
       0.490885         97.3999         65.7248 
       0.497035         96.4984         63.9716 
       0.503198         94.4383         62.2751 
       0.509342          91.925         60.6354 
       0.515458         90.5268         59.0543 
       0.521598         88.2227           57.52 
       0.527764         87.2463         56.0341 
       0.533884         86.4846         54.6135 
           0.54          84.076         53.2467 
       0.546137          82.026         51.9263 
       0.552299         80.6107         50.6497 
       0.558452         79.1124         49.4203 
       0.564573         78.6974         48.2374 
       0.570708         76.3984         47.0886 
       0.576825         75.5767         45.9782 
       0.582926         74.6319         44.9052 
       0.589034         73.2267          43.865 
       0.595184         72.2546         42.8517 
       0.601379         70.5625         41.8646 
       0.607522         69.1907         40.9172 
       0.613639         68.6156         40.0038 
       0.619772         67.2637         39.1166 
       0.625918         66.6201          38.255 
       0.632068         65.4023         37.4191 
       0.638161         64.3158         36.6157 
         0.6443         63.8436         35.8301 
       0.650464          62.342         35.0644 
       0.656582         62.0994         34.3264 
       0.662703         61.1852         33.6094 
       0.668861         59.7737         32.9088 
       0.675024         59.5842         32.2279 
       0.681124         58.6796         31.5734 
       0.687237         57.5736         30.9362 
       0.693381          56.972         30.3137 
       0.699536         56.3112         29.7075 
       0.705665         55.4994         29.1206 
       0.711789         54.6552         28.5501 
       0.717957         53.8908          27.991 
        0.72409         53.3229         27.4499 
       0.730186         52.9853         26.9264 
       0.736317         52.0302         26.4138 
       0.742472         51.3098         25.9126 
       0.748622         50.5786          25.425 
        0.75476         50.0533         24.9511 
       0.760888         49.8478           24.49 
       0.767043         48.7818         24.0388 
       0.773185         48.1484            23.6 
       0.779291         47.6006         23.1746 
       0.785407         47.0527         22.7592 
       0.791564         46.9569         22.3514 
       0.797719          46.073         21.9539 
       0.803834         45.7607         21.5685 
       0.809972          45.215         21.1911 
       0.816124         44.6815         20.8219 
       0.822261         44.0495         20.4625 
       0.828378         43.8992         20.1127 
       0.834502         43.3064         19.7708 
       0.840667         42.9383         19.4347 
       0.846816         42.3888         19.1073 
       0.852925         41.9411         18.7896 
       0.859047         41.8278         18.4785 
       0.865192         41.1167         18.1734 
       0.871341         40.6449          17.875 
       0.877463         40.2466         17.5846 
       0.883569         40.1416         17.3015 
       0.889708         39.6477         17.0232 
       0.895864          39.282         16.7503 
       0.902008         38.8754          16.484 
       0.908149            38.4         16.2237 
       0.914301         38.1102         15.9686 
       0.920448         37.9336         15.7192 
       0.926574         37.2939          15.476 
       0.932687          37.007         15.2385 
       0.938823         36.5962         15.0051 
       0.944975         36.2237         14.7762 
       0.951105         35.9728         14.5528 
       0.957225         35.7018         14.3344 
       0.963368         35.3697         14.1198 
       0.969511         35.0451         13.9096 
       0.975621         34.7837         13.7048 
       0.981748         34.4146         13.5036 
       0.987916         34.1337         13.3052 
        0.99406         33.8258         13.1115 
        1.00019         33.5228         12.9221 
        1.00632         33.2832         12.7366 
        1.01246          32.987         12.5545 
        1.01859         32.7439         12.3762 
        1.02471         32.4097         12.2016 
        1.03085         32.2202         12.0298 
        1.03698         32.0258         11.8617 
        1.04314         31.7263          11.696 
        1.04929          31.344         11.5339 
        1.05541         31.2831         11.3755 
        1.06154         31.0049         11.2198 
        1.06769         30.5935         11.0667 
        1.07382         30.4394         10.9169 
        1.07993          30.238         10.7703 
        1.08607         29.9639         10.6258 
        1.09222         29.7948         10.4838 
        1.09836         29.5205         10.3445 
        1.10449         29.3842          10.208 
        1.11063         29.0854         10.0737 
        1.11677         29.0305         9.94194 
         1.1229         28.7078         9.81275 
        1.12903         28.4956         9.68575 
        1.13518         28.4248         9.56089 
        1.14131         28.1355          9.4383 
        1.14745         27.8703         9.31793 
        1.15359         27.5899         9.19965 
        1.15973         27.5341         9.08337 
        1.16584         27.3004         8.96962 
        1.17197         26.9839         8.85766 
        1.17811         26.8758         8.74728 
        1.18424         26.5195         8.63909 
        1.19038         26.4618         8.53242 
        1.19652          26.269          8.4276 
        1.20267         26.1407         8.32454 
        1.20881         25.9307         8.22322 
        1.21495         25.8383         8.12375 
        1.22108         25.7211         8.02595 
         1.2272         25.4562         7.92998 
        1.23334         25.3256         7.83536 
        1.23949         25.1342         7.74206 
        1.24562         24.9306         7.65055 
        1.25174         24.8011         7.56064 
        1.25789         24.6857         7.47191 
        1.26402         24.5226         7.38476 
        1.27014         24.3919          7.2992 
        1.27628         24.1434         7.21475 
        1.28244         24.1541         7.13147 
        1.28858         23.8887         7.04961 
        1.29471         23.7128         6.96921 
        1.30084         23.5656         6.89015 
        1.30697         23.4717         6.81219 
        1.31312         23.2865         6.73532 
        1.31925         23.1017         6.65988 
        1.32537         22.9506         6.58567 
        1.33151         22.7879         6.51233 
        1.33765         22.7764         6.44014 
        1.34378          22.642         6.36919 
        1.34992         22.4449         6.29927 
        1.35606         22.2673         6.23024 
         1.3622         22.1872         6.16237 
        1.36833         22.0948         6.09567 
        1.37445         21.8976         6.02999 
        1.38059         21.7894         5.96508 
        1.38675         21.6641         5.90097 
        1.39288         21.5171         5.83805 
        1.39901         21.3803         5.77608 
        1.40515          21.297         5.71488 
         1.4113         21.2197         5.65458 
        1.41742         21.0892         5.59538 
        1.42355         20.8991         5.53692 
         1.4297         20.8141         5.47911 
        1.43585         20.6909         5.42216 
        1.44198         20.6104         5.36623 
        1.44809         20.4667         5.31119 
        1.45423         20.3708         5.25672 
        1.46036           20.29         5.20312 
        1.46649         20.1423         5.15024 
        1.47263         20.0203         5.09805 
        1.47877         19.9056          5.0466 
        1.48491         19.8267         4.99578 
        1.49104         19.6908         4.94577 
        1.49718          19.668         4.89641 
        1.50333         19.5434         4.84764 
        1.50947          19.393         4.79963 
         1.5156         19.3283         4.75234 
        1.52172         19.1998         4.70569 
        1.52787          19.151         4.65957 
          1.534         19.0115         4.61412 
        1.54013         18.9826         4.56933 
        1.54627         18.8069         4.52505 
        1.55241         18.7149         4.48134 
        1.55855         18.6276         4.43828 
        1.56467         18.5426          4.3959 
         1.5708         18.4516         4.35395 
        1.57695          18.386         4.31249 
        1.58308          18.215         4.27166 
        1.58922         18.1475         4.23133 
        1.59535         18.0674         4.19153 
         1.6015         17.9987         4.15219 
        1.60764         17.8931         4.11337 
        1.61376         17.8209         4.07516 
        1.61989         17.6528          4.0374 
        1.62604         17.6088         4.00003 
        1.63218         17.5351         3.96316 
        1.63831         17.4346         3.92684 
        1.64444         17.3643         3.89095 
        1.65059          17.281         3.85544 
        1.65673         17.1984          3.8204 
        1.66285         17.1242         3.78589 
        1.66898         17.0319          3.7518 
        1.67512         17.0021         3.71806 
        1.68127         16.8964         3.68471 
         1.6874         16.8206         3.65183 
        1.69353         16.7119         3.61938 
        1.69967         16.6258         3.58724 
        1.70581         16.5663         3.55551 
        1.71193         16.4779         3.52428 
        1.71806         16.4118         3.49336 
        1.72421         16.3444         3.46274 
        1.73035         16.2558         3.43253 
        1.73649         16.1661         3.40268 
        1.74262         16.1077         3.37321 
        1.74876         16.0402         3.34407 
        1.75489          15.954         3.31534 
        1.76101         15.8628         3.28695 
        1.76715         15.8259         3.25885 
        1.77329         15.7158         3.23105 
        1.77943         15.6692         3.20355 
        1.78557         15.6251         3.17642 
        1.79171         15.5266          3.1496 
        1.79785         15.4476         3.12308 
        1.80399         15.3563         3.09687 
        1.81012         15.3329         3.07099 
        1.81625         15.2463         3.04542 
        1.82239         15.1626         3.02011 
        1.82853           15.11         2.99509 
        1.83466          15.027         2.97038 
        1.84078         14.9612         2.94597 
        1.84692          14.942          2.9218 
        1.85306         14.8607         2.89787 
         1.8592           14.82         2.87425 
        1.86533         14.7186          2.8509 
        1.87147         14.6437         2.82778 
        1.87761         14.5921         2.80491 
        1.88375         14.5465         2.78231 
        1.88988         14.4662         2.75999 
        1.89601         14.4193          2.7379 
        1.90215         14.3221         2.71604 
        1.90829         14.2814         2.69442 
        1.91442           14.19         2.67304 
        1.92056         14.1557         2.65191 
         1.9267         14.1011         2.63098 
        1.93284         14.0952         2.61027 
        1.93897         13.9914         2.58982 
        1.94509         13.9394         2.56963 
        1.95123          13.854          2.5496 
        1.95737           13.78         2.52978 
        1.96349         13.7507         2.51021 
        1.96964         13.7405         2.49079 
        1.97578         13.6508         2.47157 
        1.98192         13.5958         2.45259 
        1.98805         13.4936         2.43381 
        1.99419         13.4902         2.41522 
        2.00033         13.4049         2.39682 
        2.00647         13.3552         2.37861 
         2.0126         13.2919         2.36062 
        2.01874         13.2532          2.3428 
        2.02488         13.1626         2.32513 
        2.03101         13.1294         2.30769 
        2.03714         13.0738         2.29043 
        2.04328         13.0407         2.27334 
        2.04941         12.9618         2.25643 
        2.05554         12.9345         2.23971 
        2.06167            12.9         2.22313 
        2.06781         12.8469         2.20672 
        2.07396          12.799         2.19045 
        2.08009         12.7169         2.17437 
        2.08622         12.6785         2.15847 
        2.09237         12.6581          2.1427 
        2.09851         12.5748         2.12708 
        2.10464         12.5183         2.11164 
        2.11077         12.4711         2.09637 
        2.11691         12.4149         2.08123 
        2.12305         12.3803         2.06623 
        2.12918         12.3279         2.05141 
        2.13531         12.2875         2.03673 
        2.14145         12.2153         2.02217 
         2.1476         12.1541         2.00773 
        2.15372         12.1616         1.99351 
        2.15985         12.0883          1.9794 
        2.16599         12.0417          1.9654 
        2.17213         12.0033         1.95154 
        2.17827         11.9477         1.93782 
         2.1844         11.9024         1.92424 
        2.19054         11.8805         1.91079 
        2.19666         11.8171         1.89749 
         2.2028         11.7907          1.8843 
        2.20893         11.7133         1.87123 
        2.21508          11.673         1.85827 
        2.22122           11.62         1.84542 
        2.22736         11.6091         1.83273 
        2.23349         11.5375         1.82015 
        2.23962         11.5116         1.80769 
        2.24577         11.4831         1.79533 
         2.2519         11.4168         1.78311 
        2.25802          11.357         1.77101 
        2.26417         11.3539           1.759 
        2.27031         11.3003         1.74708 
        2.27644         11.2819         1.73531 
        2.28257         11.2028         1.72365 
        2.28872         11.1984         1.71208 
        2.29486         11.1536         1.70061 
        2.30099         11.0853         1.68927 
        2.30712         11.0468         1.67803 
        2.31326         11.0018         1.66687 
         2.3194         10.9551         1.65582 
        2.32553         10.9258         1.64489 
        2.33166         10.8626         1.63406 
         2.3378         10.8536         1.62331 
        2.34394         10.7925         1.61265 
        2.35007         10.7761         1.60211 
        2.35619         10.7369         1.59167 
        2.36233         10.6797          1.5813 
        2.36848         10.6253         1.57101 
        2.37462         10.5901         1.56082 
        2.38075         10.5536         1.55073 
        2.38689         10.5426         1.54073 
        2.39303         10.4763         1.53081 
        2.39916         10.4542           1.521 
        2.40529         10.4254         1.51127 
        2.41143         10.3636         1.50161 
        2.41757         10.3296         1.49204 
         2.4237         10.2906         1.48256 
        2.42983         10.2733         1.47317 
        2.43598         10.2324         1.46384 
        2.44211         10.1876          1.4546 
        2.44823         10.1473         1.44546 
        2.45437         10.1369         1.43638 
        2.46052         10.0805         1.42736 
        2.46665         10.0627         1.41844 
        2.47279         10.0186          1.4096 
        2.47892         9.97272         1.40083 
        2.48507         9.93822         1.39212 
         2.4912         9.89551          1.3835 
