# k  (h/Mpc)    Pcb(k)  (Mpc/h)^3    Pcb_linear(k)  (Mpc/h)^3
     0.00783031         359.647         362.769 
       0.013688         415.256         418.688 
       0.019231         400.068         401.214 
      0.0249154          352.76         352.528 
      0.0312784          291.36         290.979 
      0.0375637         239.938         239.779 
      0.0433917         206.171          205.57 
      0.0492413         182.748         182.597 
      0.0555754         166.519         166.044 
      0.0619321         152.409         152.953 
       0.067871          140.46         140.472 
      0.0738098         126.531         126.481 
      0.0800417         111.095          110.82 
      0.0862327         96.1412         95.9973 
      0.0921407         84.2056         84.0509 
      0.0982031         75.1061         74.7775 
       0.104506         68.1945         68.1991 
       0.110769         63.9129         63.9008 
       0.116806         60.9608         60.7788 
       0.122832         57.6861         57.6998 
       0.129052         54.0833         53.9584 
       0.135211         49.8264         49.6149 
       0.141259         45.1971         45.0785 
       0.147318         40.8047         40.7698 
       0.153489           37.19         37.0497 
       0.159709         34.3692         34.1783 
       0.165845         32.1513         32.1465 
       0.171974         30.8729         30.6703 
       0.178125         29.5835         29.4328 
       0.184229         28.2534         28.1764 
        0.19034         26.9264         26.7395 
       0.196428         25.2843         25.1223 
       0.202534         23.4622          23.419 
       0.208729         21.9276          21.761 
       0.214876          20.544         20.3148 
       0.220989         19.2526         19.1349 
       0.227147         18.4238         18.1952 
        0.23329         17.6665         17.4401 
       0.239377         17.0132         16.7836 
       0.245482         16.3573         16.1366 
       0.251667         15.5973         15.4431 
       0.257832         14.9454         14.7064 
       0.263955         14.1337         13.9554 
       0.270079         13.4084         13.2259 
        0.27624         12.7027         12.5535 
       0.282372         12.1235         11.9662 
        0.28843         11.6896          11.468 
       0.294538         11.2353         11.0318 
       0.300721         10.7863         10.6327 
        0.30691         10.4597         10.2505 
       0.313033         10.0645         9.87272 
       0.319153         9.74138         9.48986 
       0.325316         9.27144         9.10362 
        0.33145         8.89238         8.72902 
       0.337538         8.55871         8.37808 
       0.343633         8.26182         8.05446 
       0.349808         7.94245         7.75742 
       0.355968         7.66456         7.48767 
       0.362074         7.44592          7.2405 
       0.368217          7.1959         7.00416 
       0.374374         6.99715          6.7739 
       0.380519         6.73574         6.54809 
       0.386598         6.49903         6.32815 
       0.392688         6.27436         6.11402 
        0.39888         6.08597         5.90533 
       0.405048         5.89571         5.70867 
       0.411186         5.70529         5.52551 
       0.417313         5.53427         5.35419 
       0.423458         5.34912         5.19218 
       0.429607         5.22396         5.03793 
       0.435692          5.0839         4.89101 
       0.441815         4.91954         4.74734 
       0.447964         4.76224         4.60718 
       0.454126         4.64565         4.47106 
       0.460267          4.5321         4.34012 
       0.466387          4.3959         4.21501 
        0.47254         4.28418         4.09509 
       0.478662         4.16078         3.98143 
       0.484765         4.05471         3.87318 
       0.490885         3.93697         3.76917 
       0.497035         3.82352         3.66863 
       0.503198          3.7429         3.57133 
       0.509342         3.63213          3.4773 
       0.515458         3.55202         3.38663 
       0.521598         3.46582         3.29864 
       0.527764          3.3912         3.21343 
       0.533884         3.28456         3.13196 
           0.54         3.21623         3.05358 
       0.546137         3.12811         2.97786 
       0.552299         3.05938         2.90465 
       0.558452         2.98609         2.83414 
       0.564573         2.92169         2.76631 
       0.570708         2.85563         2.70042 
       0.576825         2.79122         2.63675 
       0.582926         2.72186         2.57521 
       0.589034         2.67072         2.51556 
       0.595184         2.61756         2.45745 
       0.601379         2.55078         2.40084 
       0.607522         2.49133         2.34651 
       0.613639         2.43276         2.29413 
       0.619772         2.39088         2.24325 
       0.625918         2.33937         2.19384 
       0.632068         2.29127         2.14591 
       0.638161         2.24296         2.09983 
         0.6443         2.19397         2.05478 
       0.650464         2.14986         2.01087 
       0.656582         2.11469         1.96854 
       0.662703         2.06998         1.92742 
       0.668861          2.0183         1.88725 
       0.675024         1.98098          1.8482 
       0.681124         1.96132         1.81067 
       0.687237         1.91301         1.77412 
       0.693381         1.86646         1.73843 
       0.699536         1.84257         1.70366 
       0.705665         1.80695            1.67 
       0.711789         1.76534         1.63729 
       0.717957          1.7339         1.60522 
        0.72409         1.70277         1.57419 
       0.730186         1.68047         1.54417 
       0.736317         1.64109         1.51477 
       0.742472         1.61727         1.48604 
       0.748622         1.59036         1.45807 
        0.75476         1.55407         1.43089 
       0.760888         1.53333         1.40445 
       0.767043         1.49264         1.37857 
       0.773185         1.47354         1.35341 
       0.779291          1.4569         1.32902 
       0.785407         1.42778         1.30519 
       0.791564         1.40224         1.28181 
       0.797719         1.37779         1.25901 
       0.803834         1.35507         1.23691 
       0.809972          1.3326         1.21526 
       0.816124         1.31135         1.19409 
       0.822261          1.2906         1.17348 
       0.828378         1.26839         1.15342 
       0.834502         1.24705         1.13381 
       0.840667         1.23057         1.11454 
       0.846816         1.20853         1.09577 
       0.852925         1.18723         1.07754 
       0.859047         1.16908          1.0597 
       0.865192          1.1521          1.0422 
       0.871341         1.13608         1.02509 
       0.877463         1.11377         1.00844 
       0.883569         1.09859        0.992207 
       0.889708         1.08458        0.976246 
       0.895864         1.06805        0.960597 
       0.902008         1.04867        0.945325 
       0.908149         1.03488        0.930395 
       0.914301         1.02151        0.915764 
       0.920448         1.00748        0.901462 
       0.926574        0.994965        0.887516 
       0.932687        0.979412        0.873897 
       0.938823        0.960362        0.860514 
       0.944975         0.95037        0.847383 
       0.951105        0.931505        0.834573 
       0.957225        0.920842         0.82205 
       0.963368        0.909675        0.809743 
       0.969511         0.89824        0.797687 
       0.975621        0.882898        0.785943 
       0.981748        0.867205        0.774405 
       0.987916        0.857501        0.763027 
        0.99406        0.848078         0.75192 
        1.00019        0.835451        0.741057 
        1.00632        0.827017        0.730419 
        1.01246        0.814966        0.719974 
        1.01859        0.804516        0.709751 
        1.02471        0.790578        0.699738 
        1.03085        0.779668        0.689885 
        1.03698        0.772061        0.680242 
        1.04314        0.761297        0.670742 
        1.04929        0.753789        0.661447 
        1.05541        0.740437        0.652365 
        1.06154        0.733082        0.643431 
        1.06769        0.724325        0.634651 
        1.07382          0.7144        0.626065 
        1.07993        0.705378        0.617656 
        1.08607        0.697249        0.609368 
        1.09222        0.686973        0.601224 
        1.09836        0.680033        0.593238 
        1.10449        0.669518        0.585406 
        1.11063        0.661247        0.577708 
        1.11677        0.654784        0.570151 
         1.1229        0.644322        0.562742 
        1.12903        0.638869        0.555458 
        1.13518        0.630093        0.548298 
        1.14131        0.623689        0.541268 
        1.14745        0.617656        0.534365 
        1.15359        0.608642        0.527581 
        1.15973        0.602182        0.520913 
        1.16584        0.594249         0.51439 
        1.17197        0.586549        0.507969 
        1.17811        0.579484        0.501639 
        1.18424        0.573153        0.495435 
        1.19038        0.565659        0.489318 
        1.19652        0.561193        0.483306 
        1.20267        0.555511        0.477396 
        1.20881        0.546436        0.471586 
        1.21495        0.541502        0.465881 
        1.22108        0.535901        0.460272 
         1.2272        0.528397        0.454769 
        1.23334        0.523271        0.449343 
        1.23949        0.518434        0.443992 
        1.24562        0.512359        0.438744 
        1.25174        0.507079        0.433588 
        1.25789        0.499697        0.428499 
        1.26402        0.495478        0.423501 
        1.27014        0.488435        0.418595 
        1.27628        0.484966        0.413752 
        1.28244        0.479486        0.408976 
        1.28858        0.473279        0.404281 
        1.29471        0.468646        0.399671 
        1.30084        0.463957        0.395136 
        1.30697        0.460384        0.390666 
        1.31312        0.455153        0.386257 
        1.31925        0.449954        0.381931 
        1.32537        0.445587        0.377675 
        1.33151        0.440533        0.373469 
        1.33765        0.436086         0.36933 
        1.34378        0.430955        0.365261 
        1.34992        0.428191        0.361251 
        1.35606        0.422556        0.357292 
         1.3622        0.418882          0.3534 
        1.36833        0.415264        0.349575 
        1.37445        0.410957        0.345808 
        1.38059         0.40675        0.342086 
        1.38675         0.40216        0.338409 
        1.39288        0.397677        0.334801 
        1.39901        0.394682        0.331247 
        1.40515        0.390421        0.327737 
         1.4113        0.387878        0.324279 
        1.41742        0.383519        0.320884 
        1.42355        0.378218        0.317532 
         1.4297          0.3763        0.314217 
        1.43585          0.3717         0.31095 
        1.44198        0.368934        0.307743 
        1.44809        0.364736        0.304587 
        1.45423        0.361783        0.301463 
        1.46036        0.358192        0.298389 
        1.46649        0.354687        0.295356 
        1.47263        0.350668        0.292363 
        1.47877        0.349535        0.289413 
        1.48491        0.344084        0.286499 
        1.49104        0.342811        0.283631 
        1.49718        0.338465          0.2808 
        1.50333        0.335889        0.278003 
        1.50947        0.333071        0.275249 
         1.5156        0.329722        0.272538 
        1.52172         0.32696        0.269862 
        1.52787         0.32305        0.267217 
          1.534        0.321162        0.264611 
        1.54013        0.318128        0.262042 
        1.54627         0.31556        0.259503 
        1.55241        0.312518        0.256997 
        1.55855        0.309701        0.254527 
        1.56467        0.307268        0.252097 
         1.5708        0.304127        0.249691 
        1.57695        0.301417        0.247313 
        1.58308        0.298072        0.244972 
        1.58922        0.296537        0.242659 
        1.59535        0.293368        0.240376 
         1.6015          0.2911         0.23812 
        1.60764        0.288385        0.235894 
        1.61376        0.286019        0.233703 
        1.61989        0.283504        0.231537 
        1.62604        0.280742        0.229394 
        1.63218        0.279213         0.22728 
        1.63831        0.276289        0.225197 
        1.64444        0.274423        0.223139 
        1.65059        0.271446        0.221102 
        1.65673        0.269409        0.219093 
        1.66285        0.267433        0.217114 
        1.66898        0.265107        0.215159 
        1.67512        0.262611        0.213224 
        1.68127        0.260358        0.211311 
         1.6874        0.258668        0.209426 
        1.69353        0.256241        0.207565 
        1.69967        0.254174        0.205722 
        1.70581        0.252565        0.203902 
        1.71193        0.250669        0.202111 
        1.71806        0.248406        0.200338 
        1.72421        0.246202        0.198582 
        1.73035        0.243991        0.196849 
        1.73649        0.242768        0.195138 
        1.74262        0.240067        0.193448 
        1.74876        0.238719        0.191777 
        1.75489        0.236958        0.190129 
        1.76101        0.234782          0.1885 
        1.76715        0.233091        0.186889 
        1.77329        0.231087        0.185295 
        1.77943        0.229173        0.183718 
        1.78557        0.228043        0.182162 
        1.79171        0.226254        0.180624 
        1.79785        0.224088        0.179103 
        1.80399        0.221893          0.1776 
        1.81012        0.220952        0.176116 
        1.81625        0.219482        0.174649 
        1.82239        0.218066        0.173198 
        1.82853        0.215673        0.171763 
        1.83466        0.214052        0.170346 
        1.84078        0.212521        0.168946 
        1.84692        0.211048         0.16756 
        1.85306        0.209621        0.166188 
         1.8592        0.208026        0.164833 
        1.86533        0.206677        0.163494 
        1.87147        0.204643        0.162168 
        1.87761        0.203211        0.160856 
        1.88375        0.201742        0.159561 
        1.88988        0.200014        0.158281 
        1.89601        0.198322        0.157014 
        1.90215        0.197321         0.15576 
        1.90829        0.195548         0.15452 
        1.91442        0.194707        0.153294 
        1.92056        0.193481        0.152082 
         1.9267        0.191726        0.150882 
        1.93284        0.190059        0.149694 
        1.93897        0.188951        0.148521 
        1.94509        0.187827        0.147364 
        1.95123        0.185985        0.146215 
        1.95737        0.184886        0.145078 
        1.96349        0.183533        0.143956 
        1.96964        0.182193        0.142843 
        1.97578        0.180827         0.14174 
        1.98192        0.180015        0.140652 
        1.98805        0.178708        0.139575 
        1.99419        0.177711        0.138509 
        2.00033        0.176123        0.137453 
        2.00647        0.175003        0.136409 
         2.0126        0.173829        0.135378 
        2.01874        0.172682        0.134355 
        2.02488        0.171515        0.133342 
        2.03101        0.170062        0.132342 
        2.03714        0.169627        0.131352 
        2.04328        0.167785        0.130372 
        2.04941        0.167137        0.129402 
        2.05554        0.165918        0.128443 
        2.06167        0.164684        0.127493 
        2.06781        0.163177        0.126551 
        2.07396        0.162652        0.125618 
        2.08009        0.161338        0.124696 
        2.08622        0.160452        0.123784 
        2.09237        0.159382         0.12288 
        2.09851        0.158024        0.121984 
        2.10464        0.157211        0.121099 
        2.11077         0.15592        0.120223 
        2.11691        0.155128        0.119355 
        2.12305        0.153995        0.118494 
        2.12918         0.15289        0.117645 
        2.13531        0.152083        0.116803 
        2.14145         0.15103        0.115968 
         2.1476         0.15013         0.11514 
        2.15372        0.149393        0.114324 
        2.15985        0.148073        0.113515 
        2.16599        0.147143        0.112712 
        2.17213        0.146446        0.111917 
        2.17827        0.145405        0.111131 
         2.1844        0.144649        0.110352 
        2.19054        0.143718        0.109581 
        2.19666        0.142833        0.108818 
         2.2028        0.141497        0.108061 
        2.20893        0.140939        0.107312 
        2.21508        0.140121        0.106568 
        2.22122        0.139317        0.105832 
        2.22736        0.138188        0.105104 
        2.23349        0.137233        0.104383 
        2.23962        0.136558        0.103668 
        2.24577        0.135839        0.102959 
         2.2519        0.134992        0.102258 
        2.25802        0.134061        0.101565 
        2.26417        0.133463        0.100876 
        2.27031        0.132517        0.100192 
        2.27644        0.132153       0.0995174 
        2.28257        0.130997       0.0988487 
        2.28872         0.13025       0.0981848 
        2.29486        0.129517       0.0975271 
        2.30099         0.12854       0.0968768 
        2.30712        0.127885       0.0962321 
        2.31326        0.126988       0.0955922 
         2.3194        0.126387       0.0949584 
        2.32553        0.125664       0.0943314 
        2.33166        0.124894       0.0937104 
         2.3378        0.124159        0.093094 
        2.34394        0.123431        0.092483 
        2.35007        0.122751       0.0918783 
        2.35619         0.12205       0.0912798 
        2.36233        0.121323       0.0906852 
        2.36848        0.120593       0.0900946 
        2.37462        0.120148       0.0895105 
        2.38075        0.119344       0.0889321 
        2.38689        0.118701       0.0883583 
        2.39303        0.118009       0.0877897 
        2.39916        0.117254       0.0872267 
        2.40529        0.116557       0.0866686 
        2.41143        0.115755        0.086115 
        2.41757        0.115237       0.0855659 
         2.4237        0.114605       0.0850227 
        2.42983        0.114077       0.0844842 
        2.43598        0.113331       0.0839489 
        2.44211         0.11238       0.0834191 
        2.44823        0.112199        0.082895 
        2.45437        0.111512        0.082374 
        2.46052        0.110815       0.0818571 
        2.46665         0.11025       0.0813454 
        2.47279        0.109573       0.0808383 
        2.47892        0.109242       0.0803352 
        2.48507        0.108282       0.0798358 
         2.4912        0.107876       0.0793417 
