# k  (h/Mpc)    Pcb(k)  (Mpc/h)^3    Pcb_linear(k)  (Mpc/h)^3
     0.00783031           11179         11332.2 
       0.013688         12704.5         12615.5 
       0.019231         11661.4         11616.6 
      0.0249154         9615.56         9740.98 
      0.0312784         7595.05         7610.71 
      0.0375637         6032.17         5982.66 
      0.0433917          4970.6         4987.74 
      0.0492413         4403.45         4389.42 
      0.0555754         3955.68         4013.22 
      0.0619321         3771.27         3732.16 
       0.067871         3399.51         3436.84 
      0.0738098         3042.36         3069.42 
      0.0800417         2605.02         2635.71 
      0.0862327         2229.88         2222.36 
      0.0921407         1940.91         1898.48 
      0.0982031         1690.64         1662.15 
       0.104506         1576.72         1512.49 
       0.110769         1480.62         1431.17 
       0.116806         1413.71         1379.95 
       0.122832         1358.16          1323.5 
       0.129052         1252.71         1240.09 
       0.135211         1152.99         1131.19 
       0.141259         1059.14         1012.22 
       0.147318         959.401          899.25 
       0.153489         859.992         805.071 
       0.159709         801.172         737.533 
       0.165845         764.864         695.273 
       0.171974         728.107         669.062 
       0.178125         702.207         648.528 
       0.184229         675.143         625.045 
        0.19034         628.707         593.699 
       0.196428          605.11         554.879 
       0.202534         573.703         512.318 
       0.208729         532.755         470.875 
       0.214876         498.396         435.837 
       0.220989         475.888         408.932 
       0.227147           453.2         389.308 
        0.23329           435.3         374.923 
       0.239377         425.454         362.822 
       0.245482         397.155         350.206 
       0.251667         391.525          335.42 
       0.257832         375.148         318.566 
       0.263955         358.737         300.743 
       0.270079         341.305         283.358 
        0.27624          333.49         267.637 
       0.282372         320.298         254.464 
        0.28843         308.789         243.871 
       0.294538             294         235.035 
       0.300721         290.668         227.135 
        0.30691         277.171         219.414 
       0.313033          270.31         211.455 
       0.319153         259.428         203.017 
       0.325316         252.366         194.281 
        0.33145         242.731         185.725 
       0.337538         238.041         177.783 
       0.343633         229.282         170.622 
       0.349808         221.173         164.237 
       0.355968         217.615         158.607 
       0.362074         212.356         153.511 
       0.368217         206.075         148.636 
       0.374374          197.99         143.792 
       0.380519         195.148         138.934 
       0.386598         189.736         134.128 
       0.392688         186.521         129.396 
        0.39888         181.511         124.798 
       0.405048         176.454         120.512 
       0.411186         172.565         116.569 
       0.417313         168.736         112.944 
       0.423458         164.811         109.549 
       0.429607         161.197         106.315 
       0.435692         156.053         103.222 
       0.441815         154.447         100.174 
       0.447964         151.224         97.1631 
       0.454126         145.056         94.2228 
       0.460267         143.107          91.397 
       0.466387         141.109         88.7041 
        0.47254         137.577         86.1335 
       0.478662         136.807         83.7191 
       0.484765         132.013          81.436 
       0.490885         129.955         79.2455 
       0.497035         127.992         77.1226 
       0.503198         124.564         75.0635 
       0.509342         122.696         73.0699 
       0.515458         120.725         71.1398 
       0.521598         118.307         69.2606 
       0.527764         116.804         67.4412 
       0.533884         115.013         65.7086 
           0.54         112.747         64.0492 
       0.546137         111.637         62.4495 
       0.552299         109.481         60.9033 
       0.558452         107.707         59.4143 
       0.564573         105.875         57.9822 
       0.570708         103.732          56.592 
       0.576825         102.491          55.247 
       0.582926         100.315         53.9449 
       0.589034          98.985         52.6809 
       0.595184         97.6199         51.4494 
       0.601379         96.0751         50.2519 
       0.607522          94.186         49.1055 
       0.613639         93.4909         48.0024 
       0.619772         91.5827         46.9317 
       0.625918         90.3325         45.8916 
       0.632068          89.271         44.8814 
       0.638161         88.3224         43.9095 
         0.6443         87.1231          42.959 
       0.650464         86.1934         42.0329 
       0.656582         84.5894         41.1411 
       0.662703         83.4563         40.2755 
       0.668861         82.1174         39.4305 
       0.675024         81.1591         38.6094 
       0.681124         80.4065         37.8203 
       0.687237         78.8368         37.0518 
       0.693381         77.7511         36.3011 
       0.699536          77.111         35.5699 
       0.705665           76.88          34.862 
       0.711789         75.1284         34.1741 
       0.717957         74.7447         33.5002 
        0.72409         73.4189         32.8484 
       0.730186         72.3033          32.218 
       0.736317         71.9475         31.6009 
       0.742472         71.2231         30.9979 
       0.748622         70.3164         30.4113 
        0.75476         69.5874         29.8412 
       0.760888         68.6224         29.2866 
       0.767043          68.099          28.744 
       0.773185         67.2807         28.2163 
       0.779291          66.352         27.7048 
       0.785407         65.8851         27.2054 
       0.791564         65.3795         26.7151 
       0.797719         64.0365         26.2372 
       0.803834         63.7411         25.7741 
       0.809972         62.7826         25.3206 
       0.816124         62.3974         24.8771 
       0.822261         61.8705         24.4454 
       0.828378          61.401         24.0254 
       0.834502         60.7654         23.6149 
       0.840667         59.9949         23.2115 
       0.846816         59.1917         22.8186 
       0.852925         58.7718         22.4373 
       0.859047         57.9831          22.064 
       0.865192         57.6329          21.698 
       0.871341         57.1657         21.3401 
       0.877463         56.2837         20.9919 
       0.883569         56.0296         20.6524 
       0.889708          55.505         20.3187 
       0.895864         55.0845         19.9915 
       0.902008         54.5393         19.6723 
       0.908149         54.1233         19.3602 
       0.914301         53.5782         19.0545 
       0.920448         53.1783         18.7556 
       0.926574         52.5732         18.4643 
       0.932687         52.4826         18.1797 
       0.938823         51.6558         17.9002 
       0.944975         51.1618         17.6259 
       0.951105         50.7543         17.3584 
       0.957225         50.2162         17.0969 
       0.963368         49.9838           16.84 
       0.969511         49.6805         16.5883 
       0.975621         49.3812         16.3432 
       0.981748         48.7893         16.1024 
       0.987916         48.3251         15.8649 
        0.99406         48.0573         15.6331 
        1.00019         47.6276         15.4065 
        1.00632         47.2693         15.1845 
        1.01246         46.9723         14.9667 
        1.01859         46.3339         14.7534 
        1.02471         46.1665         14.5446 
        1.03085         45.7792         14.3391 
        1.03698         45.4314          14.138 
        1.04314          45.058           13.94 
        1.04929         44.7047         13.7462 
        1.05541         44.2326         13.5569 
        1.06154         44.2363         13.3707 
        1.06769         43.7852         13.1877 
        1.07382         43.5578         13.0087 
        1.07993         43.2478         12.8335 
        1.08607         42.9174         12.6608 
        1.09222         42.6527         12.4911 
        1.09836         42.2446         12.3247 
        1.10449          42.069         12.1615 
        1.11063         41.5979         12.0011 
        1.11677          41.365         11.8437 
         1.1229         41.0155         11.6894 
        1.12903         40.5421         11.5377 
        1.13518         40.6875         11.3886 
        1.14131         40.3624         11.2422 
        1.14745         39.8834         11.0985 
        1.15359         39.7646         10.9572 
        1.15973         39.3062         10.8184 
        1.16584         39.1276         10.6826 
        1.17197         38.8696         10.5489 
        1.17811         38.7216         10.4171 
        1.18424         38.3404          10.288 
        1.19038          38.064         10.1607 
        1.19652         37.9887         10.0356 
        1.20267         37.5839         9.91259 
        1.20881         37.4376         9.79168 
        1.21495         37.0916         9.67299 
        1.22108         37.0129         9.55628 
         1.2272         36.5368         9.44178 
        1.23334         36.3877         9.32889 
        1.23949         36.3614         9.21759 
        1.24562         35.9072         9.10841 
        1.25174         35.8125         9.00117 
        1.25789         35.6642         8.89532 
        1.26402         35.3222         8.79138 
        1.27014         35.0505         8.68935 
        1.27628         34.8327         8.58863 
        1.28244          34.697         8.48933 
        1.28858         34.5291         8.39172 
        1.29471         34.3665         8.29587 
        1.30084          34.166          8.2016 
        1.30697         33.9175         8.10866 
        1.31312         33.6834         8.01702 
        1.31925         33.5011         7.92709 
        1.32537         33.3494         7.83863 
        1.33151         33.0634         7.75119 
        1.33765         32.9458         7.66515 
        1.34378         32.7409         7.58058 
        1.34992         32.5428         7.49723 
        1.35606         32.3693         7.41495 
         1.3622         32.1916         7.33406 
        1.36833         31.9542         7.25457 
        1.37445         31.8316          7.1763 
        1.38059         31.6201         7.09894 
        1.38675         31.3753         7.02254 
        1.39288         31.3199         6.94758 
        1.39901         31.1303         6.87374 
        1.40515         30.9209         6.80081 
         1.4113         30.7696         6.72897 
        1.41742         30.6426         6.65844 
        1.42355         30.4149         6.58879 
         1.4297         30.3018         6.51993 
        1.43585         30.2001         6.45208 
        1.44198         29.8784         6.38546 
        1.44809         29.8312          6.3199 
        1.45423         29.6474         6.25502 
        1.46036         29.5561         6.19118 
        1.46649         29.3645          6.1282 
        1.47263         29.1727         6.06605 
        1.47877         29.0434         6.00479 
        1.48491         29.0524         5.94427 
        1.49104         28.7357         5.88472 
        1.49718         28.4753         5.82594 
        1.50333         28.5208         5.76787 
        1.50947         28.3543         5.71071 
         1.5156         28.1695         5.65441 
        1.52172         28.0834         5.59886 
        1.52787         27.9556         5.54395 
          1.534         27.7996         5.48984 
        1.54013         27.5968         5.43651 
        1.54627         27.5317         5.38379 
        1.55241         27.2492         5.33176 
        1.55855          27.233         5.28049 
        1.56467         26.9518         5.23004 
         1.5708         27.0358          5.1801 
        1.57695         26.7931         5.13074 
        1.58308         26.6436         5.08214 
        1.58922         26.5881         5.03414 
        1.59535         26.4642         4.98677 
         1.6015         26.2606         4.93994 
        1.60764         26.0908         4.89374 
        1.61376         25.9921         4.84826 
        1.61989         25.8671         4.80332 
        1.62604         25.7666         4.75885 
        1.63218         25.7196         4.71496 
        1.63831         25.5193         4.67174 
        1.64444         25.4098         4.62904 
        1.65059         25.3052         4.58677 
        1.65673         25.1439         4.54507 
        1.66285         25.0563         4.50401 
        1.66898         24.9209         4.46345 
        1.67512         24.8061          4.4233 
        1.68127         24.6661         4.38362 
         1.6874         24.5365          4.3445 
        1.69353         24.4591         4.30589 
        1.69967           24.33         4.26766 
        1.70581         24.2676          4.2299 
        1.71193         24.1699         4.19275 
        1.71806         23.9474         4.15596 
        1.72421         23.8668         4.11955 
        1.73035         23.7487          4.0836 
        1.73649         23.6313          4.0481 
        1.74262         23.5484         4.01304 
        1.74876         23.4904         3.97838 
        1.75489         23.3629         3.94419 
        1.76101         23.2401         3.91042 
        1.76715         23.1646           3.877 
        1.77329          23.104         3.84392 
        1.77943         22.9961         3.81122 
        1.78557          22.797         3.77894 
        1.79171          22.713         3.74703 
        1.79785          22.607         3.71549 
        1.80399         22.5886         3.68431 
        1.81012         22.4279         3.65353 
        1.81625         22.3659         3.62312 
        1.82239         22.2322         3.59301 
        1.82853         22.1529         3.56325 
        1.83466         22.0572         3.53386 
        1.84078         21.8658         3.50484 
        1.84692         21.8269         3.47609 
        1.85306         21.7241         3.44763 
         1.8592         21.6232         3.41953 
        1.86533         21.5411         3.39176 
        1.87147         21.4935         3.36427 
        1.87761         21.3854         3.33707 
        1.88375         21.2924          3.3102 
        1.88988         21.2133         3.28365 
        1.89601         21.1262         3.25739 
        1.90215         21.0129         3.23138 
        1.90829          20.944         3.20568 
        1.91442         20.8532         3.18025 
        1.92056         20.7579         3.15512 
         1.9267         20.6739         3.13024 
        1.93284         20.5239         3.10561 
        1.93897         20.5158         3.08129 
        1.94509         20.3984         3.05728 
        1.95123         20.3238         3.03347 
        1.95737          20.208          3.0099 
        1.96349         20.1574         2.98663 
        1.96964         20.0698         2.96355 
        1.97578         19.9293          2.9407 
        1.98192         19.8742         2.91813 
        1.98805         19.8284          2.8958 
        1.99419          19.731          2.8737 
        2.00033          19.636         2.85182 
        2.00647         19.5507         2.83018 
         2.0126         19.4747         2.80879 
        2.01874         19.3996         2.78759 
        2.02488         19.3344          2.7666 
        2.03101          19.256         2.74585 
        2.03714         19.1693         2.72534 
        2.04328         19.0727         2.70502 
        2.04941          18.992         2.68492 
        2.05554         18.9396         2.66503 
        2.06167         18.8508         2.64532 
        2.06781         18.7707         2.62581 
        2.07396         18.7198         2.60647 
        2.08009         18.6578         2.58735 
        2.08622         18.5148         2.56845 
        2.09237         18.4842          2.5497 
        2.09851         18.4108         2.53113 
        2.10464         18.3046         2.51278 
        2.11077         18.2428         2.49463 
        2.11691          18.196         2.47662 
        2.12305         18.1402         2.45879 
        2.12918         18.0301         2.44117 
        2.13531         18.0023         2.42373 
        2.14145         17.9357         2.40642 
         2.1476         17.8479         2.38925 
        2.15372          17.748         2.37234 
        2.15985         17.6733         2.35558 
        2.16599         17.6359         2.33892 
        2.17213         17.5595         2.32245 
        2.17827         17.4605         2.30614 
         2.1844         17.3849            2.29 
        2.19054         17.3477         2.27401 
        2.19666         17.2745          2.2582 
         2.2028         17.1957         2.24252 
        2.20893          17.146         2.22698 
        2.21508         17.0819         2.21157 
        2.22122         16.9499          2.1963 
        2.22736         16.9347         2.18121 
        2.23349         16.8681         2.16626 
        2.23962         16.8082         2.15145 
        2.24577         16.7229         2.13676 
         2.2519         16.6867         2.12223 
        2.25802          16.579         2.10785 
        2.26417         16.5679         2.09357 
        2.27031         16.4631         2.07941 
        2.27644         16.4095         2.06542 
        2.28257         16.3392         2.05156 
        2.28872         16.2684          2.0378 
        2.29486         16.2302         2.02417 
        2.30099         16.1408         2.01069 
        2.30712         16.0976         1.99733 
        2.31326         16.0661         1.98406 
         2.3194         15.9911         1.97093 
        2.32553         15.9145         1.95793 
        2.33166         15.8389         1.94506 
         2.3378          15.799         1.93229 
        2.34394         15.7205         1.91962 
        2.35007         15.6821         1.90709 
        2.35619         15.6019         1.89469 
        2.36233          15.545         1.88236 
        2.36848         15.4982         1.87012 
        2.37462         15.4151         1.85801 
        2.38075         15.3757         1.84602 
        2.38689         15.3208         1.83413 
        2.39303         15.2514         1.82235 
        2.39916         15.1973         1.81068 
        2.40529         15.1655         1.79911 
        2.41143         15.0829         1.78764 
        2.41757          15.033         1.77626 
         2.4237         14.9618           1.765 
        2.42983         14.8795         1.75383 
        2.43598         14.8646         1.74274 
        2.44211         14.8093         1.73176 
        2.44823          14.769          1.7209 
        2.45437         14.6778          1.7101 
        2.46052         14.6438         1.69939 
        2.46665         14.6054         1.68878 
        2.47279         14.5344         1.67827 
        2.47892         14.4868         1.66784 
        2.48507         14.4164          1.6575 
         2.4912          14.393         1.64725 
