# k  (h/Mpc)    Pcb(k)  (Mpc/h)^3    Pcb_linear(k)  (Mpc/h)^3
     0.00783031         321.297         324.195 
       0.013688         396.567         397.969 
       0.019231         400.482         400.794 
      0.0249154         366.998          368.32 
      0.0312784         316.198         316.225 
      0.0375637         267.071         266.478 
      0.0433917         229.696         229.584 
      0.0492413         203.333         202.906 
      0.0555754         183.309         183.552 
      0.0619321          170.71         170.134 
       0.067871         159.181         159.436 
      0.0738098         147.811         148.089 
      0.0800417         134.059         134.496 
      0.0862327          119.76          119.82 
      0.0921407         106.132         106.056 
      0.0982031         93.5592          93.572 
       0.104506         83.7001         83.2953 
       0.110769         76.3338         75.9899 
       0.116806         71.2716         71.2301 
       0.122832         68.1002         67.9052 
       0.129052         64.9785          65.029 
       0.135211         61.8781         61.9585 
       0.141259         58.4102         58.3299 
       0.147318          54.335            54.1 
       0.153489           49.66         49.5162 
       0.159709         45.2785         45.0915 
       0.165845         41.7274         41.3159 
       0.171974         38.5247         38.3347 
       0.178125          36.375         36.1291 
       0.184229         34.8346         34.5475 
        0.19034         33.4021         33.3097 
       0.196428         32.3555         32.1551 
       0.202534         31.2124         30.8763 
       0.208729         29.5981         29.3657 
       0.214876         27.8535         27.6859 
       0.220989         26.2656         25.9505 
       0.227147         24.4668         24.2789 
        0.23329         23.0031         22.8038 
       0.239377         21.8347         21.5916 
       0.245482         20.7856         20.6215 
       0.251667         20.1179         19.8349 
       0.257832          19.401         19.1662 
       0.263955         18.7861         18.5341 
       0.270079         18.1207         17.8728 
        0.27624         17.4754         17.1533 
       0.282372         16.7131         16.3904 
        0.28843         15.8901         15.6238 
       0.294538         15.1563         14.8785 
       0.300721         14.5367         14.1885 
        0.30691         13.8534         13.5827 
       0.313033         13.3532         13.0673 
       0.319153         12.8155         12.6215 
       0.325316         12.5362         12.2175 
        0.33145         12.1325         11.8357 
       0.337538         11.7443         11.4572 
       0.343633         11.3247         11.0697 
       0.349808         10.9589          10.669 
       0.355968         10.5596         10.2695 
       0.362074         10.1633         9.88595 
       0.368217         9.81196         9.52271 
       0.374374         9.44329         9.18885 
       0.380519         9.17133         8.88629 
       0.386598          8.9153         8.61377 
       0.392688         8.67763         8.36086 
        0.39888         8.41603         8.11599 
       0.405048         8.18364         7.87847 
       0.411186         7.95438         7.64455 
       0.417313         7.69699         7.41231 
       0.423458         7.48412         7.18317 
       0.429607         7.24081         6.96035 
       0.435692         7.02652         6.74921 
       0.441815          6.8324         6.54871 
       0.447964         6.67253         6.35989 
       0.454126         6.45725         6.18216 
       0.460267         6.29644         6.01498 
       0.466387         6.11592         5.85589 
        0.47254         5.97707         5.70102 
       0.478662         5.83664         5.55069 
       0.484765         5.66884         5.40424 
       0.490885          5.5264         5.26073 
       0.497035         5.42433         5.12038 
       0.503198         5.26761         4.98471 
       0.509342         5.14011         4.85515 
       0.515458         5.00884         4.73189 
       0.521598         4.89321         4.61356 
       0.527764         4.76342         4.49986 
       0.533884         4.67677         4.39149 
           0.54         4.56187         4.28687 
       0.546137         4.46459         4.18486 
       0.552299         4.36504         4.08512 
       0.558452         4.24763         3.98829 
       0.564573         4.16735         3.89476 
       0.570708         4.07469         3.80388 
       0.576825         3.97371          3.7162 
       0.582926         3.90009         3.63172 
       0.589034          3.7925         3.55015 
       0.595184         3.72142         3.47095 
       0.601379         3.64001         3.39391 
       0.607522         3.57886         3.31989 
       0.613639         3.51852          3.2483 
       0.619772         3.42401         3.17849 
       0.625918         3.36753         3.11048 
       0.632068         3.30909         3.04434 
       0.638161         3.23197         2.98069 
         0.6443         3.16578         2.91842 
       0.650464         3.09528         2.85772 
       0.656582          3.0491         2.79924 
       0.662703         2.99015         2.74245 
       0.668861         2.94159         2.68699 
       0.675024         2.87703         2.63309 
       0.681124         2.81735         2.58127 
       0.687237         2.77576         2.53075 
       0.693381         2.72574         2.48134 
       0.699536         2.65668         2.43313 
       0.705665         2.61473         2.38638 
       0.711789          2.5726         2.34087 
       0.717957         2.52196         2.29624 
        0.72409         2.47884         2.25304 
       0.730186         2.43347         2.21123 
       0.736317         2.40659          2.1703 
       0.742472         2.36223         2.13029 
       0.748622         2.31526         2.09134 
        0.75476         2.27092         2.05348 
       0.760888          2.2326         2.01661 
       0.767043         2.20779         1.98051 
       0.773185         2.16087         1.94536 
       0.779291         2.13011         1.91127 
       0.785407           2.094         1.87794 
       0.791564         2.06233          1.8452 
       0.797719         2.03225         1.81326 
       0.803834         2.00231         1.78229 
       0.809972          1.9692         1.75194 
       0.816124         1.93339         1.72224 
       0.822261         1.89894         1.69332 
       0.828378         1.87437         1.66516 
       0.834502         1.85208         1.63762 
       0.840667         1.81202         1.61054 
       0.846816         1.78537         1.58415 
       0.852925         1.76758         1.55852 
       0.859047         1.74056         1.53341 
       0.865192         1.71213         1.50877 
       0.871341         1.68779         1.48466 
       0.877463         1.66799         1.46119 
       0.883569         1.63718         1.43829 
       0.889708         1.61307         1.41577 
       0.895864         1.59132         1.39368 
       0.902008          1.5646          1.3721 
       0.908149         1.54532           1.351 
       0.914301         1.51519         1.33031 
       0.920448         1.49743         1.31008 
       0.926574         1.47547         1.29034 
       0.932687         1.45508         1.27105 
       0.938823          1.4418         1.25209 
       0.944975         1.41986         1.23348 
       0.951105         1.40223         1.21531 
       0.957225         1.38746         1.19755 
       0.963368         1.36656         1.18008 
       0.969511         1.34565         1.16296 
       0.975621         1.32467         1.14628 
       0.981748         1.31306         1.12988 
       0.987916         1.29369          1.1137 
        0.99406         1.27397         1.09791 
        1.00019         1.26267         1.08245 
        1.00632         1.24162         1.06731 
        1.01246         1.22636         1.05243 
        1.01859         1.21298         1.03787 
        1.02471         1.19549          1.0236 
        1.03085         1.18466         1.00956 
        1.03698         1.16628        0.995804 
        1.04314         1.15391        0.982251 
        1.04929         1.13732        0.968984 
        1.05541         1.12574        0.956018 
        1.06154         1.11032        0.943258 
        1.06769         1.09645        0.930713 
        1.07382         1.08393         0.91844 
        1.07993         1.06736        0.906416 
        1.08607         1.06079         0.89456 
        1.09222         1.04476        0.882905 
        1.09836         1.03673        0.871473 
        1.10449         1.02383        0.860257 
        1.11063         1.00837        0.849227 
        1.11677        0.995448        0.838395 
         1.1229        0.985594        0.827772 
        1.12903        0.972977        0.817325 
        1.13518        0.964427         0.80705 
        1.14131        0.951198        0.796958 
        1.14745        0.935123        0.787045 
        1.15359        0.929497          0.7773 
        1.15973        0.915437        0.767717 
        1.16584        0.910907        0.758339 
        1.17197        0.899124        0.749105 
        1.17811        0.890057        0.739998 
        1.18424        0.882504        0.731069 
        1.19038        0.869783        0.722263 
        1.19652        0.858495        0.713605 
        1.20267        0.853111         0.70509 
        1.20881        0.840801        0.696717 
        1.21495        0.834536        0.688494 
        1.22108        0.825155        0.680405 
         1.2272        0.818251        0.672466 
        1.23334        0.807735        0.664637 
        1.23949        0.798934        0.656914 
        1.24562        0.791404        0.649336 
        1.25174        0.783585        0.641889 
        1.25789         0.77593        0.634538 
        1.26402        0.765282        0.627315 
        1.27014        0.757872        0.620223 
        1.27628        0.753247         0.61322 
        1.28244         0.74164        0.606312 
        1.28858        0.735408         0.59952 
        1.29471         0.72968        0.592848 
        1.30084        0.720649        0.586284 
        1.30697        0.713555         0.57981 
        1.31312        0.703542        0.573425 
        1.31925        0.698923        0.567157 
        1.32537        0.693023        0.560989 
        1.33151        0.687156        0.554891 
        1.33765        0.679566        0.548888 
        1.34378          0.6708        0.542985 
        1.34992        0.666738        0.537166 
        1.35606        0.658882         0.53142 
         1.3622        0.653257        0.525768 
        1.36833        0.646596        0.520213 
        1.37445        0.638421         0.51474 
        1.38059        0.633251         0.50933 
        1.38675        0.631485        0.503985 
        1.39288        0.622838        0.498738 
        1.39901        0.617267        0.493568 
        1.40515        0.612032        0.488461 
         1.4113         0.60507        0.483428 
        1.41742        0.599521        0.478485 
        1.42355        0.596922        0.473602 
         1.4297        0.588679        0.468773 
        1.43585        0.583757        0.464013 
        1.44198        0.581205        0.459339 
        1.44809        0.573388        0.454737 
        1.45423        0.568571        0.450182 
        1.46036        0.563569        0.445698 
        1.46649        0.559097        0.441273 
        1.47263        0.553497        0.436905 
        1.47877        0.547762        0.432599 
        1.48491        0.543578        0.428344 
        1.49104        0.537569        0.424155 
        1.49718        0.534283         0.42002 
        1.50333         0.52974        0.415933 
        1.50947        0.525295         0.41191 
         1.5156         0.51989        0.407946 
        1.52172        0.515785        0.404034 
        1.52787        0.510926        0.400166 
          1.534        0.507168        0.396353 
        1.54013        0.501719        0.392594 
        1.54627        0.498111        0.388877 
        1.55241        0.493333        0.385208 
        1.55855        0.488704        0.381592 
        1.56467        0.487053        0.378032 
         1.5708        0.481323        0.374508 
        1.57695        0.478036        0.371023 
        1.58308        0.473877        0.367591 
        1.58922        0.469982          0.3642 
        1.59535        0.465804        0.360853 
         1.6015        0.462112        0.357544 
        1.60764         0.45875        0.354277 
        1.61376         0.45366        0.351061 
        1.61989        0.451239        0.347882 
        1.62604        0.447292        0.344735 
        1.63218        0.444407         0.34163 
        1.63831        0.440515         0.33857 
        1.64444        0.436633        0.335546 
        1.65059        0.433624        0.332552 
        1.65673        0.429659        0.329598 
        1.66285        0.426758        0.326689 
        1.66898        0.424018        0.323814 
        1.67512        0.419485        0.320967 
        1.68127        0.415897        0.318153 
         1.6874        0.414226        0.315378 
        1.69353        0.410014        0.312639 
        1.69967        0.407315        0.309926 
        1.70581        0.403689        0.307246 
        1.71193         0.40088        0.304608 
        1.71806        0.397512        0.301995 
        1.72421        0.394817        0.299408 
        1.73035        0.391251        0.296854 
        1.73649        0.389218        0.294331 
        1.74262        0.386051        0.291839 
        1.74876        0.382709        0.289375 
        1.75489         0.38008        0.286944 
        1.76101        0.376862        0.284542 
        1.76715        0.374191        0.282164 
        1.77329        0.371404         0.27981 
        1.77943        0.368424        0.277483 
        1.78557        0.366299        0.275185 
        1.79171        0.363668        0.272913 
        1.79785        0.360733        0.270666 
        1.80399        0.358002        0.268445 
        1.81012        0.355897        0.266253 
        1.81625        0.353005        0.264085 
        1.82239        0.350924        0.261939 
        1.82853        0.347191        0.259817 
        1.83466        0.345325        0.257721 
        1.84078        0.342421         0.25565 
        1.84692        0.340412        0.253599 
        1.85306        0.338436        0.251568 
         1.8592        0.335889        0.249562 
        1.86533        0.333752         0.24758 
        1.87147        0.331245        0.245616 
        1.87761         0.32922        0.243674 
        1.88375        0.325926        0.241754 
        1.88988        0.324275        0.239857 
        1.89601        0.321655         0.23798 
        1.90215        0.319882        0.236121 
        1.90829        0.317344        0.234283 
        1.91442        0.315507        0.232465 
        1.92056        0.313173        0.230667 
         1.9267        0.310718        0.228887 
        1.93284         0.30879        0.227125 
        1.93897        0.306787        0.225384 
        1.94509         0.30502        0.223666 
        1.95123        0.302446        0.221961 
        1.95737        0.300982        0.220272 
        1.96349        0.298583        0.218606 
        1.96964        0.296498        0.216952 
        1.97578        0.294415        0.215314 
        1.98192        0.293024        0.213697 
        1.98805        0.291138        0.212096 
        1.99419        0.288815        0.210512 
        2.00033        0.287092        0.208943 
        2.00647        0.285641         0.20739 
         2.0126        0.283187        0.205856 
        2.01874        0.281711        0.204335 
        2.02488         0.28003        0.202828 
        2.03101         0.27777         0.20134 
        2.03714        0.275966        0.199867 
        2.04328        0.274489        0.198408 
        2.04941        0.272644        0.196964 
        2.05554        0.270978        0.195536 
        2.06167        0.269598         0.19412 
        2.06781         0.26679        0.192718 
        2.07396        0.265369        0.191328 
        2.08009        0.263755        0.189954 
        2.08622        0.262364        0.188595 
        2.09237        0.261191        0.187247 
        2.09851        0.259466        0.185911 
        2.10464        0.257734        0.184591 
        2.11077        0.255959        0.183286 
        2.11691         0.25431         0.18199 
        2.12305        0.252768        0.180706 
        2.12918        0.251437        0.179438 
        2.13531        0.249609        0.178182 
        2.14145        0.248085        0.176936 
         2.1476        0.246752        0.175699 
        2.15372        0.245643        0.174481 
        2.15985        0.243671        0.173273 
        2.16599        0.241887        0.172074 
        2.17213        0.240976        0.170886 
        2.17827        0.239507        0.169711 
         2.1844        0.238285        0.168547 
        2.19054        0.236588        0.167394 
        2.19666        0.234661        0.166253 
         2.2028        0.233842        0.165122 
        2.20893         0.23269        0.164001 
        2.21508        0.230717         0.16289 
        2.22122        0.229293        0.161788 
        2.22736          0.2283        0.160698 
        2.23349        0.226918        0.159619 
        2.23962        0.225909         0.15855 
        2.24577        0.224034        0.157489 
         2.2519        0.223281        0.156439 
        2.25802        0.221546        0.155401 
        2.26417        0.220364        0.154369 
        2.27031        0.218966        0.153346 
        2.27644        0.217893        0.152335 
        2.28257        0.216584        0.151333 
        2.28872        0.215382        0.150338 
        2.29486        0.214138        0.149352 
        2.30099        0.213057        0.148377 
        2.30712        0.211905        0.147411 
        2.31326        0.210262        0.146451 
         2.3194        0.210137        0.145501 
        2.32553        0.208841        0.144561 
        2.33166        0.207601        0.143629 
         2.3378        0.206382        0.142704 
        2.34394        0.204776        0.141788 
        2.35007        0.203887         0.14088 
        2.35619        0.202543        0.139982 
        2.36233        0.201184        0.139089 
        2.36848        0.200467        0.138202 
        2.37462        0.199115        0.137325 
        2.38075        0.198524        0.136457 
        2.38689        0.197211        0.135595 
        2.39303        0.196587        0.134741 
        2.39916        0.194808        0.133895 
        2.40529        0.194021        0.133056 
        2.41143         0.19307        0.132224 
        2.41757          0.1919        0.131399 
         2.4237        0.190989        0.130582 
        2.42983        0.189811        0.129772 
        2.43598        0.189319        0.128967 
        2.44211        0.188071         0.12817 
        2.44823         0.18741        0.127382 
        2.45437        0.185793        0.126598 
        2.46052        0.185154         0.12582 
        2.46665        0.184046        0.125051 
        2.47279        0.183021        0.124287 
        2.47892        0.182064         0.12353 
        2.48507        0.181003        0.122778 
         2.4912         0.18035        0.122034 
