# k  (h/Mpc)    P(k)  (Mpc/h)^3    P_linear(k)  (Mpc/h)^3
     0.00783031         3176.52         3209.24 
       0.013688          3589.5         3644.15 
       0.019231          3411.6         3435.28 
      0.0249154         2970.83          2962.2 
      0.0312784         2388.59         2387.83 
      0.0375637         1916.48         1921.22 
      0.0433917         1622.58         1616.74 
      0.0492413          1419.2         1419.62 
      0.0555754         1293.75          1287.1 
      0.0619321         1178.66         1190.95 
       0.067871         1099.43         1101.04 
      0.0738098         997.013         996.076 
      0.0800417         876.924          872.27 
      0.0862327         752.134         749.739 
      0.0921407         651.541         647.796 
      0.0982031         575.257         567.255 
       0.104506         512.501           510.5 
       0.110769         478.727         475.719 
       0.116806         460.348         453.888 
       0.122832         437.202         434.798 
       0.129052         415.124          411.19 
       0.135211         387.982          381.31 
       0.141259         352.011         347.305 
       0.147318         315.852         312.632 
       0.153489         286.317         280.992 
       0.159709         263.481         255.682 
       0.165845         241.773         237.777 
       0.171974          234.01         225.654 
       0.178125         224.337         216.942 
       0.184229          214.02         209.211 
        0.19034         207.039          200.46 
       0.196428         196.674         189.899 
       0.202534         181.646          177.75 
       0.208729         172.156          164.92 
       0.214876         161.554         152.962 
       0.220989         149.124         142.773 
       0.227147         143.332         134.599 
        0.23329         137.096         128.343 
       0.239377         132.821         123.442 
       0.245482         127.207         119.104 
       0.251667         121.649         114.673 
       0.257832          118.85          109.86 
       0.263955         111.844         104.651 
       0.270079         106.367         99.2399 
        0.27624         100.838         93.9394 
       0.282372         96.5261         89.1112 
        0.28843          94.094         84.9598 
       0.294538         89.7665         81.4028 
       0.300721         85.8333         78.3333 
        0.30691         84.0141          75.589 
       0.313033          80.624         73.0056 
       0.319153         78.9125         70.4076 
       0.325316          75.384         67.7278 
        0.33145         72.4668         65.0169 
       0.337538         69.8241         62.3667 
       0.343633         67.5755         59.8373 
       0.349808         65.0236         57.4753 
       0.355968         62.8785         55.3423 
       0.362074         61.5275         53.4366 
       0.368217         59.6193         51.6818 
       0.374374         58.1012         50.0265 
       0.380519         55.6886         48.4313 
       0.386598         54.0492         46.8745 
       0.392688         52.2498         45.3317 
        0.39888         51.1896         43.7928 
       0.405048         49.8104          42.309 
       0.411186          48.366         40.9049 
       0.417313         46.9106         39.5892 
       0.423458         45.4845         38.3541 
       0.429607         44.6094         37.1977 
       0.435692         43.8271          36.116 
       0.441815         42.1248         35.0726 
       0.447964         40.7614         34.0586 
       0.454126         40.0184         33.0708 
       0.460267         39.5116         32.1111 
       0.466387         38.3323         31.1831 
        0.47254         37.7105         30.2847 
       0.478662         36.4077         29.4294 
       0.484765         35.6122         28.6154 
       0.490885         34.5324         27.8374 
       0.497035         33.9894         27.0917 
       0.503198         33.2525         26.3753 
       0.509342         32.2703         25.6865 
       0.515458         31.7811         25.0226 
       0.521598          30.999         24.3768 
       0.527764         30.5096         23.7485 
       0.533884         29.8504         23.1447 
           0.54         29.2046         22.5618 
       0.546137         28.3108          21.998 
       0.552299         27.7751         21.4536 
       0.558452         27.1448         20.9307 
       0.564573         26.8679         20.4292 
       0.570708         26.1553         19.9434 
       0.576825          25.786         19.4747 
       0.582926         25.3059         19.0218 
       0.589034         24.7656         18.5824 
       0.595184         24.4436         18.1535 
       0.601379         23.7739         17.7347 
       0.607522         23.3216         17.3324 
       0.613639         22.9689         16.9444 
       0.619772         22.5186         16.5678 
       0.625918         22.0939         16.2025 
       0.632068         21.8614         15.8486 
       0.638161         21.3924         15.5087 
         0.6443         21.0556         15.1763 
       0.650464         20.5093         14.8524 
       0.656582         20.3699         14.5399 
       0.662703         20.0693         14.2363 
       0.668861         19.5446         13.9395 
       0.675024         19.2697         13.6511 
       0.681124         19.1694         13.3738 
       0.687237          18.756         13.1039 
       0.693381         18.3478         12.8403 
       0.699536         18.2299         12.5837 
       0.705665         17.8617         12.3352 
       0.711789         17.5608         12.0937 
       0.717957         17.1884         11.8569 
        0.72409         17.0147         11.6279 
       0.730186         16.9178         11.4063 
       0.736317         16.5416         11.1892 
       0.742472         16.3423         10.9771 
       0.748622          16.072         10.7707 
        0.75476         15.6658         10.5701 
       0.760888         15.6147          10.375 
       0.767043         15.3148         10.1841 
       0.773185         15.1232          9.9984 
       0.779291         14.9577         9.81845 
       0.785407          14.722         9.64269 
       0.791564         14.6003         9.47016 
       0.797719         14.2541         9.30194 
       0.803834         14.2001          9.1389 
       0.809972         13.9086          8.9792 
       0.816124         13.7564         8.82298 
       0.822261         13.5901         8.67091 
       0.828378         13.4391         8.52291 
       0.834502         13.2849         8.37825 
       0.840667         13.1263         8.23604 
       0.846816         12.8362         8.09754 
       0.852925         12.7941         7.96312 
       0.859047         12.6201         7.83148 
       0.865192         12.4378          7.7024 
       0.871341         12.2807         7.57616 
       0.877463         12.1196         7.45333 
       0.883569         12.0355         7.33355 
       0.889708         11.8326          7.2158 
       0.895864         11.6784         7.10035 
       0.902008         11.5512         6.98767 
       0.908149         11.3776         6.87751 
       0.914301         11.2978         6.76955 
       0.920448         11.1457         6.66403 
       0.926574         11.0671         6.56113 
       0.932687         10.8893         6.46063 
       0.938823         10.7348         6.36189 
       0.944975         10.6748         6.26499 
       0.951105         10.5403         6.17047 
       0.957225         10.4602         6.07807 
       0.963368         10.2913         5.98726 
       0.969511         10.1834          5.8983 
       0.975621         10.0899         5.81164 
       0.981748         9.95243         5.72651 
       0.987916         9.87953         5.64256 
        0.99406         9.75218         5.56061 
        1.00019         9.67912         5.48046 
        1.00632         9.60395         5.40198 
        1.01246         9.47088         5.32491 
        1.01859         9.37421         5.24949 
        1.02471         9.26081         5.17562 
        1.03085         9.21051         5.10292 
        1.03698         9.12224         5.03178 
        1.04314         9.00006          4.9617 
        1.04929         8.88641         4.89312 
        1.05541         8.82751         4.82612 
        1.06154         8.74281         4.76022 
        1.06769         8.67434         4.69545 
        1.07382         8.54509          4.6321 
        1.07993         8.47277         4.57006 
        1.08607         8.41847         4.50891 
        1.09222         8.31189         4.44882 
        1.09836         8.25924         4.38989 
        1.10449         8.16021         4.33211 
        1.11063         8.11949          4.2753 
        1.11677         8.05307         4.21953 
         1.1229         7.96897         4.16485 
        1.12903         7.89492          4.1111 
        1.13518         7.80298         4.05826 
        1.14131         7.74601         4.00637 
        1.14745         7.63244         3.95543 
        1.15359         7.56347         3.90536 
        1.15973         7.51077         3.85614 
        1.16584         7.44148         3.80799 
        1.17197         7.36684          3.7606 
        1.17811         7.31294         3.71387 
        1.18424         7.25997         3.66807 
        1.19038         7.21728         3.62291 
        1.19652         7.13756         3.57853 
        1.20267         7.09417          3.5349 
        1.20881         6.99693         3.49201 
        1.21495         6.95347          3.4499 
        1.22108          6.8956         3.40849 
         1.2272          6.8339         3.36786 
        1.23334         6.80513          3.3278 
        1.23949         6.73105         3.28831 
        1.24562         6.67549         3.24956 
        1.25174         6.63815          3.2115 
        1.25789         6.55284         3.17393 
        1.26402         6.51853         3.13703 
        1.27014         6.48466         3.10081 
        1.27628          6.4029         3.06505 
        1.28244         6.38426         3.02979 
        1.28858         6.31886         2.99514 
        1.29471         6.24664          2.9611 
        1.30084          6.1989         2.92763 
        1.30697         6.18071         2.89462 
        1.31312         6.11874         2.86208 
        1.31925         6.07967         2.83014 
        1.32537         6.02746         2.79872 
        1.33151         5.97912         2.76766 
        1.33765         5.93484         2.73709 
        1.34378         5.92005         2.70705 
        1.34992         5.85801         2.67744 
        1.35606          5.8054          2.6482 
         1.3622         5.75725         2.61946 
        1.36833         5.73151         2.59121 
        1.37445         5.68272         2.56339 
        1.38059         5.63017         2.53589 
        1.38675          5.6012         2.50873 
        1.39288          5.5593         2.48208 
        1.39901         5.50756         2.45583 
        1.40515         5.47462          2.4299 
         1.4113         5.43416         2.40435 
        1.41742         5.41029         2.37927 
        1.42355         5.35494          2.3545 
         1.4297         5.31841         2.33001 
        1.43585         5.29496         2.30587 
        1.44198         5.25942         2.28218 
        1.44809         5.21691         2.25886 
        1.45423         5.17747         2.23578 
        1.46036         5.14758         2.21306 
        1.46649         5.11326         2.19065 
        1.47263         5.08081         2.16854 
        1.47877         5.04143         2.14674 
        1.48491         5.02369         2.12521 
        1.49104         4.98039         2.10402 
        1.49718         4.95554          2.0831 
        1.50333         4.91535         2.06243 
        1.50947         4.88109         2.04209 
         1.5156         4.85875         2.02205 
        1.52172         4.81825         2.00228 
        1.52787         4.80148         1.98274 
          1.534         4.75955         1.96348 
        1.54013         4.74262         1.94449 
        1.54627         4.70083         1.92573 
        1.55241         4.66308         1.90721 
        1.55855         4.65115         1.88895 
        1.56467         4.63132         1.87099 
         1.5708         4.58301         1.85321 
        1.57695         4.55143         1.83563 
        1.58308         4.52217         1.81832 
        1.58922         4.50842         1.80122 
        1.59535         4.48403         1.78435 
         1.6015         4.43302         1.76767 
        1.60764         4.41603         1.75122 
        1.61376         4.39503         1.73501 
        1.61989         4.35806           1.719 
        1.62604          4.3448         1.70316 
        1.63218         4.31863         1.68752 
        1.63831         4.29138         1.67212 
        1.64444         4.25735          1.6569 
        1.65059         4.23754         1.64184 
        1.65673         4.21946         1.62698 
        1.66285         4.19193         1.61235 
        1.66898         4.17304         1.59789 
        1.67512         4.14677         1.58358 
        1.68127         4.10789         1.56944 
         1.6874         4.09407         1.55549 
        1.69353         4.06275         1.54173 
        1.69967         4.04728          1.5281 
        1.70581         4.01952         1.51464 
        1.71193         3.99915         1.50139 
        1.71806          3.9748         1.48828 
        1.72421         3.95251         1.47529 
        1.73035         3.93648         1.46247 
        1.73649         3.91517         1.44981 
        1.74262         3.88355         1.43731 
        1.74876          3.8755         1.42495 
        1.75489         3.85085         1.41276 
        1.76101         3.81755         1.40072 
        1.76715         3.81609          1.3888 
        1.77329         3.78749           1.377 
        1.77943         3.75614         1.36534 
        1.78557         3.75411         1.35382 
        1.79171         3.72709         1.34244 
        1.79785         3.71507         1.33119 
        1.80399         3.68366         1.32007 
        1.81012         3.66991         1.30909 
        1.81625         3.64527         1.29824 
        1.82239         3.63265         1.28749 
        1.82853          3.6052         1.27688 
        1.83466         3.57879         1.26639 
        1.84078         3.56559         1.25603 
        1.84692         3.54844         1.24577 
        1.85306         3.53093         1.23561 
         1.8592         3.51816         1.22559 
        1.86533         3.50077         1.21567 
        1.87147         3.48631         1.20586 
        1.87761         3.46558         1.19615 
        1.88375          3.4458         1.18656 
        1.88988         3.43005         1.17709 
        1.89601         3.40687         1.16771 
        1.90215         3.39072         1.15843 
        1.90829         3.38188         1.14925 
        1.91442         3.36157         1.14017 
        1.92056         3.35287          1.1312 
         1.9267         3.32777         1.12231 
        1.93284         3.31637         1.11352 
        1.93897         3.29369         1.10483 
        1.94509         3.26532         1.09626 
        1.95123         3.26716         1.08776 
        1.95737         3.25081         1.07934 
        1.96349         3.23137         1.07103 
        1.96964         3.21147         1.06278 
        1.97578          3.2006         1.05462 
        1.98192         3.18249         1.04656 
        1.98805         3.17092         1.03859 
        1.99419         3.15602         1.03069 
        2.00033         3.13271         1.02288 
        2.00647         3.12807         1.01514 
         2.0126          3.1132          1.0075 
        2.01874         3.09479         0.99993 
        2.02488         3.08707        0.992429 
        2.03101          3.0619        0.985018 
        2.03714         3.04836         0.97769 
        2.04328         3.03947        0.970428 
        2.04941          3.0214        0.963246 
        2.05554         3.01137        0.956141 
        2.06167         3.00231        0.949099 
        2.06781         2.98336        0.942126 
        2.07396         2.96816        0.935214 
        2.08009         2.95804        0.928382 
        2.08622         2.95008        0.921627 
        2.09237          2.9359        0.914925 
        2.09851         2.91586        0.908289 
        2.10464         2.90606        0.901729 
        2.11077         2.89414        0.895242 
        2.11691         2.88095        0.888804 
        2.12305         2.86665         0.88243 
        2.12918         2.85626        0.876133 
        2.13531         2.84467        0.869897 
        2.14145         2.82991        0.863707 
         2.1476         2.81427         0.85757 
        2.15372         2.80064        0.851523 
        2.15985         2.79595        0.845529 
        2.16599         2.78369        0.839575 
        2.17213         2.77833        0.833686 
        2.17827         2.75266        0.827853 
         2.1844         2.74761        0.822082 
        2.19054         2.73832        0.816364 
        2.19666         2.72654        0.810708 
         2.2028          2.7049        0.805101 
        2.20893         2.70819        0.799544 
        2.21508         2.68703        0.794033 
        2.22122         2.67283        0.788572 
        2.22736         2.66191        0.783174 
        2.23349         2.65206        0.777828 
        2.23962         2.64425        0.772528 
        2.24577         2.62908        0.767274 
         2.2519         2.62995        0.762075 
        2.25802         2.60087        0.756933 
        2.26417          2.5982        0.751824 
        2.27031         2.58769        0.746757 
        2.27644         2.57716        0.741752 
        2.28257         2.56721        0.736793 
        2.28872         2.55444         0.73187 
        2.29486         2.54335        0.726992 
        2.30099         2.53677        0.722169 
        2.30712         2.52481        0.717388 
        2.31326         2.51854        0.712642 
         2.3194         2.50235        0.707942 
        2.32553         2.49567        0.703291 
        2.33166         2.48587        0.698685 
         2.3378           2.479        0.694113 
        2.34394          2.4625        0.689581 
        2.35007          2.4554        0.685096 
        2.35619         2.45092        0.680656 
        2.36233         2.43614        0.676245 
        2.36848         2.42704        0.671864 
        2.37462         2.42056        0.667531 
        2.38075         2.41079         0.66324 
        2.38689         2.40256        0.658983 
        2.39303         2.39078        0.654764 
        2.39916         2.38315        0.650587 
        2.40529         2.37162        0.646446 
        2.41143         2.36739        0.642338 
        2.41757         2.35882        0.638264 
         2.4237         2.34791        0.634233 
        2.42983         2.33891        0.630237 
        2.43598         2.33163        0.626265 
        2.44211         2.31845        0.622333 
        2.44823         2.31268        0.618444 
        2.45437          2.3011        0.614578 
        2.46052         2.29624        0.610741 
        2.46665         2.28555        0.606944 
        2.47279          2.2766         0.60318 
        2.47892         2.27115        0.599446 
        2.48507         2.26148         0.59574 
         2.4912         2.25272        0.592072 
