# k  (h/Mpc)    P(k)  (Mpc/h)^3    P_linear(k)  (Mpc/h)^3
     0.00783031         777.038         782.998 
       0.013688         999.091         1009.33 
       0.019231         1062.32         1067.09 
      0.0249154         1031.34         1031.96 
      0.0312784         936.179         937.778 
      0.0375637         829.609         831.927 
      0.0433917         745.707         744.814 
      0.0492413         674.751         675.742 
      0.0555754         621.588         620.318 
      0.0619321         573.822         577.999 
       0.067871         541.992         543.088 
      0.0738098         506.664          507.29 
      0.0800417         466.755         466.387 
      0.0862327         422.783         423.363 
      0.0921407         382.482         383.031 
      0.0982031         346.448         345.677 
       0.104506         312.613         313.602 
       0.110769         288.612         289.221 
       0.116806         272.918         271.804 
       0.122832         258.035         258.409 
       0.129052         246.808         246.397 
       0.135211         235.409         234.311 
       0.141259         221.377         221.189 
       0.147318          205.98         206.767 
       0.153489         191.718         191.561 
       0.159709         177.897           176.9 
       0.165845         163.659         164.132 
       0.171974         155.177         153.632 
       0.178125         146.884         145.364 
       0.184229         139.603         138.951 
        0.19034         135.171         133.602 
       0.196428         129.979           128.6 
       0.202534         123.508         123.348 
       0.208729         118.719         117.519 
       0.214876         113.203         111.311 
       0.220989         105.678         105.032 
       0.227147         101.151         99.0008 
        0.23329         96.0176         93.6097 
       0.239377         91.7353         89.0548 
       0.245482         87.6321         85.2635 
       0.251667         83.9525         82.0532 
       0.257832          81.912         79.2318 
       0.263955         78.5205          76.556 
       0.270079         75.7852         73.8192 
        0.27624         72.4875         70.9243 
       0.282372         69.6904         67.9322 
        0.28843         67.6134         64.9646 
       0.294538         64.5597         62.0926 
       0.300721         61.5156         59.4182 
        0.30691         59.7591         57.0397 
       0.313033         57.4722         54.9784 
       0.319153          56.253         53.1572 
       0.325316         53.7833          51.482 
        0.33145         52.1267         49.8892 
       0.337538          50.676         48.3158 
       0.343633         49.2328         46.7211 
       0.349808         47.4949         45.0862 
       0.355968         45.8462         43.4697 
       0.362074         44.6658         41.9206 
       0.368217          43.164         40.4549 
       0.374374         42.1602         39.1007 
       0.380519         40.4549         37.8654 
       0.386598         39.2384         36.7449 
       0.392688         38.1192         35.6954 
        0.39888         37.3047         34.6758 
       0.405048         36.3691         33.6846 
       0.411186         35.3438         32.7066 
       0.417313         34.3577         31.7402 
       0.423458         33.2641         30.7868 
       0.429607         32.6166         29.8607 
       0.435692         31.9033         28.9856 
       0.441815         30.7471         28.1535 
       0.447964         29.8246         27.3675 
       0.454126         29.2832         26.6278 
       0.460267         28.8748         25.9297 
       0.466387         28.0283         25.2619 
        0.47254         27.5212         24.6106 
       0.478662         26.7355         23.9782 
       0.484765          26.131           23.36 
       0.490885         25.3882         22.7531 
       0.497035         24.8084         22.1607 
       0.503198         24.2884         21.5888 
       0.509342         23.6248         21.0418 
       0.515458         23.2651         20.5208 
       0.521598         22.7323         20.0216 
       0.527764         22.3851         19.5419 
       0.533884         21.7372         19.0833 
           0.54         21.3402         18.6391 
       0.546137         20.7233         18.2053 
       0.552299         20.3602         17.7812 
       0.558452         19.9361          17.369 
       0.564573         19.6393         16.9699 
       0.570708          19.184         16.5815 
       0.576825         18.8351          16.207 
       0.582926         18.4504         15.8468 
       0.589034         18.1119         15.4993 
       0.595184         17.8578         15.1614 
       0.601379         17.3861         14.8322 
       0.607522         17.0869         14.5153 
       0.613639          16.718         14.2085 
       0.619772         16.4751         13.9094 
       0.625918         16.1309         13.6178 
       0.632068         15.9361          13.334 
       0.638161         15.6152         13.0604 
         0.6443         15.3243         12.7924 
       0.650464         14.9608          12.531 
       0.656582         14.8462         12.2793 
       0.662703         14.6292          12.035 
       0.668861         14.2353         11.7965 
       0.675024         14.0241         11.5647 
       0.681124         13.9708         11.3415 
       0.687237         13.6588         11.1237 
       0.693381         13.3168         10.9102 
       0.699536          13.243         10.7018 
       0.705665         12.9977         10.4995 
       0.711789         12.7312         10.3025 
       0.717957          12.482         10.1094 
        0.72409          12.358         9.92241 
       0.730186         12.2545         9.74153 
       0.736317         11.9907         9.56434 
       0.742472         11.8375         9.39104 
       0.748622          11.658         9.22226 
        0.75476         11.3713         9.05801 
       0.760888         11.2894         8.89798 
       0.767043          11.053         8.74112 
       0.773185         10.9223         8.58832 
       0.779291         10.8581         8.44003 
       0.785407         10.6409         8.29501 
       0.791564         10.5169         8.15251 
       0.797719         10.3168         8.01346 
       0.803834         10.2217         7.87859 
       0.809972         10.0391          7.7464 
       0.816124         9.91754         7.61701 
       0.822261         9.79109         7.49096 
       0.828378         9.64522         7.36818 
       0.834502         9.53657         7.24807 
       0.840667         9.43861         7.12988 
       0.846816         9.25266         7.01468 
       0.852925          9.1555         6.90276 
       0.859047         9.03978         6.79304 
       0.865192         8.91538         6.68536 
       0.871341         8.78802         6.57995 
       0.877463         8.68125          6.4773 
       0.883569         8.59349         6.37712 
       0.889708         8.47056         6.27855 
       0.895864         8.36368         6.18182 
       0.902008         8.24548         6.08735 
       0.908149         8.14087         5.99492 
       0.914301         8.07097         5.90428 
       0.920448          7.9612          5.8156 
       0.926574         7.91423         5.72907 
       0.932687         7.78143          5.6445 
       0.938823          7.6637         5.56134 
       0.944975         7.60357         5.47967 
       0.951105         7.48051         5.39995 
       0.957225          7.4308         5.32195 
       0.963368         7.34945         5.24524 
       0.969511         7.26388         5.17004 
       0.975621          7.1712         5.09673 
       0.981748         7.04978         5.02466 
       0.987916         6.99239         4.95354 
        0.99406         6.94957         4.88407 
        1.00019         6.87147         4.81607 
        1.00632         6.80177         4.74943 
        1.01246         6.70604         4.68397 
        1.01859         6.63427         4.61984 
        1.02471         6.53643         4.55701 
        1.03085         6.50553         4.49512 
        1.03698         6.43473         4.43453 
        1.04314          6.3719         4.37479 
        1.04929         6.28159         4.31631 
        1.05541         6.22126         4.25913 
        1.06154         6.17033         4.20285 
        1.06769         6.13913         4.14751 
        1.07382         6.03217         4.09335 
        1.07993         5.96205         4.04029 
        1.08607         5.92982         3.98795 
        1.09222         5.84882         3.93649 
        1.09836         5.83672         3.88601 
        1.10449         5.71441         3.83647 
        1.11063         5.68866         3.78774 
        1.11677         5.64026         3.73988 
         1.1229         5.57767         3.69294 
        1.12903         5.54128         3.64676 
        1.13518         5.45769         3.60134 
        1.14131         5.41016         3.55672 
        1.14745         5.34778         3.51289 
        1.15359         5.30687         3.46978 
        1.15973         5.25243         3.42739 
        1.16584         5.20823          3.3859 
        1.17197         5.15446         3.34503 
        1.17811         5.10553         3.30472 
        1.18424          5.0593         3.26519 
        1.19038         5.01592          3.2262 
        1.19652         4.98152         3.18786 
        1.20267         4.93817         3.15014 
        1.20881         4.88654         3.11304 
        1.21495         4.84422         3.07661 
        1.22108         4.80657         3.04076 
         1.2272         4.74405         3.00557 
        1.23334         4.73554         2.97085 
        1.23949         4.67856         2.93661 
        1.24562         4.64112           2.903 
        1.25174         4.60777         2.86997 
        1.25789         4.54631         2.83735 
        1.26402         4.51059          2.8053 
        1.27014         4.47683         2.77382 
        1.27628         4.43354         2.74273 
        1.28244         4.40855         2.71207 
        1.28858         4.37602         2.68191 
        1.29471         4.31802         2.65228 
        1.30084         4.28541         2.62312 
        1.30697         4.26261         2.59436 
        1.31312         4.22606         2.56599 
        1.31925         4.18984         2.53814 
        1.32537         4.16244         2.51073 
        1.33151         4.12011         2.48362 
        1.33765         4.09101         2.45694 
        1.34378         4.06562          2.4307 
        1.34992         4.03138         2.40482 
        1.35606         4.00015         2.37927 
         1.3622         3.97163         2.35413 
        1.36833         3.92917         2.32942 
        1.37445         3.89591         2.30508 
        1.38059         3.87012         2.28101 
        1.38675         3.84045         2.25723 
        1.39288         3.82063         2.23388 
        1.39901         3.77826         2.21088 
        1.40515         3.75386         2.18814 
         1.4113         3.73051         2.16574 
        1.41742         3.69416         2.14374 
        1.42355         3.66507           2.122 
         1.4297         3.64811          2.1005 
        1.43585         3.61856          2.0793 
        1.44198         3.59055         2.05848 
        1.44809         3.57148         2.03798 
        1.45423         3.54496         2.01769 
        1.46036         3.51894         1.99771 
        1.46649         3.47886           1.978 
        1.47263         3.47097         1.95853 
        1.47877         3.44774         1.93933 
        1.48491         3.41469         1.92037 
        1.49104         3.39368         1.90169 
        1.49718         3.37164         1.88325 
        1.50333         3.34458         1.86503 
        1.50947         3.31991         1.84708 
         1.5156         3.30069          1.8294 
        1.52172         3.28014         1.81195 
        1.52787         3.25708          1.7947 
          1.534         3.23726         1.77768 
        1.54013         3.21012         1.76091 
        1.54627         3.18917         1.74432 
        1.55241         3.16224         1.72795 
        1.55855         3.14808         1.71181 
        1.56467          3.1268         1.69592 
         1.5708         3.10532         1.68018 
        1.57695          3.0771         1.66463 
        1.58308         3.05574          1.6493 
        1.58922         3.04917         1.63416 
        1.59535         3.01957         1.61922 
         1.6015         2.99655         1.60444 
        1.60764         2.98333         1.58985 
        1.61376         2.95941         1.57548 
        1.61989         2.94083         1.56128 
        1.62604         2.91864         1.54723 
        1.63218         2.91021         1.53335 
        1.63831         2.89302         1.51968 
        1.64444         2.87063         1.50617 
        1.65059         2.85795         1.49279 
        1.65673         2.83128         1.47959 
        1.66285         2.81512         1.46659 
        1.66898         2.80103         1.45374 
        1.67512         2.77601         1.44102 
        1.68127         2.75836         1.42843 
         1.6874          2.7549         1.41603 
        1.69353         2.72346         1.40378 
        1.69967         2.71192         1.39165 
        1.70581         2.70201         1.37966 
        1.71193         2.67218         1.36786 
        1.71806         2.66048         1.35618 
        1.72421         2.64914         1.34461 
        1.73035         2.62721         1.33318 
        1.73649         2.62073         1.32189 
        1.74262         2.60178         1.31075 
        1.74876           2.584         1.29972 
        1.75489         2.57145         1.28884 
        1.76101         2.55132         1.27809 
        1.76715         2.54208         1.26745 
        1.77329         2.52363         1.25691 
        1.77943         2.51085          1.2465 
        1.78557         2.49776         1.23621 
        1.79171         2.48635         1.22604 
        1.79785         2.46931         1.21598 
        1.80399         2.45514         1.20604 
        1.81012         2.43871         1.19622 
        1.81625         2.42204         1.18651 
        1.82239         2.41211          1.1769 
        1.82853         2.39808          1.1674 
        1.83466         2.37925         1.15801 
        1.84078          2.3685         1.14874 
        1.84692         2.35675         1.13955 
        1.85306         2.34768         1.13046 
         1.8592          2.3313         1.12147 
        1.86533         2.31882         1.11259 
        1.87147         2.30514          1.1038 
        1.87761         2.29619         1.09509 
        1.88375         2.28186         1.08649 
        1.88988         2.27023         1.07799 
        1.89601         2.25421         1.06958 
        1.90215         2.24227         1.06125 
        1.90829         2.23543         1.05302 
        1.91442          2.2187         1.04487 
        1.92056         2.21195         1.03681 
         1.9267         2.20085         1.02883 
        1.93284         2.18603         1.02093 
        1.93897         2.17038         1.01313 
        1.94509         2.16646         1.00543 
        1.95123         2.14997        0.997782 
        1.95737         2.14231        0.990212 
        1.96349         2.13008        0.982741 
        1.96964         2.12039        0.975324 
        1.97578         2.10607        0.967982 
        1.98192         2.09301        0.960729 
        1.98805         2.08745         0.95355 
        1.99419         2.07405        0.946444 
        2.00033         2.06297        0.939407 
        2.00647         2.05703        0.932443 
         2.0126         2.04733        0.925562 
        2.01874          2.0344        0.918739 
        2.02488         2.02219        0.911979 
        2.03101         2.01423          0.9053 
        2.03714         2.00666        0.898694 
        2.04328         1.99345        0.892147 
        2.04941         1.98379         0.88567 
        2.05554         1.97517        0.879262 
        2.06167         1.96365        0.872908 
        2.06781         1.95399        0.866617 
        2.07396         1.94575        0.860378 
        2.08009         1.93788        0.854212 
        2.08622         1.92653        0.848113 
        2.09237         1.92053        0.842062 
        2.09851         1.90552        0.836068 
        2.10464         1.90373        0.830143 
        2.11077          1.8927        0.824282 
        2.11691         1.88064        0.818465 
        2.12305         1.87364        0.812704 
        2.12918         1.86167        0.807012 
        2.13531         1.85422        0.801374 
        2.14145         1.84676        0.795777 
         2.1476         1.83617        0.790226 
        2.15372         1.82611        0.784757 
        2.15985         1.81893        0.779334 
        2.16599         1.81411        0.773946 
        2.17213         1.80469        0.768616 
        2.17827         1.79365        0.763336 
         2.1844         1.78611        0.758111 
        2.19054          1.7786        0.752933 
        2.19666         1.77101        0.747811 
         2.2028         1.76152        0.742732 
        2.20893         1.75319        0.737698 
        2.21508         1.74775        0.732704 
        2.22122          1.7411        0.727755 
        2.22736         1.72683        0.722862 
        2.23349         1.72196        0.718015 
        2.23962          1.7161         0.71321 
        2.24577         1.70741        0.708445 
         2.2519         1.69796         0.70373 
        2.25802         1.69527        0.699065 
        2.26417         1.68544        0.694429 
        2.27031         1.67788        0.689831 
        2.27644         1.67165        0.685288 
        2.28257          1.6596        0.680787 
        2.28872         1.65748        0.676317 
        2.29486         1.64851        0.671888 
        2.30099         1.63959        0.667508 
        2.30712         1.63677        0.663165 
        2.31326         1.62831        0.658853 
         2.3194         1.62021        0.654582 
        2.32553         1.61433        0.650356 
        2.33166         1.60971        0.646169 
         2.3378         1.60115        0.642013 
        2.34394         1.59324        0.637893 
        2.35007         1.58316        0.633814 
        2.35619         1.58046        0.629776 
        2.36233         1.57249        0.625764 
        2.36848         1.56789        0.621778 
        2.37462         1.56183        0.617835 
        2.38075         1.55295         0.61393 
        2.38689         1.54904        0.610056 
        2.39303         1.54305        0.606216 
        2.39916         1.53336        0.602413 
        2.40529         1.53074        0.598642 
        2.41143         1.52139        0.594901 
        2.41757         1.51744        0.591191 
         2.4237         1.51124        0.587519 
        2.42983         1.50244        0.583878 
        2.43598         1.49948        0.580258 
        2.44211         1.49212        0.576676 
        2.44823         1.48658        0.573131 
        2.45437         1.48149        0.569606 
        2.46052         1.47566        0.566108 
        2.46665         1.47003        0.562646 
        2.47279         1.46248        0.559214 
        2.47892         1.45671        0.555808 
        2.48507          1.4515        0.552427 
         2.4912          1.4451         0.54908 
