# k  (h/Mpc)    Pcb(k)  (Mpc/h)^3    Pcb_linear(k)  (Mpc/h)^3
     0.00783031         1331.86         1339.83 
       0.013688         1720.67          1739.8 
       0.019231         1841.12         1850.36 
      0.0249154         1802.29         1802.41 
      0.0312784         1649.58          1653.6 
      0.0375637            1475         1481.54 
      0.0433917         1337.95         1337.34 
      0.0492413         1216.99         1220.72 
      0.0555754         1125.66         1124.55 
      0.0619321         1037.43         1048.64 
       0.067871         980.591         984.733 
      0.0738098         916.781         919.372 
      0.0800417         845.498          845.88 
      0.0862327         767.518         769.899 
      0.0921407         697.208         699.512 
      0.0982031         635.461         634.656 
       0.104506         575.625         578.801 
       0.110769          533.49         535.728 
       0.116806         506.102         504.078 
       0.122832         477.321         478.807 
       0.129052         455.814         455.514 
       0.135211         434.467         432.144 
       0.141259         407.612         407.406 
       0.147318         378.815         380.996 
       0.153489         353.937         353.798 
       0.159709         330.451         327.969 
       0.165845         304.467         305.581 
       0.171974          290.91         287.032 
       0.178125         276.148         272.093 
       0.184229         261.718         260.073 
        0.19034         253.579          249.66 
       0.196428         243.559         239.758 
       0.202534         230.352         229.499 
       0.208729         222.003         218.451 
       0.214876         212.287         207.048 
       0.220989         197.963         195.783 
       0.227147         190.954         185.107 
        0.23329         182.142          175.58 
       0.239377          174.88         167.436 
       0.245482         166.911         160.485 
       0.251667         159.895         154.394 
       0.257832         156.447         148.882 
       0.263955         149.281         143.602 
       0.270079         144.013         138.272 
        0.27624         137.618         132.779 
       0.282372         132.692         127.251 
        0.28843         129.663         121.883 
       0.294538         123.911         116.746 
       0.300721         118.299         111.964 
        0.30691         115.487          107.66 
       0.313033         111.056         103.849 
       0.319153         108.937         100.395 
       0.325316         104.164         97.1517 
        0.33145          100.95         94.0461 
       0.337538         98.0803          91.004 
       0.343633         95.2665         87.9729 
       0.349808         92.0904         84.9288 
       0.355968         89.1145          81.967 
       0.362074          87.165          79.155 
       0.368217         84.5308          76.495 
       0.374374         82.7425         74.0158 
       0.380519         79.2638         71.7214 
       0.386598         77.0653         69.6033 
       0.392688         74.9107         67.5934 
        0.39888         73.4487         65.6294 
       0.405048         71.6819         63.7255 
       0.411186          69.812          61.868 
       0.417313         67.8943         60.0547 
       0.423458         65.9368          58.286 
       0.429607         64.7907         56.5802 
       0.435692         63.5734         54.9692 
       0.441815         61.2312           53.43 
       0.447964         59.4625         51.9641 
       0.454126         58.4287         50.5697 
       0.460267         57.8421         49.2417 
       0.466387         56.1942         47.9664 
        0.47254         55.3519         46.7237 
       0.478662         53.6652         45.5223 
       0.484765         52.5639         44.3561 
       0.490885         51.1034         43.2198 
       0.497035         50.2728         42.1155 
       0.503198         49.1143         41.0503 
       0.509342         47.8617         40.0296 
       0.515458         47.2664         39.0539 
       0.521598         46.1625         38.1132 
       0.527764         45.5638         37.2043 
       0.533884         44.4805         36.3326 
           0.54         43.6125         35.4882 
       0.546137         42.3342         34.6653 
       0.552299         41.6592         33.8631 
       0.558452         40.8364         33.0856 
       0.564573         40.4306         32.3351 
       0.570708         39.3707         31.6061 
       0.576825         38.8264         30.9028 
       0.582926         38.1546          30.225 
       0.589034         37.4402         29.5688 
       0.595184          36.954         28.9292 
       0.601379         35.9694         28.3047 
       0.607522         35.4525         27.7034 
       0.613639         34.8352         27.1218 
       0.619772         34.2971          26.555 
       0.625918         33.6009         26.0031 
       0.632068         33.3232         25.4662 
       0.638161         32.6445         24.9493 
         0.6443         32.1351          24.443 
       0.650464         31.3482         23.9494 
       0.656582         31.1698         23.4734 
       0.662703         30.8133         23.0109 
       0.668861         29.9997         22.5587 
       0.675024         29.6438         22.1185 
       0.681124         29.4593         21.6947 
       0.687237         28.8753          21.281 
       0.693381         28.2581          20.876 
       0.699536         28.1502         20.4807 
       0.705665          27.631         20.0973 
       0.711789         27.1288         19.7242 
       0.717957         26.6009         19.3582 
        0.72409         26.3833         19.0037 
       0.730186         26.2339         18.6605 
       0.736317          25.709          18.324 
       0.742472         25.3881         17.9948 
       0.748622         24.9929          17.674 
        0.75476         24.3857         17.3618 
       0.760888         24.2881         17.0576 
       0.767043         23.8855         16.7595 
       0.773185         23.6411         16.4691 
       0.779291         23.4502         16.1873 
       0.785407          23.025         15.9118 
       0.791564         22.8529          15.641 
       0.797719         22.3867         15.3768 
       0.803834         22.2714         15.1204 
       0.809972         21.8619          14.869 
       0.816124          21.628         14.6228 
       0.822261         21.3926         14.3829 
       0.828378         21.1411         14.1492 
       0.834502         20.9412         13.9206 
       0.840667         20.7256         13.6955 
       0.846816         20.2884         13.4761 
       0.852925         20.2017         13.2629 
       0.859047         19.9591         13.0539 
       0.865192         19.6905         12.8488 
       0.871341          19.427          12.648 
       0.877463         19.2428         12.4524 
       0.883569         19.1206         12.2614 
       0.889708         18.8108         12.0736 
       0.895864         18.5867         11.8892 
       0.902008         18.3644         11.7091 
       0.908149         18.1393         11.5329 
       0.914301         18.0491           11.36 
       0.920448         17.7785         11.1909 
       0.926574         17.6713         11.0258 
       0.932687         17.4205         10.8644 
       0.938823         17.2096         10.7057 
       0.944975         17.0648         10.5499 
       0.951105         16.8666         10.3977 
       0.957225          16.775         10.2488 
       0.963368          16.539         10.1024 
       0.969511         16.3694          9.9588 
       0.975621         16.2094         9.81881 
       0.981748         15.9944         9.68117 
       0.987916         15.8798         9.54532 
        0.99406         15.7508         9.41261 
        1.00019         15.6095          9.2827 
        1.00632         15.4681         9.15538 
        1.01246          15.313         9.03027 
        1.01859         15.1348         8.90772 
        1.02471         14.9568         8.78761 
        1.03085         14.9123         8.66931 
        1.03698         14.7624         8.55345 
        1.04314         14.5968         8.43924 
        1.04929         14.4048         8.32739 
        1.05541         14.3455         8.21803 
        1.06154         14.2194         8.11038 
        1.06769         14.1376          8.0045 
        1.07382         13.9014         7.90088 
        1.07993         13.7817         7.79933 
        1.08607         13.7247         7.69917 
        1.09222         13.5507         7.60067 
        1.09836         13.5172         7.50402 
        1.10449         13.2918         7.40917 
        1.11063         13.2553         7.31587 
        1.11677         13.1613         7.22421 
         1.1229         13.0405          7.1343 
        1.12903         12.9507         7.04585 
        1.13518         12.7546         6.95883 
        1.14131         12.6873         6.87334 
        1.14745         12.5237         6.78934 
        1.15359         12.4413         6.70674 
        1.15973         12.3314         6.62549 
        1.16584         12.2424         6.54596 
        1.17197         12.1374         6.46763 
        1.17811         12.0316         6.39034 
        1.18424         11.9518         6.31455 
        1.19038         11.8792         6.23978 
        1.19652         11.7863         6.16626 
        1.20267         11.6905         6.09392 
        1.20881         11.5749         6.02277 
        1.21495         11.4809         5.95288 
        1.22108         11.4327          5.8841 
         1.2272         11.3204         5.81659 
        1.23334         11.2864         5.74998 
        1.23949         11.1617         5.68426 
        1.24562          11.074         5.61976 
        1.25174          11.011         5.55636 
        1.25789         10.8691         5.49374 
        1.26402         10.8405         5.43221 
        1.27014          10.777         5.37177 
        1.27628         10.6416         5.31208 
        1.28244         10.6279         5.25318 
        1.28858         10.5494         5.19526 
        1.29471         10.4046         5.13835 
        1.30084         10.3371         5.08234 
        1.30697         10.3193         5.02709 
        1.31312         10.2116         4.97259 
        1.31925         10.1502         4.91907 
        1.32537         10.0894         4.86639 
        1.33151          10.008          4.8143 
        1.33765         9.92888           4.763 
        1.34378         9.91375         4.71256 
        1.34992         9.81389         4.66282 
        1.35606         9.74354         4.61369 
         1.3622         9.67061         4.56535 
        1.36833         9.61142         4.51783 
        1.37445         9.54286         4.47102 
        1.38059          9.4928         4.42472 
        1.38675         9.41621         4.37897 
        1.39288         9.34578         4.33406 
        1.39901         9.28137          4.2898 
        1.40515         9.22842         4.24606 
         1.4113         9.15606         4.20295 
        1.41742         9.11568          4.1606 
        1.42355         9.03594         4.11876 
         1.4297         9.00116         4.07738 
        1.43585         8.94574         4.03658 
        1.44198         8.88334         3.99649 
        1.44809         8.84031         3.95703 
        1.45423         8.76652         3.91796 
        1.46036         8.72313         3.87948 
        1.46649         8.66187         3.84152 
        1.47263         8.62109         3.80403 
        1.47877         8.56137         3.76706 
        1.48491         8.52085         3.73053 
        1.49104         8.44824         3.69455 
        1.49718         8.42259         3.65903 
        1.50333         8.36193         3.62392 
        1.50947         8.28518         3.58935 
         1.5156         8.27585         3.55528 
        1.52172         8.22604         3.52165 
        1.52787         8.17311         3.48839 
          1.534         8.12521          3.4556 
        1.54013         8.08129         3.42327 
        1.54627          8.0301          3.3913 
        1.55241         7.96639         3.35973 
        1.55855         7.95357         3.32861 
        1.56467         7.89052         3.29796 
         1.5708         7.85244         3.26762 
        1.57695         7.78457         3.23762 
        1.58308         7.73937         3.20806 
        1.58922          7.7132         3.17885 
        1.59535          7.6679         3.15002 
         1.6015         7.61009          3.1215 
        1.60764         7.58667         3.09336 
        1.61376         7.55301         3.06564 
        1.61989         7.47886         3.03824 
        1.62604          7.4553         3.01111 
        1.63218         7.41803         2.98433 
        1.63831         7.38881         2.95794 
        1.64444         7.32617         2.93186 
        1.65059         7.29557         2.90604 
        1.65673         7.26484         2.88055 
        1.66285         7.22697         2.85544 
        1.66898         7.17772         2.83063 
        1.67512         7.13542         2.80606 
        1.68127         7.09419         2.78176 
         1.6874         7.07578          2.7578 
        1.69353         7.01856         2.73415 
        1.69967         6.99418         2.71071 
        1.70581         6.94367         2.68756 
        1.71193         6.92564         2.66477 
        1.71806         6.89169         2.64219 
        1.72421         6.84415         2.61983 
        1.73035         6.81003         2.59776 
        1.73649         6.77835         2.57595 
        1.74262         6.73887          2.5544 
        1.74876          6.7221         2.53309 
        1.75489         6.68271         2.51207 
        1.76101         6.63584         2.49129 
        1.76715         6.62461         2.47072 
        1.77329         6.59027         2.45036 
        1.77943         6.53952         2.43021 
        1.78557         6.52409         2.41033 
        1.79171         6.49835         2.39066 
        1.79785         6.45634         2.37121 
        1.80399         6.40367         2.35198 
        1.81012         6.38992         2.33299 
        1.81625         6.35819         2.31422 
        1.82239         6.32891         2.29563 
        1.82853          6.2941         2.27725 
        1.83466         6.25156         2.25909 
        1.84078          6.2291         2.24114 
        1.84692         6.20482         2.22337 
        1.85306         6.17548         2.20576 
         1.8592         6.15805         2.18838 
        1.86533         6.12498         2.17119 
        1.87147         6.08992         2.15417 
        1.87761         6.07789         2.13732 
        1.88375         6.03849         2.12067 
        1.88988         6.00902         2.10422 
        1.89601          5.9803         2.08794 
        1.90215         5.93794         2.07181 
        1.90829         5.93687         2.05586 
        1.91442         5.89132         2.04008 
        1.92056         5.88298         2.02448 
         1.9267         5.84363         2.00903 
        1.93284         5.83725         1.99373 
        1.93897         5.78902         1.97862 
        1.94509         5.76334          1.9637 
        1.95123         5.74347         1.94889 
        1.95737         5.72181         1.93423 
        1.96349         5.67878         1.91975 
        1.96964         5.66007         1.90538 
        1.97578         5.64281         1.89115 
        1.98192         5.60957          1.8771 
        1.98805         5.59476         1.86319 
        1.99419         5.57387         1.84942 
        2.00033         5.52808         1.83578 
        2.00647         5.52585         1.82229 
         2.0126         5.49545         1.80895 
        2.01874         5.48186         1.79572 
        2.02488         5.44873         1.78262 
        2.03101         5.41466         1.76967 
        2.03714         5.40405         1.75687 
        2.04328          5.3798         1.74417 
        2.04941         5.35551         1.73161 
        2.05554         5.34018         1.71919 
        2.06167         5.30828         1.70687 
        2.06781         5.29222         1.69466 
        2.07396         5.26321         1.68257 
        2.08009         5.25159         1.67061 
        2.08622         5.22784         1.65878 
        2.09237         5.21991         1.64704 
        2.09851         5.17688         1.63541 
        2.10464          5.1638         1.62391 
        2.11077         5.15314         1.61254 
        2.11691         5.12995         1.60126 
        2.12305         5.10184         1.59008 
        2.12918         5.08672         1.57903 
        2.13531         5.05796         1.56809 
        2.14145         5.04848         1.55723 
         2.1476         5.01676         1.54646 
        2.15372         5.00425         1.53584 
        2.15985         4.98644         1.52532 
        2.16599         4.96688         1.51486 
        2.17213         4.94921         1.50451 
        2.17827         4.91825         1.49426 
         2.1844         4.89759         1.48412 
        2.19054           4.885         1.47406 
        2.19666         4.86922         1.46412 
         2.2028          4.8347         1.45425 
        2.20893         4.83255         1.44448 
        2.21508         4.82006         1.43478 
        2.22122         4.78026         1.42517 
        2.22736         4.77475         1.41566 
        2.23349         4.75123         1.40625 
        2.23962         4.74077         1.39691 
        2.24577         4.70855         1.38765 
         2.2519          4.6987         1.37849 
        2.25802         4.67739         1.36943 
        2.26417         4.65977         1.36042 
        2.27031         4.64059         1.35149 
        2.27644         4.62769         1.34266 
        2.28257         4.60975         1.33391 
        2.28872         4.59425         1.32523 
        2.29486         4.57091         1.31662 
        2.30099         4.55345         1.30811 
        2.30712         4.54181         1.29966 
        2.31326         4.52337         1.29128 
         2.3194         4.50667         1.28298 
        2.32553         4.49115         1.27476 
        2.33166          4.4796         1.26662 
         2.3378         4.46111         1.25855 
        2.34394         4.44212         1.25053 
        2.35007         4.41843          1.2426 
        2.35619         4.41222         1.23475 
        2.36233         4.39278         1.22695 
        2.36848         4.38297          1.2192 
        2.37462          4.3654         1.21153 
        2.38075         4.35375         1.20393 
        2.38689         4.33638          1.1964 
        2.39303         4.31938         1.18893 
        2.39916         4.30124         1.18153 
        2.40529         4.28619         1.17419 
        2.41143         4.27897         1.16692 
        2.41757         4.26689          1.1597 
         2.4237         4.24408         1.15255 
        2.42983         4.23826         1.14547 
        2.43598         4.22226         1.13842 
        2.44211         4.19838         1.13145 
        2.44823         4.18354         1.12455 
        2.45437         4.16904         1.11769 
        2.46052         4.15831         1.11089 
        2.46665         4.14685         1.10415 
        2.47279         4.11611         1.09747 
        2.47892         4.11394         1.09084 
        2.48507         4.10121         1.08426 
         2.4912         4.09061         1.07774 
