# k  (h/Mpc)    P(k)  (Mpc/h)^3    P_linear(k)  (Mpc/h)^3
     0.00783031         16230.7         16331.9 
       0.013688         21247.6         21933.7 
       0.019231         23311.9         23816.9 
      0.0249154         23419.2         23583.7 
      0.0312784         21440.9         21970.2 
      0.0375637         19230.2           19946 
      0.0433917         17731.2         18202.2 
      0.0492413         16121.2         16775.1 
      0.0555754         15013.6         15587.8 
      0.0619321         13570.9         14635.4 
       0.067871         12969.4         13812.3 
      0.0738098         12262.9         12948.9 
      0.0800417         11305.7         11961.8 
      0.0862327         10297.5           10934 
      0.0921407         9445.54         9980.97 
      0.0982031         8752.25         9104.87 
       0.104506         7933.57         8353.15 
       0.110769         7410.19         7774.82 
       0.116806         7135.38         7348.19 
       0.122832         6734.29         7002.31 
       0.129052         6379.75         6675.64 
       0.135211         6209.63         6341.26 
       0.141259         5780.92         5984.75 
       0.147318         5397.23         5605.29 
       0.153489         5135.63         5217.71 
       0.159709         4982.71         4853.34 
       0.165845         4583.22         4540.53 
       0.171974         4466.16         4282.94 
       0.178125         4367.08         4075.26 
       0.184229         4038.58         3906.02 
        0.19034         4000.36         3755.94 
       0.196428         3911.85         3609.86 
       0.202534         3720.08         3456.69 
       0.208729         3633.61         3291.91 
       0.214876         3500.03         3123.36 
       0.220989         3370.96         2958.88 
       0.227147          3286.2         2804.87 
        0.23329         3165.14         2668.69 
       0.239377         3160.32         2552.68 
       0.245482         3039.93         2453.09 
       0.251667          2933.2         2364.53 
       0.257832         2885.32         2282.75 
       0.263955         2786.23         2203.06 
       0.270079         2745.09         2122.06 
        0.27624         2632.95         2038.78 
       0.282372         2622.33          1955.7 
        0.28843          2555.4         1875.92 
       0.294538         2471.92         1800.31 
       0.300721         2445.38          1730.4 
        0.30691         2375.06          1667.5 
       0.313033         2311.29         1611.49 
       0.319153         2298.35          1560.1 
       0.325316         2267.94          1511.2 
        0.33145         2223.57         1463.83 
       0.337538         2171.78         1417.23 
       0.343633         2130.97         1370.84 
       0.349808         2108.43         1324.55 
       0.355968         2054.86         1279.84 
       0.362074         2025.07         1237.68 
       0.368217         2014.87         1197.96 
       0.374374         1978.45         1160.92 
       0.380519         1927.25          1126.5 
       0.386598         1933.43         1094.47 
       0.392688         1878.58         1063.81 
        0.39888         1864.67         1033.67 
       0.405048         1824.78         1004.32 
       0.411186         1805.48         975.714 
       0.417313         1807.45         947.868 
       0.423458         1761.48         920.815 
       0.429607         1721.43         894.828 
       0.435692         1711.25         870.345 
       0.441815         1682.39         846.926 
       0.447964          1677.4         824.576 
       0.454126         1655.36         803.219 
       0.460267         1635.19         782.773 
       0.466387          1614.5         763.056 
        0.47254         1583.29         743.807 
       0.478662         1571.32         725.179 
       0.484765         1558.66         707.112 
       0.490885         1542.14         689.548 
       0.497035         1515.27         672.509 
       0.503198         1518.98         656.084 
       0.509342         1487.41         640.338 
       0.515458         1461.75         625.267 
       0.521598         1471.65         610.705 
       0.527764         1434.41          596.59 
       0.533884         1421.32          583.02 
           0.54         1411.36          569.85 
       0.546137         1396.68         557.011 
       0.552299         1382.49         544.493 
       0.558452          1376.5         532.364 
       0.564573         1371.01         520.659 
       0.570708         1352.25         509.294 
       0.576825         1331.56         498.328 
       0.582926         1325.47         487.751 
       0.589034         1316.43         477.494 
       0.595184         1298.21          467.48 
       0.601379          1281.4         457.687 
       0.607522         1271.64         448.249 
       0.613639         1264.76         439.113 
       0.619772          1245.7         430.206 
       0.625918         1244.55         421.529 
       0.632068         1229.77         413.087 
       0.638161         1210.62         404.955 
         0.6443         1202.67         396.989 
       0.650464            1196         389.217 
       0.656582         1191.69         381.718 
       0.662703         1172.11         374.424 
       0.668861         1161.87         367.286 
       0.675024         1153.24         360.331 
       0.681124         1137.89         353.629 
       0.687237          1137.2         347.082 
       0.693381          1112.5         340.671 
       0.699536         1116.48          334.41 
       0.705665         1101.91         328.336 
       0.711789         1097.06         322.422 
       0.717957         1084.95         316.618 
        0.72409         1076.58         310.993 
       0.730186         1072.42         305.542 
       0.736317         1063.57         300.196 
       0.742472         1046.61          294.96 
       0.748622         1045.02         289.856 
        0.75476         1029.45         284.885 
       0.760888         1024.49          280.04 
       0.767043         1020.35         275.288 
       0.773185         1013.19         270.659 
       0.779291         1001.83         266.164 
       0.785407         993.022         261.766 
       0.791564         986.026         257.442 
       0.797719          971.99         253.219 
       0.803834         970.533          249.12 
       0.809972         958.438         245.098 
       0.816124         956.523         241.159 
       0.822261         946.632         237.318 
       0.828378         944.352         233.573 
       0.834502         927.211         229.908 
       0.840667         927.972         226.298 
       0.846816         920.543         222.778 
       0.852925         908.837         219.355 
       0.859047         903.375         215.999 
       0.865192         896.838         212.703 
       0.871341          891.73         209.474 
       0.877463         888.492         206.328 
       0.883569         879.778         203.256 
       0.889708         867.498         200.231 
       0.895864         862.622         197.261 
       0.902008         857.086         194.359 
       0.908149         849.076         191.517 
       0.914301         844.612         188.729 
       0.920448         838.816             186 
       0.926574         832.456         183.335 
       0.932687         822.645         180.729 
       0.938823         815.892         178.164 
       0.944975         812.037         175.645 
       0.951105         807.383         173.184 
       0.957225         797.119         170.775 
       0.963368         795.443         168.404 
       0.969511         788.619         166.079 
       0.975621         783.318         163.811 
       0.981748         775.579          161.58 
       0.987916         771.261         159.377 
        0.99406         765.514         157.224 
        1.00019         758.521         155.116 
        1.00632         752.098         153.049 
        1.01246         748.866         151.017 
        1.01859         742.353         149.026 
        1.02471         739.562         147.073 
        1.03085         731.175         145.149 
        1.03698         728.194         143.264 
        1.04314         720.769         141.405 
        1.04929         717.739         139.584 
        1.05541         707.502         137.803 
        1.06154         704.477         136.049 
        1.06769         700.992         134.323 
        1.07382         696.176         132.633 
        1.07993         692.804         130.976 
        1.08607         687.231         129.342 
        1.09222         681.839         127.733 
        1.09836         675.343         126.155 
        1.10449         668.433         124.605 
        1.11063         663.789          123.08 
        1.11677         659.661         121.581 
         1.1229         656.576         120.111 
        1.12903          647.86         118.663 
        1.13518         647.742         117.239 
        1.14131          642.45         115.839 
        1.14745          636.59         114.463 
        1.15359         632.142         113.109 
        1.15973          629.34         111.777 
        1.16584         623.796         110.473 
        1.17197         619.634         109.188 
        1.17811         612.292          107.92 
        1.18424         608.737         106.676 
        1.19038         605.333         105.448 
        1.19652         602.122          104.24 
        1.20267         595.517         103.051 
        1.20881         590.535         101.882 
        1.21495         585.917         100.732 
        1.22108         585.582          99.601 
         1.2272         579.335         98.4899 
        1.23334         575.542         97.3934 
        1.23949          571.78         96.3112 
        1.24562         567.083         95.2487 
        1.25174          563.83         94.2039 
        1.25789         561.017         93.1718 
        1.26402         555.966         92.1572 
        1.27014         552.147         91.1604 
        1.27628         547.513         90.1755 
        1.28244         543.348         89.2034 
        1.28858          538.56         88.2471 
        1.29471         534.979         87.3071 
        1.30084         531.999         86.3819 
        1.30697         527.981         85.4688 
        1.31312         525.074         84.5677 
        1.31925         521.145         83.6827 
        1.32537         518.508         82.8113 
        1.33151         513.288         81.9493 
        1.33765          508.14         81.1003 
        1.34378          508.48         80.2651 
        1.34992         502.138         79.4412 
        1.35606         499.546         78.6273 
         1.3622         496.203         77.8263 
        1.36833          493.75         77.0385 
        1.37445         489.772         76.2622 
        1.38059         485.289         75.4943 
        1.38675         482.022         74.7352 
        1.39288         478.183         73.9898 
        1.39901          475.39         73.2549 
        1.40515         472.341         72.5285 
         1.4113         470.486         71.8124 
        1.41742         466.544         71.1087 
        1.42355         463.951         70.4133 
         1.4297         460.984         69.7252 
        1.43585         458.501         69.0466 
        1.44198         453.213         68.3798 
        1.44809          450.42         67.7231 
        1.45423         445.811         67.0727 
        1.46036         443.975         66.4321 
        1.46649         440.949         65.7998 
        1.47263         437.946         65.1753 
        1.47877         435.945         64.5592 
        1.48491         431.689         63.9502 
        1.49104         429.141         63.3505 
        1.49718         425.635          62.758 
        1.50333          422.21         62.1723 
        1.50947         420.022         61.5954 
         1.5156         416.584         61.0267 
        1.52172         414.277         60.4652 
        1.52787         411.441         59.9098 
          1.534          408.73          59.362 
        1.54013         406.379         58.8218 
        1.54627          403.02         58.2873 
        1.55241         402.239         57.7595 
        1.55855         397.901          57.239 
        1.56467         395.947         56.7264 
         1.5708         392.911         56.2188 
        1.57695         389.712         55.7166 
        1.58308          388.01         55.2218 
        1.58922         384.953         54.7327 
        1.59535         381.914         54.2497 
         1.6015         380.214          53.772 
        1.60764         377.093         53.3004 
        1.61376         374.338         52.8357 
        1.61989         372.003         52.3763 
        1.62604         370.907         51.9213 
        1.63218           366.8         51.4721 
        1.63831         365.653         51.0293 
        1.64444         363.535         50.5916 
        1.65059         359.381         50.1581 
        1.65673         358.064         49.7301 
        1.66285         356.859         49.3084 
        1.66898         352.412         48.8915 
        1.67512         350.138         48.4786 
        1.68127         348.426         48.0702 
         1.6874         346.504         47.6674 
        1.69353          345.13         47.2696 
        1.69967         341.658         46.8754 
        1.70581         339.488         46.4859 
        1.71193          336.75         46.1023 
        1.71806         336.069         45.7223 
        1.72421         332.982         45.3459 
        1.73035         331.669         44.9742 
        1.73649         329.276         44.6067 
        1.74262         326.707         44.2437 
        1.74876         324.758         43.8846 
        1.75489         322.221         43.5302 
        1.76101         321.154         43.1798 
        1.76715         318.113         42.8329 
        1.77329          316.33         42.4894 
        1.77943         314.333         42.1496 
        1.78557         313.003          41.814 
        1.79171         310.536          41.482 
        1.79785         307.316         41.1536 
        1.80399         306.777         40.8288 
        1.81012         304.608          40.508 
        1.81625         303.431         40.1908 
        1.82239         300.992         39.8766 
        1.82853         298.261          39.566 
        1.83466         296.968         39.2589 
        1.84078          294.35         38.9555 
        1.84692         293.309         38.6548 
        1.85306         291.013          38.357 
         1.8592         289.068         38.0628 
        1.86533         287.627         37.7719 
        1.87147         286.519         37.4837 
        1.87761          284.19         37.1984 
        1.88375         282.067         36.9165 
        1.88988         280.664         36.6378 
        1.89601         278.417         36.3618 
        1.90215         276.996         36.0885 
        1.90829         274.973         35.8182 
        1.91442         273.264         35.5506 
        1.92056         271.533         35.2861 
         1.9267         270.607         35.0239 
        1.93284         268.691         34.7643 
        1.93897         266.464         34.5079 
        1.94509         264.755         34.2546 
        1.95123         263.189         34.0033 
        1.95737         261.625         33.7543 
        1.96349          260.11         33.5084 
        1.96964         258.428         33.2643 
        1.97578         256.971         33.0226 
        1.98192         255.635         32.7838 
        1.98805          254.14         32.5473 
        1.99419         252.676         32.3132 
        2.00033         251.541         32.0813 
        2.00647         248.981         31.8517 
         2.0126         247.967         31.6248 
        2.01874         246.295         31.3998 
        2.02488         244.238         31.1768 
        2.03101         242.895         30.9564 
        2.03714         241.555         30.7384 
        2.04328         240.574         30.5222 
        2.04941         239.096         30.3083 
        2.05554         237.869         30.0966 
        2.06167         236.163         29.8867 
        2.06781         234.795         29.6787 
        2.07396         233.045         29.4725 
        2.08009         232.204         29.2686 
        2.08622         230.622         29.0668 
        2.09237         229.009         28.8666 
        2.09851          227.92         28.6683 
        2.10464         226.295         28.4721 
        2.11077         225.207         28.2781 
        2.11691         224.051         28.0854 
        2.12305         222.209         27.8946 
        2.12918         221.378         27.7059 
        2.13531          219.56         27.5191 
        2.14145         218.397         27.3335 
         2.1476         217.341         27.1495 
        2.15372         216.007         26.9681 
        2.15985         214.605         26.7881 
        2.16599          213.44         26.6093 
        2.17213         211.667         26.4324 
        2.17827         211.067         26.2571 
         2.1844         209.825         26.0836 
        2.19054         208.382         25.9116 
        2.19666         207.582         25.7414 
         2.2028         206.057         25.5726 
        2.20893         205.106         25.4052 
        2.21508         203.712         25.2392 
        2.22122         202.605         25.0746 
        2.22736         201.427         24.9118 
        2.23349         200.279         24.7505 
        2.23962         198.764         24.5906 
        2.24577         197.548         24.4319 
         2.2519         196.598         24.2749 
        2.25802          195.09         24.1196 
        2.26417         194.714         23.9651 
        2.27031         193.477         23.8119 
        2.27644         192.432         23.6605 
        2.28257         191.143         23.5104 
        2.28872         190.282         23.3614 
        2.29486         188.991         23.2137 
        2.30099         187.722         23.0675 
        2.30712         187.073         22.9226 
        2.31326          185.74         22.7787 
         2.3194         184.878         22.6361 
        2.32553         184.062          22.495 
        2.33166         182.605         22.3552 
         2.3378         181.593         22.2163 
        2.34394         180.716         22.0786 
        2.35007          179.69         21.9423 
        2.35619         178.749         21.8073 
        2.36233          177.76         21.6732 
        2.36848         176.743         21.5398 
        2.37462         175.529          21.408 
        2.38075         174.428         21.2773 
        2.38689         173.703         21.1476 
        2.39303         172.854         21.0191 
        2.39916         171.736         20.8917 
        2.40529         170.793         20.7655 
        2.41143         169.682         20.6401 
        2.41757         168.665         20.5158 
         2.4237         168.185         20.3928 
        2.42983         166.725         20.2707 
        2.43598         165.405         20.1494 
        2.44211         165.164         20.0292 
        2.44823         164.434         19.9103 
        2.45437         163.534         19.7921 
        2.46052         162.219         19.6747 
        2.46665          161.95         19.5585 
        2.47279         160.586         19.4433 
        2.47892         159.896         19.3289 
        2.48507         158.932         19.2154 
         2.4912         158.069          19.103 
