# k  (h/Mpc)    P(k)  (Mpc/h)^3    P_linear(k)  (Mpc/h)^3
     0.00783031         85.9448         86.5782 
       0.013688         107.004         107.641 
       0.019231         110.238         110.389 
      0.0249154         103.759         103.761 
      0.0312784         91.7256         91.6385 
      0.0375637         79.4907           79.39 
      0.0433917         70.0866         69.8856 
      0.0492413         62.7838         62.6592 
      0.0555754         57.2214         57.0467 
      0.0619321         52.8078         52.8325 
       0.067871         49.3902         49.3442 
      0.0738098         45.7863         45.7389 
      0.0800417         41.7033         41.6286 
      0.0862327         37.4187          37.367 
      0.0921407         33.5029         33.4591 
      0.0982031         30.0207          29.935 
       0.104506         27.0253         26.9991 
       0.110769         24.8621         24.8343 
       0.116806           23.38         23.3215 
       0.122832         22.1695         22.1576 
       0.129052         21.1123         21.0828 
       0.135211         20.0018         19.9632 
       0.141259         18.7443          18.731 
       0.147318         17.3786         17.3871 
       0.153489         16.0135         15.9986 
       0.159709         14.7229          14.696 
       0.165845         13.5849         13.5948 
       0.171974         12.7493          12.714 
       0.178125         12.0604         12.0341 
       0.184229         11.5137         11.5071 
        0.19034         11.0862          11.056 
       0.196428         10.6341         10.6172 
       0.202534         10.1302          10.145 
       0.208729         9.62957         9.62042 
       0.214876         9.09953         9.07093 
       0.220989         8.52439         8.52851 
       0.227147         8.05166         8.02115 
        0.23329         7.61103         7.57874 
       0.239377         7.24433         7.21144 
       0.245482          6.9368         6.90684 
       0.251667         6.65956         6.64524 
       0.257832         6.43621         6.40869 
       0.263955         6.19406         6.17781 
       0.270079          5.9533           5.939 
        0.27624         5.69153           5.688 
       0.282372         5.43971         5.43312 
        0.28843         5.20896         5.18621 
       0.294538          4.9726         4.95227 
       0.300721         4.74856         4.73832 
        0.30691         4.57182         4.54927 
       0.313033         4.40404         4.38496 
       0.319153         4.27282          4.2373 
       0.325316         4.10859         4.09864 
        0.33145         3.97513         3.96433 
       0.337538         3.84564         3.83117 
       0.343633         3.71616         3.69686 
       0.349808         3.57704         3.56147 
       0.355968         3.44256         3.42984 
       0.362074         3.32485         3.30577 
       0.368217         3.20786         3.18971 
       0.374374         3.11033         3.08265 
       0.380519         3.00211         2.98466 
       0.386598         2.90873         2.89455 
       0.392688            2.82         2.80905 
        0.39888         2.74051         2.72518 
       0.405048         2.65939         2.64324 
       0.411186         2.57721         2.56296 
       0.417313         2.50056         2.48438 
       0.423458         2.41848         2.40775 
       0.429607         2.35149          2.3342 
       0.435692         2.28367         2.26518 
       0.441815         2.21521         2.19955 
       0.447964         2.14723         2.13746 
       0.454126         2.09464         2.07858 
       0.460267         2.04279         2.02249 
       0.466387         1.98623         1.96854 
        0.47254         1.93522         1.91591 
       0.478662         1.88218         1.86486 
       0.484765         1.83375         1.81523 
       0.490885         1.78276         1.76695 
       0.497035         1.73197         1.72015 
       0.503198         1.69093         1.67511 
       0.509342         1.64392         1.63208 
       0.515458         1.60697         1.59111 
       0.521598         1.56747         1.55171 
       0.527764          1.5331         1.51365 
       0.533884         1.48995         1.47712 
           0.54         1.45605         1.44171 
       0.546137         1.41882         1.40723 
       0.552299         1.38724          1.3736 
       0.558452         1.35527           1.341 
       0.564573           1.324         1.30957 
       0.570708         1.29329         1.27909 
       0.576825          1.2642         1.24977 
       0.582926         1.23372         1.22156 
       0.589034         1.21038         1.19427 
       0.595184         1.18464         1.16769 
       0.601379         1.15598         1.14174 
       0.607522         1.13019         1.11677 
       0.613639         1.10369         1.09264 
       0.619772          1.0835         1.06913 
       0.625918         1.06013         1.04624 
       0.632068         1.03807         1.02399 
       0.638161         1.01596         1.00257 
         0.6443        0.994646        0.981624 
       0.650464        0.974939        0.961227 
       0.656582        0.956418        0.941591 
       0.662703        0.936483        0.922525 
       0.668861        0.915008        0.903894 
       0.675024        0.898411        0.885766 
       0.681124        0.885273         0.86831 
       0.687237        0.865228        0.851277 
       0.693381        0.846177        0.834612 
       0.699536        0.833212         0.81836 
       0.705665        0.817087        0.802612 
       0.711789        0.799094          0.7873 
       0.717957        0.785271        0.772292 
        0.72409        0.770072        0.757768 
       0.730186        0.758101        0.743711 
       0.736317        0.742313         0.72994 
       0.742472        0.730081        0.716469 
       0.748622        0.717137         0.70335 
        0.75476         0.70324        0.690588 
       0.760888        0.692461         0.67816 
       0.767043        0.675568         0.66599 
       0.773185        0.665851        0.654145 
       0.779291        0.656456        0.642656 
       0.785407        0.643833        0.631429 
       0.791564        0.632644        0.620402 
       0.797719        0.621825        0.609647 
       0.803834        0.610967        0.599217 
       0.809972          0.6011        0.588997 
       0.816124         0.59054        0.578994 
       0.822261        0.581639        0.569252 
       0.828378        0.571148        0.559764 
       0.834502        0.562006        0.550485 
       0.840667        0.553623        0.541358 
       0.846816        0.544476        0.532463 
       0.852925        0.534505        0.523825 
       0.859047        0.526423        0.515361 
       0.865192        0.518375        0.507058 
       0.871341        0.511004        0.498932 
       0.877463        0.501495        0.491022 
       0.883569        0.494171        0.483305 
       0.889708        0.486963        0.475714 
       0.895864          0.4796        0.468268 
       0.902008          0.4715        0.460998 
       0.908149         0.46513        0.453888 
       0.914301        0.458953        0.446916 
       0.920448        0.451733        0.440098 
       0.926574          0.4458        0.433447 
       0.932687        0.439058        0.426948 
       0.938823        0.431262         0.42056 
       0.944975        0.425649        0.414288 
       0.951105        0.418538        0.408167 
       0.957225        0.412327        0.402181 
       0.963368        0.407371        0.396295 
       0.969511        0.402217        0.390527 
       0.975621        0.395297        0.384906 
       0.981748         0.38896        0.379381 
       0.987916        0.383941         0.37393 
        0.99406        0.379255        0.368607 
        1.00019        0.373585        0.363399 
        1.00632        0.369556        0.358297 
        1.01246        0.364297        0.353285 
        1.01859        0.358983        0.348377 
        1.02471        0.353563         0.34357 
        1.03085        0.348422        0.338836 
        1.03698         0.34448        0.334202 
        1.04314        0.339878        0.329636 
        1.04929        0.336087        0.325165 
        1.05541        0.330364        0.320796 
        1.06154        0.326653        0.316497 
        1.06769        0.322701         0.31227 
        1.07382         0.31844        0.308134 
        1.07993        0.314568        0.304082 
        1.08607        0.310003        0.300087 
        1.09222        0.306089         0.29616 
        1.09836        0.302209        0.292308 
        1.10449        0.298131        0.288529 
        1.11063        0.294485        0.284813 
        1.11677        0.291323        0.281164 
         1.1229        0.286822        0.277585 
        1.12903        0.283804        0.274066 
        1.13518        0.280076        0.270605 
        1.14131        0.276901        0.267205 
        1.14745        0.274396        0.263866 
        1.15359        0.270362        0.260584 
        1.15973        0.267573        0.257356 
        1.16584        0.263859        0.254198 
        1.17197        0.260459        0.251088 
        1.17811        0.257314        0.248021 
        1.18424          0.2543        0.245014 
        1.19038        0.250875        0.242049 
        1.19652        0.248958        0.239133 
        1.20267        0.245858        0.236266 
        1.20881        0.242056        0.233447 
        1.21495        0.239714        0.230678 
        1.22108        0.237207        0.227955 
         1.2272        0.234067        0.225282 
        1.23334        0.231499        0.222646 
        1.23949        0.229358        0.220045 
        1.24562        0.226585        0.217494 
        1.25174        0.224049        0.214987 
        1.25789        0.220848        0.212512 
        1.26402        0.219192         0.21008 
        1.27014        0.216024        0.207693 
        1.27628        0.214217        0.205335 
        1.28244        0.211878         0.20301 
        1.28858        0.209102        0.200723 
        1.29471        0.207038        0.198478 
        1.30084        0.204683        0.196268 
        1.30697        0.202939        0.194089 
        1.31312        0.200718         0.19194 
        1.31925        0.198423         0.18983 
        1.32537        0.196309        0.187754 
        1.33151        0.194286        0.185702 
        1.33765        0.191987        0.183681 
        1.34378        0.189785        0.181695 
        1.34992        0.188491        0.179736 
        1.35606        0.186195        0.177803 
         1.3622        0.184285        0.175901 
        1.36833        0.182687        0.174031 
        1.37445        0.180874         0.17219 
        1.38059        0.178763         0.17037 
        1.38675        0.176733        0.168572 
        1.39288        0.174664        0.166806 
        1.39901         0.17357        0.165067 
        1.40515        0.171556        0.163349 
         1.4113        0.170139        0.161656 
        1.41742        0.168483        0.159994 
        1.42355        0.166159        0.158352 
         1.4297        0.165172        0.156728 
        1.43585        0.163167        0.155127 
        1.44198        0.161769        0.153555 
        1.44809        0.160016        0.152007 
        1.45423        0.158542        0.150476 
        1.46036        0.156964        0.148968 
        1.46649        0.155405         0.14748 
        1.47263        0.153542        0.146012 
        1.47877        0.152917        0.144564 
        1.48491        0.150751        0.143133 
        1.49104        0.149972        0.141725 
        1.49718        0.148278        0.140335 
        1.50333        0.146944        0.138961 
        1.50947        0.145648        0.137608 
         1.5156        0.144157        0.136276 
        1.52172        0.142945        0.134961 
        1.52787         0.14126        0.133661 
          1.534        0.140319        0.132379 
        1.54013        0.138804        0.131116 
        1.54627        0.137755        0.129866 
        1.55241        0.136382        0.128633 
        1.55855        0.135218        0.127418 
        1.56467        0.134093        0.126221 
         1.5708        0.132766        0.125037 
        1.57695        0.131582        0.123866 
        1.58308        0.130048        0.122712 
        1.58922        0.129235        0.121573 
        1.59535        0.127921        0.120448 
         1.6015        0.126971        0.119336 
        1.60764        0.125641        0.118239 
        1.61376        0.124671        0.117159 
        1.61989        0.123484        0.116091 
        1.62604        0.122569        0.115034 
        1.63218        0.121468        0.113991 
        1.63831        0.120374        0.112963 
        1.64444        0.119329        0.111947 
        1.65059        0.118095        0.110942 
        1.65673        0.117279         0.10995 
        1.66285        0.116391        0.108973 
        1.66898        0.115105        0.108007 
        1.67512        0.114238        0.107051 
        1.68127          0.1133        0.106106 
         1.6874        0.112459        0.105175 
        1.69353        0.111513        0.104255 
        1.69967        0.110294        0.103344 
        1.70581        0.109764        0.102445 
        1.71193         0.10885        0.101559 
        1.71806        0.107802        0.100682 
        1.72421        0.106825       0.0998136 
        1.73035        0.106068       0.0989564 
        1.73649        0.105196       0.0981095 
        1.74262        0.104327       0.0972732 
        1.74876        0.103618        0.096446 
        1.75489        0.102594       0.0956302 
        1.76101        0.101867        0.094824 
        1.76715        0.101116       0.0940261 
        1.77329        0.100147       0.0932362 
        1.77943        0.099348       0.0924552 
        1.78557       0.0987804       0.0916842 
        1.79171       0.0979756       0.0909218 
        1.79785       0.0970108       0.0901679 
        1.80399       0.0962088       0.0894228 
        1.81012       0.0956112        0.088687 
        1.81625        0.094871       0.0879599 
        1.82239       0.0942768       0.0872398 
        1.82853       0.0933542       0.0865281 
        1.83466       0.0926759        0.085825 
        1.84078       0.0919648       0.0851305 
        1.84692       0.0912909       0.0844425 
        1.85306        0.090622       0.0837613 
         1.8592       0.0899689       0.0830887 
        1.86533       0.0893155       0.0824238 
        1.87147       0.0885778       0.0817655 
        1.87761       0.0877894        0.081114 
        1.88375       0.0870306       0.0804704 
        1.88988        0.086567       0.0798344 
        1.89601       0.0858214        0.079205 
        1.90215       0.0851437       0.0785818 
        1.90829       0.0844254       0.0779657 
        1.91442       0.0839911       0.0773561 
        1.92056       0.0833786       0.0767535 
         1.9267       0.0827168       0.0761568 
        1.93284       0.0820034        0.075566 
        1.93897       0.0814421       0.0749826 
        1.94509       0.0808686       0.0744066 
        1.95123       0.0803106       0.0738352 
        1.95737       0.0797938       0.0732694 
        1.96349        0.079272        0.072711 
        1.96964       0.0785831       0.0721568 
        1.97578       0.0781095       0.0716081 
        1.98192       0.0775162       0.0710662 
        1.98805       0.0770293       0.0705298 
        1.99419       0.0764981        0.069999 
        2.00033       0.0758325       0.0694733 
        2.00647       0.0753281       0.0689532 
         2.0126       0.0749739       0.0684393 
        2.01874       0.0742912       0.0679298 
        2.02488         0.07378       0.0674251 
        2.03101       0.0732635       0.0669264 
        2.03714       0.0730277       0.0664332 
        2.04328       0.0721839       0.0659444 
        2.04941       0.0718372       0.0654609 
        2.05554       0.0714007       0.0649826 
        2.06167       0.0708172       0.0645084 
        2.06781       0.0702565       0.0640389 
        2.07396       0.0697908       0.0635734 
        2.08009       0.0693959       0.0631133 
        2.08622       0.0689805       0.0626583 
        2.09237       0.0684394       0.0622068 
        2.09851       0.0679907       0.0617597 
        2.10464       0.0675399       0.0613178 
        2.11077       0.0670447       0.0608807 
        2.11691       0.0667458       0.0604469 
        2.12305       0.0660769       0.0600172 
        2.12918        0.065701       0.0595928 
        2.13531       0.0653073       0.0591725 
        2.14145       0.0648546       0.0587552 
         2.1476       0.0645058       0.0583415 
        2.15372       0.0640583       0.0579338 
        2.15985       0.0636148       0.0575296 
        2.16599       0.0630947       0.0571281 
        2.17213       0.0628592       0.0567308 
        2.17827       0.0624234       0.0563374 
         2.1844        0.061997       0.0559481 
        2.19054       0.0616469       0.0555623 
        2.19666       0.0612113       0.0551807 
         2.2028       0.0606952       0.0548024 
        2.20893       0.0604495       0.0544274 
        2.21508       0.0600026       0.0540555 
        2.22122       0.0595811       0.0536869 
        2.22736       0.0592908       0.0533225 
        2.23349       0.0588774       0.0529616 
        2.23962        0.058585       0.0526038 
        2.24577       0.0582126        0.052249 
         2.2519       0.0577976        0.051898 
        2.25802       0.0574964       0.0515507 
        2.26417       0.0571664       0.0512057 
        2.27031       0.0567548       0.0508635 
        2.27644        0.056504       0.0505254 
        2.28257       0.0560908       0.0501904 
        2.28872       0.0557192       0.0498578 
        2.29486       0.0554497       0.0495283 
        2.30099       0.0550363       0.0492024 
        2.30712        0.054831       0.0488793 
        2.31326       0.0543102       0.0485586 
         2.3194        0.054082       0.0482409 
        2.32553       0.0537872       0.0479266 
        2.33166        0.053382       0.0476152 
         2.3378       0.0530852       0.0473062 
        2.34394       0.0527976       0.0469998 
        2.35007         0.05251       0.0466965 
        2.35619       0.0523489       0.0463963 
        2.36233       0.0518437        0.046098 
        2.36848       0.0515954       0.0458017 
        2.37462       0.0513436       0.0455086 
        2.38075       0.0510223       0.0452183 
        2.38689       0.0507431       0.0449304 
        2.39303       0.0504887        0.044645 
        2.39916       0.0500448       0.0443623 
        2.40529       0.0497852       0.0440822 
        2.41143       0.0494652       0.0438042 
        2.41757       0.0492419       0.0435285 
         2.4237       0.0489494       0.0432557 
        2.42983       0.0486885       0.0429852 
        2.43598       0.0483842       0.0427164 
        2.44211       0.0480593       0.0424502 
        2.44823       0.0478699        0.042187 
        2.45437        0.047578       0.0419252 
        2.46052       0.0473221       0.0416655 
        2.46665       0.0470355       0.0414083 
        2.47279       0.0468309       0.0411535 
        2.47892       0.0466161       0.0409006 
        2.48507       0.0462732       0.0406496 
         2.4912       0.0460531       0.0404012 
