# k  (h/Mpc)    P(k)  (Mpc/h)^3    P_linear(k)  (Mpc/h)^3
     0.00783031           18201         18542.2 
       0.013688         20974.7         20802.3 
       0.019231         19547.4         19496.1 
      0.0249154         16399.3         16729.1 
      0.0312784         13298.6         13397.1 
      0.0375637         10756.6         10685.8 
      0.0433917         8832.33         8908.45 
      0.0492413         7772.24          7755.9 
      0.0555754         6847.54         6992.69 
      0.0619321         6544.79         6467.06 
       0.067871         5898.12         5998.82 
      0.0738098         5374.37         5453.99 
      0.0800417          4700.8         4796.28 
      0.0862327         4117.94         4124.68 
      0.0921407         3639.08         3548.24 
      0.0982031         3153.92         3079.13 
       0.104506         2909.38         2739.79 
       0.110769         2678.58         2530.44 
       0.116806         2534.94         2406.41 
       0.122832         2426.63         2311.14 
       0.129052         2255.62         2201.13 
       0.135211         2122.22         2058.27 
       0.141259         2000.83         1886.45 
       0.147318         1846.55          1701.1 
       0.153489         1661.77         1522.86 
       0.159709         1545.48         1373.41 
       0.165845         1464.03         1263.83 
       0.171974         1382.46         1189.24 
       0.178125         1317.95          1139.1 
       0.184229         1262.11         1100.48 
        0.19034         1190.55         1060.69 
       0.196428         1161.32         1012.28 
       0.202534         1113.54         953.399 
       0.208729         1049.24         886.973 
       0.214876          993.86         821.118 
       0.220989         949.722         762.023 
       0.227147         905.843         712.881 
        0.23329         865.175             675 
       0.239377          845.98         646.558 
       0.245482         789.557         623.641 
       0.251667         784.306         602.241 
       0.257832         751.832         579.728 
       0.263955         725.472          554.81 
       0.270079         695.236         527.581 
        0.27624         684.774         499.417 
       0.282372         656.251          472.48 
        0.28843         642.275         448.492 
       0.294538         607.941         427.719 
       0.300721         603.108         410.095 
        0.30691         577.138         395.137 
       0.313033           564.9         381.854 
       0.319153          548.95         369.067 
       0.325316         532.724         355.942 
        0.33145         517.126         342.419 
       0.337538         507.235         328.701 
       0.343633         492.375         315.138 
       0.349808         473.796         302.083 
       0.355968         469.296         290.102 
       0.362074          462.48         279.443 
       0.368217         448.392         269.813 
       0.374374         428.923         261.042 
       0.380519         427.158         252.829 
       0.386598         415.007          244.95 
       0.392688          411.91         237.156 
        0.39888           399.8         229.249 
       0.405048         391.746         221.481 
       0.411186         385.281         213.979 
       0.417313         377.291         206.831 
       0.423458         368.763         200.104 
       0.429607         363.562         193.841 
       0.435692         354.037          188.05 
       0.441815         350.213         182.567 
       0.447964          342.55         177.318 
       0.454126         335.706         172.225 
       0.460267         328.666         167.271 
       0.466387          324.19         162.455 
        0.47254         319.057         157.736 
       0.478662          317.26         153.194 
       0.484765         305.506          148.85 
       0.490885         302.622         144.703 
       0.497035         296.768         140.736 
       0.503198         292.859         136.947 
       0.509342         290.805         133.338 
       0.515458         286.845         129.884 
       0.521598         279.167         126.531 
       0.527764         275.799         123.258 
       0.533884         272.925         120.103 
           0.54         268.939         117.048 
       0.546137         267.496         114.085 
       0.552299          262.08         111.213 
       0.558452         260.533         108.452 
       0.564573         256.833         105.808 
       0.570708         251.515          103.26 
       0.576825         247.154         100.812 
       0.582926         244.952         98.4518 
       0.589034         242.444         96.1609 
       0.595184         240.482         93.9215 
       0.601379         236.068         91.7334 
       0.607522          233.15           89.63 
       0.613639         231.441         87.6007 
       0.619772         227.088         85.6304 
       0.625918          225.87         83.7183 
       0.632068         221.974         81.8652 
       0.638161         220.913         80.0864 
         0.6443         217.456         78.3497 
       0.650464         215.321         76.6595 
       0.656582         212.499          75.032 
       0.662703         212.391         73.4512 
       0.668861         208.873         71.9062 
       0.675024         206.032         70.4032 
       0.681124         204.479         68.9574 
       0.687237         202.324         67.5489 
       0.693381         199.078         66.1732 
       0.699536         197.315          64.834 
       0.705665         195.531         63.5384 
       0.711789         194.151         62.2803 
       0.717957         193.235         61.0483 
        0.72409          190.98         59.8568 
       0.730186         188.603         58.7045 
       0.736317         186.476         57.5763 
       0.742472         185.086         56.4733 
       0.748622         183.693         55.4001 
        0.75476         181.765          54.357 
       0.760888          179.85         53.3422 
       0.767043         179.397         52.3494 
       0.773185         177.776          51.384 
       0.779291         174.491         50.4486 
       0.785407         174.063         49.5354 
       0.791564         172.469         48.6392 
       0.797719         169.841         47.7658 
       0.803834         168.817         46.9195 
       0.809972         168.204         46.0908 
       0.816124         167.154         45.2803 
       0.822261         165.962         44.4916 
       0.828378          164.08         43.7241 
       0.834502         163.174          42.974 
       0.840667          161.32         42.2367 
       0.846816         160.063         41.5188 
       0.852925          159.18         40.8221 
       0.859047         157.946           40.14 
       0.865192          155.89         39.4712 
       0.871341         154.739         38.8173 
       0.877463         153.874         38.1811 
       0.883569         153.385         37.5608 
       0.889708         151.453         36.9512 
       0.895864         150.266         36.3535 
       0.902008         149.145         35.7703 
       0.908149         148.727         35.2003 
       0.914301         146.739         34.6418 
       0.920448         145.959         34.0959 
       0.926574           144.8         33.5637 
       0.932687         144.788         33.0441 
       0.938823         142.771         32.5336 
       0.944975         142.077         32.0327 
       0.951105         141.071         31.5441 
       0.957225         140.257         31.0667 
       0.963368         138.169         30.5975 
       0.969511         137.823          30.138 
       0.975621         136.638         29.6904 
       0.981748         136.518         29.2508 
       0.987916          135.18         28.8173 
        0.99406         134.127         28.3943 
        1.00019         133.851         27.9806 
        1.00632         132.476         27.5755 
        1.01246         131.694         27.1779 
        1.01859         131.429         26.7888 
        1.02471          129.63         26.4077 
        1.03085         128.663         26.0328 
        1.03698         128.124          25.666 
        1.04314         126.838         25.3047 
        1.04929         126.553         24.9512 
        1.05541         125.832         24.6059 
        1.06154         124.902         24.2662 
        1.06769         124.627         23.9325 
        1.07382         123.429         23.6061 
        1.07993         122.665         23.2866 
        1.08607         122.015         22.9716 
        1.09222         121.454         22.6622 
        1.09836         120.478         22.3588 
        1.10449         119.301         22.0613 
        1.11063         118.671         21.7689 
        1.11677         118.032         21.4819 
         1.1229         117.248         21.2006 
        1.12903         116.896         20.9241 
        1.13518         116.314         20.6523 
        1.14131         115.139         20.3854 
        1.14745         114.989         20.1234 
        1.15359         113.957         19.8659 
        1.15973         113.412         19.6129 
        1.16584         112.507         19.3654 
        1.17197         111.992         19.1218 
        1.17811         111.211         18.8816 
        1.18424         110.925         18.6463 
        1.19038          110.66         18.4142 
        1.19652         109.749         18.1863 
        1.20267         108.964         17.9622 
        1.20881          108.44         17.7419 
        1.21495         107.467         17.5256 
        1.22108         107.126          17.313 
         1.2272         106.223         17.1044 
        1.23334          105.89         16.8988 
        1.23949         105.316         16.6961 
        1.24562          104.62         16.4972 
        1.25174         104.299         16.3019 
        1.25789          103.61         16.1092 
        1.26402         102.416         15.9199 
        1.27014         102.097         15.7342 
        1.27628         101.841         15.5508 
        1.28244         101.528           15.37 
        1.28858         100.865         15.1923 
        1.29471         99.9883         15.0178 
        1.30084         99.9742         14.8463 
        1.30697         98.8441         14.6771 
        1.31312         98.4697         14.5103 
        1.31925         97.8459         14.3467 
        1.32537         97.5158         14.1857 
        1.33151         96.8147         14.0266 
        1.33765         96.2735           13.87 
        1.34378         95.9134         13.7161 
        1.34992         95.5938         13.5645 
        1.35606         95.1256         13.4148 
         1.3622         94.2816         13.2676 
        1.36833         93.8333          13.123 
        1.37445         93.5026         12.9807 
        1.38059         92.6968         12.8399 
        1.38675         92.1969          12.701 
        1.39288         92.1376         12.5646 
        1.39901         91.6066         12.4303 
        1.40515         90.8705         12.2977 
         1.4113         90.6333          12.167 
        1.41742          90.001         12.0388 
        1.42355          89.607         11.9121 
         1.4297         89.2238         11.7869 
        1.43585         88.6201         11.6635 
        1.44198         88.1878         11.5424 
        1.44809         87.9357         11.4232 
        1.45423         87.5713         11.3052 
        1.46036         86.9737         11.1891 
        1.46649         86.4413         11.0746 
        1.47263         85.8417         10.9616 
        1.47877          85.524         10.8503 
        1.48491         85.0254         10.7403 
        1.49104          84.832         10.6321 
        1.49718         84.4043         10.5252 
        1.50333         83.9304         10.4197 
        1.50947         83.4324         10.3158 
         1.5156         83.1807         10.2135 
        1.52172         82.7592         10.1126 
        1.52787           82.21         10.0128 
          1.534         81.8012         9.91454 
        1.54013         81.4301         9.81766 
        1.54627         81.1127          9.7219 
        1.55241         80.6539         9.62739 
        1.55855          80.198         9.53428 
        1.56467         79.9935         9.44265 
         1.5708          79.368         9.35196 
        1.57695         79.2768         9.26233 
        1.58308         78.8247         9.17407 
        1.58922         78.4844          9.0869 
        1.59535         78.0838          9.0009 
         1.6015         77.7054         8.91588 
        1.60764         77.2878           8.832 
        1.61376         76.9949         8.74943 
        1.61989         76.6369         8.66784 
        1.62604         76.1889         8.58711 
        1.63218         76.1018         8.50745 
        1.63831         75.3252         8.42899 
        1.64444         75.0189         8.35147 
        1.65059         74.6834         8.27475 
        1.65673         74.2659         8.19907 
        1.66285         74.0354         8.12455 
        1.66898         73.8047         8.05092 
        1.67512         73.1431         7.97806 
        1.68127         73.0142         7.90604 
         1.6874          72.487         7.83506 
        1.69353         72.2039         7.76499 
        1.69967         72.0277         7.69561 
        1.70581         71.6003         7.62711 
        1.71193         71.2141          7.5597 
        1.71806          70.967         7.49296 
        1.72421         70.6091         7.42689 
        1.73035         70.2815         7.36169 
        1.73649         70.0266         7.29728 
        1.74262         69.5265          7.2337 
        1.74876         69.3275         7.17082 
        1.75489         68.9373         7.10883 
        1.76101         68.6436         7.04758 
        1.76715         68.1544         6.98697 
        1.77329         67.9873         6.92699 
        1.77943         67.5794         6.86769 
        1.78557         67.4486         6.80917 
        1.79171         66.8672         6.75132 
        1.79785         66.5255         6.69413 
        1.80399         66.3453         6.63762 
        1.81012         66.1274         6.58183 
        1.81625         65.8171          6.5267 
        1.82239         65.4464         6.47212 
        1.82853         65.2625         6.41819 
        1.83466         64.9558         6.36493 
        1.84078         64.4947         6.31232 
        1.84692         64.3192         6.26023 
        1.85306         63.9907         6.20865 
         1.8592         63.8006         6.15773 
        1.86533         63.3887         6.10742 
        1.87147         62.9752          6.0576 
        1.87761         62.8268         6.00832 
        1.88375         62.6139         5.95964 
        1.88988         62.1511         5.91155 
        1.89601         62.0356         5.86396 
        1.90215         61.4998         5.81686 
        1.90829         61.3213         5.77029 
        1.91442         61.1066         5.72423 
        1.92056         60.8117         5.67871 
         1.9267         60.5082         5.63364 
        1.93284         60.2438         5.58902 
        1.93897         59.9411         5.54498 
        1.94509         59.7833          5.5015 
        1.95123         59.4138         5.45838 
        1.95737         59.1494         5.41568 
        1.96349         58.8558         5.37355 
        1.96964          58.524         5.33175 
        1.97578         58.2824         5.29037 
        1.98192         58.2731         5.24951 
        1.98805          57.717         5.20908 
        1.99419         57.5577         5.16907 
        2.00033         57.3678         5.12946 
        2.00647         57.0502         5.09027 
         2.0126         56.7553         5.05156 
        2.01874         56.4142         5.01319 
        2.02488         56.3367         4.97519 
        2.03101         56.0056         4.93764 
        2.03714         55.6687         4.90052 
        2.04328         55.4647         4.86374 
        2.04941         55.2081         4.82736 
        2.05554         55.0463         4.79138 
        2.06167         54.8391         4.75572 
        2.06781         54.4371         4.72041 
        2.07396         54.2487         4.68541 
        2.08009         54.0736         4.65082 
        2.08622         53.7318         4.61663 
        2.09237         53.5835          4.5827 
        2.09851         53.4213         4.54912 
        2.10464         53.0322         4.51592 
        2.11077         52.8525         4.48309 
        2.11691         52.5432         4.45052 
        2.12305         52.3863         4.41826 
        2.12918         52.1763         4.38641 
        2.13531         51.7734         4.35486 
        2.14145         51.6184         4.32355 
         2.1476         51.3685         4.29251 
        2.15372         51.1961         4.26193 
        2.15985         50.9667         4.23162 
        2.16599         50.7471         4.20151 
        2.17213          50.553         4.17173 
        2.17827         50.2718         4.14224 
         2.1844         50.0431         4.11306 
        2.19054         49.8078         4.08415 
        2.19666          49.659         4.05556 
         2.2028         49.5126         4.02722 
        2.20893         49.1545         3.99913 
        2.21508         49.0478         3.97127 
        2.22122         48.7817         3.94368 
        2.22736         48.5698          3.9164 
        2.23349         48.3871         3.88938 
        2.23962         48.1208         3.86261 
        2.24577         47.8114         3.83606 
         2.2519         47.7251          3.8098 
        2.25802         47.4941         3.78382 
        2.26417         47.2738         3.75802 
        2.27031         47.1221         3.73243 
        2.27644         46.8116         3.70715 
        2.28257          46.646         3.68211 
        2.28872         46.3941         3.65725 
        2.29486         46.2612         3.63262 
        2.30099          46.012         3.60827 
        2.30712         45.8296         3.58413 
        2.31326         45.5653         3.56017 
         2.3194         45.4002         3.53645 
        2.32553         45.2062         3.51297 
        2.33166         44.9382         3.48972 
         2.3378         44.7803         3.46665 
        2.34394         44.5833         3.44378 
        2.35007         44.4116         3.42114 
        2.35619         44.2439         3.39874 
        2.36233         44.0094         3.37648 
        2.36848         43.8345         3.35438 
        2.37462         43.6289         3.33252 
        2.38075         43.5121         3.31087 
        2.38689         43.2948          3.2894 
        2.39303         43.0458         3.26812 
        2.39916         42.8684         3.24705 
        2.40529         42.7826         3.22617 
        2.41143         42.5607         3.20545 
        2.41757         42.3864         3.18491 
         2.4237          42.137         3.16458 
        2.42983         41.9983         3.14444 
        2.43598         41.7847         3.12441 
        2.44211         41.6014         3.10459 
        2.44823         41.4822         3.08499 
        2.45437         41.2524          3.0655 
        2.46052         41.1113         3.04616 
        2.46665         40.9433         3.02703 
        2.47279         40.6778         3.00806 
        2.47892         40.5668         2.98924 
        2.48507         40.3388         2.97057 
         2.4912         40.2474         2.95209 
