# k  (h/Mpc)    Pcb(k)  (Mpc/h)^3    Pcb_linear(k)  (Mpc/h)^3
     0.00783031          1626.9          1637.5 
       0.013688         2043.82         2067.54 
       0.019231         2132.88          2144.1 
      0.0249154         2033.37         2032.51 
      0.0312784         1801.62         1805.06 
      0.0375637         1559.49         1565.53 
      0.0433917         1376.88         1374.98 
      0.0492413         1225.59         1228.24 
      0.0555754         1118.17         1115.05 
      0.0619321         1023.17         1033.54 
       0.067871         967.296         970.004 
      0.0738098         904.785         906.246 
      0.0800417         833.243         832.518 
      0.0862327         751.305         752.926 
      0.0921407         675.342         676.391 
      0.0982031         606.491         604.064 
       0.104506          539.62         541.167 
       0.110769         493.105         493.405 
       0.116806         464.044         460.165 
       0.122832         436.717         436.165 
       0.129052         418.546          416.46 
       0.135211         401.451         397.687 
       0.141259         378.569         377.129 
       0.147318         352.594         353.531 
       0.153489         328.461         327.337 
       0.159709         304.383         300.853 
       0.165845         277.188         276.888 
       0.171974         262.034         256.686 
       0.178125         246.218         240.734 
       0.184229         232.165         228.775 
        0.19034         224.969         219.568 
       0.196428         216.836         211.757 
       0.202534         206.029             204 
       0.208729         199.734          195.33 
       0.214876         191.325         185.671 
       0.220989         178.348         175.327 
       0.227147           171.1          164.83 
        0.23329         162.038         155.006 
       0.239377           154.5         146.449 
       0.245482         146.548         139.284 
       0.251667          139.79         133.392 
       0.257832         136.841          128.55 
       0.263955         130.684         124.316 
       0.270079           126.4         120.218 
        0.27624         121.248         115.924 
       0.282372         117.064         111.363 
        0.28843         114.371         106.627 
       0.294538         109.017         101.813 
       0.300721         103.655         97.1289 
        0.30691         100.813          92.833 
       0.313033         96.5239          89.076 
       0.319153         94.4522         85.8164 
       0.325316         90.3128         82.9481 
        0.33145         87.4792         80.3692 
       0.337538         85.0798         77.9359 
       0.343633         82.8024         75.5161 
       0.349808         80.0438         73.0151 
       0.355968         77.4885         70.4741 
       0.362074         75.7531         67.9493 
       0.368217         73.2966         65.4777 
       0.374374         71.5033         63.1329 
       0.380519         68.3988         60.9708 
       0.386598         66.3929         59.0237 
       0.392688         64.4445         57.2423 
        0.39888         63.1988         55.5708 
       0.405048         61.7141         53.9956 
       0.411186         60.1117         52.4726 
       0.417313         58.4513         50.9725 
       0.423458         56.7559         49.4743 
       0.429607         55.7378         47.9895 
       0.435692         54.6714         46.5546 
       0.441815         52.5827         45.1629 
       0.447964          50.991         43.8348 
       0.454126         50.0658         42.5855 
       0.460267         49.5115         41.4182 
       0.466387         48.0943         40.3211 
        0.47254         47.3651         39.2729 
       0.478662         45.8923         38.2693 
       0.484765         44.9409         37.2941 
       0.490885         43.6624         36.3353 
       0.497035         42.9452          35.392 
       0.503198         41.9708         34.4688 
       0.509342         40.8411         33.5749 
       0.515458         40.3055         32.7173 
       0.521598         39.3493         31.8939 
       0.527764         38.7895         31.1047 
       0.533884         37.8731         30.3554 
           0.54         37.1365         29.6371 
       0.546137         36.0358          28.943 
       0.552299         35.4294         28.2685 
       0.558452         34.6983         27.6129 
       0.564573         34.3493         26.9762 
       0.570708         33.4527         26.3538 
       0.576825          32.978         25.7509 
       0.582926         32.3894         25.1682 
       0.589034         31.7567         24.6038 
       0.595184         31.3467         24.0547 
       0.601379         30.5053         23.5208 
       0.607522         30.0316           23.01 
       0.613639         29.5158         22.5185 
       0.619772         29.0348          22.041 
       0.625918         28.4491          21.576 
       0.632068         28.1986         21.1227 
       0.638161         27.6275          20.685 
         0.6443         27.1763         20.2555 
       0.650464         26.5074         19.8364 
       0.656582         26.3427         19.4325 
       0.662703         26.0255         19.0402 
       0.668861         25.3292         18.6572 
       0.675024         25.0064         18.2849 
       0.681124         24.8737         17.9269 
       0.687237         24.3607          17.578 
       0.693381         23.8269         17.2369 
       0.699536         23.7279         16.9044 
       0.705665          23.282          16.582 
       0.711789         22.8613         16.2684 
       0.717957         22.4014         15.9606 
        0.72409         22.2129         15.6623 
       0.730186         22.0927         15.3733 
       0.736317         21.6293           15.09 
       0.742472          21.355         14.8129 
       0.748622         21.0264         14.5431 
        0.75476         20.5066         14.2807 
       0.760888         20.4235         14.0254 
       0.767043          20.074         13.7755 
       0.773185         19.8559         13.5324 
       0.779291         19.6808         13.2965 
       0.785407         19.3322          13.066 
       0.791564         19.1814         12.8395 
       0.797719         18.7776         12.6184 
       0.803834         18.6837          12.404 
       0.809972         18.3293         12.1937 
       0.816124         18.1328         11.9879 
       0.822261         17.9305         11.7874 
       0.828378           17.72         11.5921 
       0.834502         17.5395         11.4011 
       0.840667         17.3546         11.2132 
       0.846816          16.979         11.0301 
       0.852925         16.9094         10.8523 
       0.859047         16.7022         10.6781 
       0.865192         16.4729         10.5072 
       0.871341         16.2529         10.3399 
       0.877463         16.0792          10.177 
       0.883569         15.9763         10.0181 
       0.889708         15.7152         9.86177 
       0.895864         15.5218          9.7084 
       0.902008          15.341         9.55864 
       0.908149         15.1397         9.41213 
       0.914301         15.0576         9.26848 
       0.920448         14.8358         9.12797 
       0.926574         14.7477         8.99088 
       0.932687         14.5279         8.85692 
       0.938823         14.3419         8.72521 
       0.944975         14.2365          8.5959 
       0.951105         14.0621         8.46969 
       0.957225         13.9791         8.34623 
       0.963368         13.7752         8.22484 
       0.969511         13.6303         8.10587 
       0.975621         13.4981          7.9899 
       0.981748         13.3164         7.87592 
       0.987916          13.222         7.76345 
        0.99406         13.0965         7.65361 
        1.00019         12.9882         7.54613 
        1.00632         12.8701         7.44082 
        1.01246         12.7287         7.33737 
        1.01859         12.5847         7.23606 
        1.02471         12.4319          7.1368 
        1.03085         12.3888         7.03907 
        1.03698          12.267         6.94339 
        1.04314         12.1236         6.84908 
        1.04929         11.9637         6.75676 
        1.05541         11.9073         6.66652 
        1.06154         11.7978         6.57771 
        1.06769         11.7272         6.49038 
        1.07382         11.5331         6.40494 
        1.07993         11.4336         6.32123 
        1.08607         11.3823         6.23868 
        1.09222         11.2357         6.15753 
        1.09836         11.2001         6.07791 
        1.10449         11.0183         5.99981 
        1.11063         10.9837         5.92299 
        1.11677         10.9043         5.84756 
         1.1229         10.8009         5.77357 
        1.12903         10.7194          5.7008 
        1.13518         10.5632         5.62923 
        1.14131         10.5012         5.55894 
        1.14745         10.3625         5.48988 
        1.15359         10.2875           5.422 
        1.15973         10.1986         5.35523 
        1.16584         10.1227         5.28989 
        1.17197         10.0343         5.22556 
        1.17811         9.94785         5.16209 
        1.18424         9.87784         5.09988 
        1.19038         9.81781         5.03851 
        1.19652         9.73818         4.97817 
        1.20267         9.65964         4.91883 
        1.20881         9.55603         4.86048 
        1.21495         9.48204         4.80316 
        1.22108         9.42906         4.74678 
         1.2272         9.34005         4.69144 
        1.23334         9.31234         4.63686 
        1.23949         9.20282         4.58302 
        1.24562          9.1352         4.53019 
        1.25174         9.08066         4.47827 
        1.25789         8.95796         4.42701 
        1.26402         8.93481         4.37664 
        1.27014         8.88151         4.32719 
        1.27628         8.76856         4.27835 
        1.28244          8.7543         4.23018 
        1.28858         8.68682         4.18281 
        1.29471         8.56963         4.13628 
        1.30084         8.50753          4.0905 
        1.30697          8.4974         4.04534 
        1.31312         8.40483          4.0008 
        1.31925         8.35116         3.95708 
        1.32537         8.29963         3.91405 
        1.33151         8.23138          3.8715 
        1.33765         8.16669         3.82962 
        1.34378         8.15465         3.78844 
        1.34992         8.06804         3.74784 
        1.35606         8.00834         3.70774 
         1.3622          7.9473         3.66831 
        1.36833         7.89864         3.62954 
        1.37445         7.83879         3.59135 
        1.38059         7.78882          3.5536 
        1.38675         7.73341          3.5163 
        1.39288         7.67538         3.47969 
        1.39901         7.61582         3.44362 
        1.40515         7.57603         3.40797 
         1.4113         7.51394         3.37285 
        1.41742         7.48002         3.33836 
        1.42355         7.41446         3.30428 
         1.4297         7.37948         3.27058 
        1.43585         7.33818         3.23736 
        1.44198         7.28248         3.20474 
        1.44809          7.2438         3.17262 
        1.45423          7.1832         3.14083 
        1.46036         7.14779         3.10953 
        1.46649         7.09636         3.07865 
        1.47263         7.06312         3.04816 
        1.47877         7.01373          3.0181 
        1.48491         6.98005          2.9884 
        1.49104         6.91855         2.95916 
        1.49718         6.89508         2.93029 
        1.50333         6.84414         2.90177 
        1.50947         6.78238         2.87368 
         1.5156         6.76916           2.846 
        1.52172         6.72753         2.81869 
        1.52787         6.68603         2.79168 
          1.534         6.64307         2.76506 
        1.54013          6.6109         2.73881 
        1.54627         6.56385         2.71286 
        1.55241         6.51035         2.68724 
        1.55855         6.49948         2.66199 
        1.56467         6.45285         2.63713 
         1.5708         6.41496         2.61252 
        1.57695         6.35936         2.58818 
        1.58308         6.32142         2.56422 
        1.58922         6.30075         2.54053 
        1.59535         6.26479         2.51716 
         1.6015         6.21368         2.49405 
        1.60764         6.19145         2.47124 
        1.61376         6.16086         2.44878 
        1.61989         6.10334         2.42658 
        1.62604         6.08084         2.40461 
        1.63218         6.05288         2.38292 
        1.63831         6.02703         2.36155 
        1.64444         5.97459         2.34044 
        1.65059         5.95153         2.31953 
        1.65673         5.92212          2.2989 
        1.66285         5.89194         2.27858 
        1.66898         5.85486          2.2585 
        1.67512         5.81599         2.23862 
        1.68127         5.78094         2.21897 
         1.6874         5.76241         2.19959 
        1.69353         5.71658         2.18046 
        1.69967         5.69822          2.1615 
        1.70581         5.65662         2.14279 
        1.71193         5.63549         2.12436 
        1.71806         5.60766         2.10612 
        1.72421         5.57193         2.08805 
        1.73035         5.54451         2.07021 
        1.73649         5.51477         2.05259 
        1.74262         5.48329         2.03518 
        1.74876         5.47109         2.01797 
        1.75489         5.43356         2.00099 
        1.76101          5.3943         1.98421 
        1.76715         5.38633          1.9676 
        1.77329          5.3567         1.95116 
        1.77943         5.31392          1.9349 
        1.78557         5.30398         1.91885 
        1.79171         5.27905         1.90298 
        1.79785         5.25046         1.88728 
        1.80399         5.20399         1.87177 
        1.81012         5.19356         1.85645 
        1.81625         5.16337         1.84131 
        1.82239          5.1441         1.82632 
        1.82853         5.11197          1.8115 
        1.83466         5.07477         1.79685 
        1.84078         5.05562         1.78239 
        1.84692           5.036         1.76806 
        1.85306         5.01058         1.75387 
         1.8592         4.99578         1.73986 
        1.86533         4.97069         1.72601 
        1.87147         4.94434          1.7123 
        1.87761         4.92988         1.69873 
        1.88375         4.89628         1.68532 
        1.88988          4.8728         1.67207 
        1.89601         4.84913         1.65896 
        1.90215          4.8155         1.64597 
        1.90829         4.81263         1.63313 
        1.91442          4.7765         1.62043 
        1.92056         4.76972         1.60787 
         1.9267         4.73381         1.59544 
        1.93284         4.73051         1.58313 
        1.93897         4.69121         1.57097 
        1.94509          4.6649         1.55896 
        1.95123         4.65236         1.54705 
        1.95737         4.63404         1.53526 
        1.96349         4.60048         1.52362 
        1.96964         4.58489         1.51206 
        1.97578         4.56838         1.50063 
        1.98192         4.54049         1.48933 
        1.98805         4.52746         1.47815 
        1.99419         4.50983         1.46708 
        2.00033         4.47278         1.45612 
        2.00647         4.46916         1.44527 
         2.0126         4.44771         1.43456 
        2.01874         4.43365         1.42393 
        2.02488         4.40979         1.41341 
        2.03101          4.3795         1.40301 
        2.03714         4.36868         1.39272 
        2.04328         4.35154         1.38253 
        2.04941         4.32859         1.37244 
        2.05554         4.31807         1.36246 
        2.06167         4.29229         1.35257 
        2.06781         4.27732         1.34278 
        2.07396          4.2543         1.33307 
        2.08009         4.24458         1.32347 
        2.08622         4.22731         1.31398 
        2.09237         4.21824         1.30456 
        2.09851         4.18283         1.29523 
        2.10464         4.17037         1.28601 
        2.11077         4.16227         1.27689 
        2.11691         4.14107         1.26783 
        2.12305         4.11681         1.25887 
        2.12918         4.10551         1.25001 
        2.13531         4.08407         1.24124 
        2.14145         4.07294         1.23253 
         2.1476         4.04867          1.2239 
        2.15372          4.0357         1.21539 
        2.15985         4.02328         1.20695 
        2.16599          4.0084         1.19857 
        2.17213         3.99537         1.19028 
        2.17827         3.96693         1.18207 
         2.1844         3.95109         1.17394 
        2.19054         3.94087         1.16589 
        2.19666         3.92713         1.15792 
         2.2028         3.89749         1.15002 
        2.20893         3.89747         1.14219 
        2.21508         3.88254         1.13442 
        2.22122         3.85211         1.12673 
        2.22736         3.84577         1.11912 
        2.23349         3.82832         1.11158 
        2.23962          3.8208         1.10411 
        2.24577         3.79329          1.0967 
         2.2519         3.78707         1.08937 
        2.25802         3.76583         1.08212 
        2.26417         3.75422         1.07491 
        2.27031         3.73833         1.06776 
        2.27644         3.72534          1.0607 
        2.28257         3.71184         1.05371 
        2.28872         3.69881         1.04676 
        2.29486         3.67935         1.03987 
        2.30099         3.66635         1.03307 
        2.30712         3.65583         1.02632 
        2.31326         3.64165         1.01962 
         2.3194         3.62662         1.01298 
        2.32553         3.61483         1.00641 
        2.33166         3.60612        0.999906 
         2.3378         3.59042        0.993449 
        2.34394         3.57205        0.987046 
        2.35007         3.55514        0.980709 
        2.35619          3.5499        0.974435 
        2.36233         3.53186        0.968201 
        2.36848         3.52438        0.962009 
        2.37462         3.51114        0.955883 
        2.38075         3.50143        0.949817 
        2.38689         3.48641        0.943799 
        2.39303          3.4726        0.937833 
        2.39916          3.4595        0.931926 
        2.40529         3.44469        0.926069 
        2.41143         3.43819        0.920259 
        2.41757         3.42922        0.914496 
         2.4237         3.40946        0.908792 
        2.42983          3.4061        0.903138 
        2.43598         3.39294        0.897517 
        2.44211         3.37296        0.891953 
        2.44823         3.36246        0.886449 
        2.45437         3.34778        0.880976 
        2.46052         3.33941        0.875545 
        2.46665         3.33137        0.870169 
        2.47279         3.30873        0.864839 
        2.47892         3.30535        0.859551 
        2.48507         3.29479        0.854303 
         2.4912         3.28484        0.849107 
