# k  (h/Mpc)    P(k)  (Mpc/h)^3    P_linear(k)  (Mpc/h)^3
     0.00783031         2518.57         2538.35 
       0.013688          3256.7         3304.93 
       0.019231         3472.09         3497.52 
      0.0249154         3375.53         3376.06 
      0.0312784         3044.35         3056.21 
      0.0375637            2680         2698.47 
      0.0433917         2404.23         2405.35 
      0.0492413         2163.72          2174.7 
      0.0555754         1993.02         1992.56 
      0.0619321         1828.47         1857.27 
       0.067871         1736.19         1748.53 
      0.0738098         1629.45         1637.74 
      0.0800417         1506.04         1509.67 
      0.0862327         1364.36         1372.33 
      0.0921407         1234.45          1241.1 
      0.0982031         1119.03         1117.51 
       0.104506         1003.12         1009.95 
       0.110769         923.678         927.659 
       0.116806         875.528         869.312 
       0.122832         824.124         825.755 
       0.129052         789.935         788.511 
       0.135211         758.771         752.314 
       0.141259         714.083         713.094 
       0.147318         664.426         669.123 
       0.153489         622.053         621.419 
       0.159709          581.48          574.02 
       0.165845         531.279         531.562 
       0.171974         507.897         495.826 
       0.178125         480.715         467.323 
       0.184229         452.555         445.396 
        0.19034         440.051           427.8 
       0.196428         424.565         412.257 
       0.202534         401.576         396.619 
       0.208729         390.595          379.44 
       0.214876         375.104         360.856 
       0.220989         349.398         341.505 
       0.227147         338.282         322.268 
        0.23329         322.686         304.469 
       0.239377         310.391         288.983 
       0.245482         294.793         275.863 
       0.251667         282.165          264.78 
       0.257832         277.568         255.334 
       0.263955         264.076         246.799 
       0.270079         255.452         238.433 
        0.27624         244.771         229.773 
       0.282372         237.252         220.794 
        0.28843          233.66         211.713 
       0.294538         222.784         202.671 
       0.300721          212.86         193.979 
        0.30691         208.422         186.023 
       0.313033         199.866         178.991 
       0.319153         196.184         172.769 
       0.325316          188.62         167.138 
        0.33145         183.171         161.954 
       0.337538         177.872         156.999 
       0.343633         172.813          152.09 
       0.349808         167.574          147.09 
       0.355968         162.885         142.106 
       0.362074         159.606         137.243 
       0.368217         155.492         132.531 
       0.374374         152.022          128.08 
       0.380519         145.509         123.949 
       0.386598         142.061          120.18 
       0.392688         138.246         116.674 
        0.39888         135.719         113.324 
       0.405048         132.771         110.135 
       0.411186         130.014         107.046 
       0.417313         126.664         104.019 
       0.423458         123.436         101.034 
       0.429607         121.309         98.1084 
       0.435692         119.182         95.3043 
       0.441815          115.25         92.5984 
       0.447964         111.982         90.0116 
       0.454126         109.959         87.5585 
       0.460267         109.126         85.2452 
       0.466387         106.413          83.049 
        0.47254         105.142         80.9305 
       0.478662         101.702         78.8945 
       0.484765         100.019         76.9211 
       0.490885         97.5419         74.9892 
       0.497035         96.6896         73.0983 
       0.503198         94.3052         71.2599 
       0.509342         92.0062         69.4874 
       0.515458         91.0062          67.787 
       0.521598         88.8407         66.1476 
       0.527764         87.8331         64.5692 
       0.533884         86.6488         63.0631 
           0.54         84.6232         61.6117 
       0.546137         82.3958         60.2024 
       0.552299          81.209         58.8306 
       0.558452         79.6967         57.5003 
       0.564573         79.3098         56.2123 
       0.570708         76.9744         54.9567 
       0.576825         76.2097         53.7416 
       0.582926         75.2196         52.5677 
       0.589034         73.9011         51.4306 
       0.595184         72.9391         50.3227 
       0.601379         71.0543         49.2427 
       0.607522         70.1432         48.2052 
       0.613639         69.3568         47.2037 
       0.619772         68.1794         46.2289 
       0.625918         67.1006         45.2797 
       0.632068         66.4663         44.3556 
       0.638161         65.1784         43.4642 
         0.6443         64.5245         42.5901 
       0.650464         63.1202         41.7368 
       0.656582         62.8075         40.9136 
       0.662703         62.0966         40.1136 
       0.668861          60.633         39.3317 
       0.675024         60.2733         38.5709 
       0.681124         59.5815         37.8386 
       0.687237         58.4097          37.124 
       0.693381          57.711         36.4246 
       0.699536         57.3277         35.7421 
       0.705665          56.334         35.0801 
       0.711789         55.4946         34.4355 
       0.717957         54.6362          33.803 
        0.72409         54.1612         33.1901 
       0.730186         53.8787         32.5964 
       0.736317         52.9034         32.0142 
       0.742472         52.3237         31.4443 
       0.748622         51.5433         30.8891 
        0.75476          50.588         30.3487 
       0.760888         50.5002         29.8223 
       0.767043         49.6429         29.3065 
       0.773185         49.2447         28.8041 
       0.779291         48.6492         28.3166 
       0.785407         47.9048         27.8399 
       0.791564         47.8544         27.3713 
       0.797719         47.0266         26.9138 
       0.803834         46.6784         26.4699 
       0.809972         46.0099         26.0345 
       0.816124         45.5677         25.6082 
       0.822261         45.0705         25.1926 
       0.828378         44.7536         24.7877 
       0.834502         44.2859         24.3914 
       0.840667         43.8924         24.0013 
       0.846816         43.0762          23.621 
       0.852925         42.9982         23.2515 
       0.859047         42.6163         22.8891 
       0.865192         42.0002         22.5334 
       0.871341         41.5473         22.1852 
       0.877463         41.2191         21.8459 
       0.883569         41.0381         21.5147 
       0.889708           40.52         21.1888 
       0.895864         40.0558         20.8688 
       0.902008         39.6132         20.5563 
       0.908149         39.3166         20.2504 
       0.914301         39.0838         19.9503 
       0.920448         38.6205         19.6566 
       0.926574         38.1373           19.37 
       0.932687         37.8593         19.0897 
       0.938823         37.4415         18.8141 
       0.944975         37.1474         18.5433 
       0.951105         36.8291         18.2789 
       0.957225         36.6488         18.0202 
       0.963368         36.1618         17.7657 
       0.969511         35.8843         17.5161 
       0.975621         35.5791         17.2728 
       0.981748          35.202         17.0335 
       0.987916         35.0029         16.7973 
        0.99406         34.6133         16.5665 
        1.00019         34.3966         16.3405 
        1.00632         34.1215         16.1191 
        1.01246          33.876         15.9014 
        1.01859         33.5029         15.6882 
        1.02471         33.2257         15.4792 
        1.03085         33.1232         15.2734 
        1.03698         32.8323         15.0717 
        1.04314         32.5209         14.8729 
        1.04929         32.1882         14.6782 
        1.05541         32.0835         14.4878 
        1.06154         31.8861         14.3004 
        1.06769         31.4858          14.116 
        1.07382         31.2411         13.9355 
        1.07993         30.9745         13.7586 
        1.08607         30.8205         13.5841 
        1.09222         30.5607         13.4125 
        1.09836         30.3252          13.244 
        1.10449         30.1462         13.0787 
        1.11063         29.9275         12.9161 
        1.11677         29.8483         12.7563 
         1.1229         29.5417         12.5995 
        1.12903         29.3477         12.4453 
        1.13518         29.1341         12.2935 
        1.14131         28.9465         12.1444 
        1.14745         28.5973         11.9978 
        1.15359         28.3879         11.8537 
        1.15973         28.1911         11.7119 
        1.16584         28.0113         11.5731 
        1.17197         27.7451         11.4363 
        1.17811          27.609         11.3014 
        1.18424         27.3943          11.169 
        1.19038         27.2773         11.0384 
        1.19652         27.0455           10.91 
        1.20267         26.9062         10.7837 
        1.20881         26.6889         10.6594 
        1.21495         26.5081         10.5372 
        1.22108         26.4757          10.417 
         1.2272         26.2719          10.299 
        1.23334         26.0841         10.1826 
        1.23949         25.8901         10.0677 
        1.24562          25.646         9.95496 
        1.25174         25.5571         9.84411 
        1.25789         25.4131         9.73462 
        1.26402         25.2885         9.62701 
        1.27014         25.1327         9.52131 
        1.27628         24.8713         9.41689 
        1.28244         24.8774         9.31386 
        1.28858         24.6014         9.21253 
        1.29471         24.3943         9.11294 
        1.30084         24.2594         9.01493 
        1.30697         24.2014         8.91823 
        1.31312         23.9748         8.82282 
        1.31925           23.86         8.72912 
        1.32537         23.6988         8.63689 
        1.33151         23.5606         8.54567 
        1.33765          23.483         8.45583 
        1.34378          23.341         8.36747 
        1.34992         23.2011         8.28033 
        1.35606         23.0045         8.19425 
         1.3622         22.8358         8.10955 
        1.36833         22.7914         8.02627 
        1.37445          22.682          7.9442 
        1.38059         22.5356         7.86305 
        1.38675         22.3631         7.78284 
        1.39288         22.2214         7.70408 
        1.39901         22.1351         7.62646 
        1.40515          22.002         7.54975 
         1.4113           21.89         7.47412 
        1.41742         21.7927         7.39983 
        1.42355         21.6086         7.32642 
         1.4297         21.5068          7.2538 
        1.43585         21.4082         7.18219 
        1.44198         21.3245         7.11184 
        1.44809         21.1905         7.04257 
        1.45423         21.0571         6.97397 
        1.46036         20.9552         6.90642 
        1.46649         20.8237         6.83974 
        1.47263         20.7552         6.77391 
        1.47877         20.6588         6.70897 
        1.48491         20.5228          6.6448 
        1.49104         20.4016          6.5816 
        1.49718         20.3173         6.51919 
        1.50333         20.2257          6.4575 
        1.50947         20.1269         6.39673 
         1.5156         20.0105         6.33685 
        1.52172         19.8945         6.27774 
        1.52787         19.7955         6.21927 
          1.534          19.737         6.16162 
        1.54013         19.6345         6.10477 
        1.54627         19.4952         6.04854 
        1.55241         19.3746         5.99302 
        1.55855         19.3197         5.93827 
        1.56467         19.2507         5.88437 
         1.5708           19.17         5.83099 
        1.57695         19.0351         5.77819 
        1.58308          18.904         5.72618 
        1.58922         18.8437         5.67477 
        1.59535         18.7285         5.62403 
         1.6015         18.6042         5.57383 
        1.60764         18.5585         5.52428 
        1.61376         18.5062         5.47547 
        1.61989         18.3662         5.42722 
        1.62604         18.3217         5.37945 
        1.63218         18.2267         5.33228 
        1.63831         18.1061         5.28579 
        1.64444         18.0228         5.23985 
        1.65059          17.931         5.19434 
        1.65673         17.8835         5.14943 
        1.66285         17.7601         5.10518 
        1.66898         17.7274         5.06144 
        1.67512         17.6524         5.01813 
        1.68127         17.5059         4.97529 
         1.6874         17.4759         4.93305 
        1.69353         17.3487         4.89133 
        1.69967         17.2792         4.84999 
        1.70581         17.2355         4.80916 
        1.71193         17.1286         4.76895 
        1.71806         17.0827         4.72913 
        1.72421          16.982         4.68968 
        1.73035         16.8928         4.65073 
        1.73649         16.8531         4.61223 
        1.74262         16.7048         4.57421 
        1.74876          16.691         4.53659 
        1.75489          16.618         4.49947 
        1.76101         16.5249         4.46279 
        1.76715         16.4603         4.42646 
        1.77329         16.3898          4.3905 
        1.77943         16.2818         4.35493 
        1.78557         16.2652          4.3198 
        1.79171         16.1602         4.28506 
        1.79785         16.1344          4.2507 
        1.80399         16.0118         4.21673 
        1.81012         15.9836         4.18317 
        1.81625         15.8618            4.15 
        1.82239         15.8074         4.11714 
        1.82853         15.7449         4.08465 
        1.83466         15.6466         4.05255 
        1.84078         15.6334         4.02083 
        1.84692         15.5881          3.9894 
        1.85306         15.5092         3.95827 
         1.8592         15.4365         3.92753 
        1.86533         15.3423         3.89713 
        1.87147         15.2856         3.86702 
        1.87761         15.2149         3.83722 
        1.88375         15.1713         3.80777 
        1.88988         15.0679         3.77866 
        1.89601         15.0409         3.74984 
        1.90215         14.9488          3.7213 
        1.90829         14.8872         3.69308 
        1.91442         14.8205         3.66515 
        1.92056         14.8282         3.63753 
         1.9267          14.732         3.61017 
        1.93284          14.709         3.58308 
        1.93897         14.6021         3.55632 
        1.94509         14.5582         3.52989 
        1.95123         14.5091         3.50366 
        1.95737         14.4629         3.47769 
        1.96349         14.3478         3.45204 
        1.96964         14.3128         3.42659 
        1.97578         14.2823         3.40138 
        1.98192         14.1955         3.37647 
        1.98805         14.1452         3.35182 
        1.99419          14.094         3.32741 
        2.00033         14.0536         3.30323 
        2.00647         13.9867         3.27931 
         2.0126         13.9425         3.25566 
        2.01874         13.8446         3.23221 
        2.02488         13.8154         3.20897 
        2.03101         13.7586         3.18601 
        2.03714         13.7113         3.16329 
        2.04328         13.6266         3.14077 
        2.04941         13.5683         3.11849 
        2.05554         13.5634         3.09645 
        2.06167         13.5009         3.07458 
        2.06781         13.4287         3.05293 
        2.07396         13.4224         3.03146 
        2.08009         13.3095         3.01023 
        2.08622         13.3051         2.98923 
        2.09237         13.2613         2.96839 
        2.09851          13.172         2.94774 
        2.10464         13.1584         2.92733 
        2.11077         13.0701         2.90714 
        2.11691          13.063          2.8871 
        2.12305         12.9814         2.86724 
        2.12918         12.9037         2.84762 
        2.13531         12.8933         2.82819 
        2.14145         12.8372         2.80889 
         2.1476         12.7813         2.78975 
        2.15372         12.7433         2.77088 
        2.15985         12.7027         2.75218 
        2.16599         12.6496         2.73359 
        2.17213         12.6312         2.71519 
        2.17827         12.5613         2.69697 
         2.1844         12.5249         2.67894 
        2.19054         12.4873         2.66106 
        2.19666         12.4378         2.64338 
         2.2028          12.383         2.62584 
        2.20893         12.3384         2.60845 
        2.21508         12.2966          2.5912 
        2.22122         12.2306          2.5741 
        2.22736         12.2085          2.5572 
        2.23349         12.1596         2.54044 
        2.23962         12.1271         2.52384 
        2.24577         12.0843         2.50736 
         2.2519         12.0476         2.49106 
        2.25802         11.9454         2.47493 
        2.26417         11.9639          2.4589 
        2.27031         11.8981         2.44299 
        2.27644         11.8635         2.42728 
        2.28257          11.786          2.4117 
        2.28872          11.786         2.39624 
        2.29486         11.7379         2.38091 
        2.30099         11.7063         2.36575 
        2.30712         11.6288         2.35071 
        2.31326          11.575         2.33578 
         2.3194          11.562         2.32099 
        2.32553          11.501         2.30636 
        2.33166         11.4674         2.29185 
         2.3378         11.4395         2.27745 
        2.34394         11.4081         2.26318 
        2.35007         11.3491         2.24904 
        2.35619         11.3203         2.23505 
        2.36233         11.2556         2.22114 
        2.36848          11.237         2.20732 
        2.37462         11.2013         2.19365 
        2.38075         11.1727         2.18011 
        2.38689         11.1355         2.16667 
        2.39303         11.0611         2.15335 
        2.39916         11.0475         2.14015 
        2.40529          11.011         2.12707 
        2.41143         10.9635         2.11408 
        2.41757         10.9229          2.1012 
         2.4237         10.8968         2.08846 
        2.42983         10.8518         2.07582 
        2.43598         10.8247         2.06325 
        2.44211          10.796         2.05081 
        2.44823         10.7431         2.03849 
        2.45437          10.706         2.02625 
        2.46052         10.6891          2.0141 
        2.46665         10.6478         2.00207 
        2.47279          10.617         1.99014 
        2.47892         10.5543          1.9783 
        2.48507         10.5348         1.96655 
         2.4912         10.4933         1.95491 
