# k  (h/Mpc)    Pcb(k)  (Mpc/h)^3    Pcb_linear(k)  (Mpc/h)^3
     0.00783031          1892.4         1912.34 
       0.013688         2369.08         2369.44 
       0.019231         2387.83         2386.58 
      0.0249154         2172.55         2187.41 
      0.0312784         1878.25         1880.25 
      0.0375637         1608.09         1603.01 
      0.0433917          1406.3         1409.79 
      0.0492413         1277.28         1276.65 
      0.0555754         1169.91         1178.11 
      0.0619321         1101.58         1096.86 
       0.067871         1010.81          1016.2 
      0.0738098         918.319         923.666 
      0.0800417         811.802         818.881 
      0.0862327         716.817         719.111 
      0.0921407         639.385         638.459 
      0.0982031         574.548          575.74 
       0.104506          535.53         531.056 
       0.110769         504.274         501.314 
       0.116806         478.117         478.746 
       0.122832         457.125         455.499 
       0.129052         425.414         426.847 
       0.135211         392.954         393.784 
       0.141259         362.177         359.696 
       0.147318         332.352         327.782 
       0.153489         303.896          300.63 
       0.159709         284.057         279.944 
       0.165845          271.83         265.358 
       0.171974          258.13         254.519 
       0.178125         248.682         244.922 
       0.184229         239.031         234.675 
        0.19034         224.104          222.75 
       0.196428         213.549         209.427 
       0.202534         202.192         195.652 
       0.208729         188.348         182.551 
       0.214876          176.21         171.394 
       0.220989         169.384         162.476 
       0.227147         160.309          155.44 
        0.23329         154.526         149.699 
       0.239377         149.983         144.485 
       0.245482         142.606         139.098 
       0.251667         138.551         133.173 
       0.257832         132.416         126.848 
       0.263955         126.194         120.479 
       0.270079          120.48         114.424 
        0.27624         116.412         108.968 
       0.282372         111.667          104.31 
        0.28843         107.124         100.395 
       0.294538         103.271         96.9476 
       0.300721          101.01         93.7083 
        0.30691         96.7814         90.5012 
       0.313033         93.6413         87.2429 
       0.319153         89.1247         83.9045 
       0.325316         87.3052         80.5457 
        0.33145          83.728         77.3325 
       0.337538         81.3179         74.3696 
       0.343633         78.3305         71.6894 
       0.349808         76.0207          69.248 
       0.355968         73.9336          67.035 
       0.362074         71.6545         64.9768 
       0.368217         69.5855         62.9695 
       0.374374         67.4186         60.9779 
       0.380519         65.6729         58.9951 
       0.386598         63.7807         57.0632 
       0.392688         62.2918         55.1889 
        0.39888         60.3514         53.3779 
       0.405048         58.8394         51.6946 
       0.411186         57.4073         50.1356 
       0.417313         55.5486         48.6797 
       0.423458         54.1687         47.2993 
       0.429607         52.7161         45.9692 
       0.435692         51.0956         44.6855 
       0.441815         50.2299         43.4218 
       0.447964         49.3239         42.1818 
       0.454126         47.3381          40.975 
       0.460267         46.4795         39.8199 
       0.466387         45.1328         38.7238 
        0.47254         44.3963         37.6763 
       0.478662         43.5988         36.6841 
       0.484765         42.3317         35.7394 
       0.490885         41.3783         34.8287 
       0.497035         40.8166         33.9418 
       0.503198         39.7297         33.0765 
       0.509342         38.7163         32.2381 
       0.515458         37.8955         31.4292 
       0.521598         37.2529         30.6442 
       0.527764         36.4516         29.8841 
       0.533884         35.8182         29.1582 
           0.54          35.046         28.4615 
       0.546137         34.4715         27.7891 
       0.552299         33.9073         27.1376 
       0.558452         32.8625         26.5075 
       0.564573         32.3885         25.8986 
       0.570708         31.8544         25.3056 
       0.576825         31.0722         24.7322 
       0.582926         30.4917         24.1779 
       0.589034         29.6891         23.6405 
       0.595184         29.3072         23.1166 
       0.601379         28.7577         22.6058 
       0.607522         28.2388         22.1152 
       0.613639         27.9591          21.642 
       0.619772         27.2288         21.1822 
       0.625918         27.0722         20.7351 
       0.632068         26.6271         20.3007 
       0.638161         26.0486         19.8824 
         0.6443         25.5298         19.4725 
       0.650464          25.076         19.0725 
       0.656582         24.9129         18.6867 
       0.662703         24.4343         18.3115 
       0.668861         23.9831         17.9448 
       0.675024         23.5582         17.5884 
       0.681124         23.1546         17.2456 
       0.687237         22.7729         16.9115 
       0.693381         22.5564         16.5848 
       0.699536         21.9747         16.2663 
       0.705665         21.8713         15.9576 
       0.711789         21.4152          15.657 
       0.717957          21.116         15.3622 
        0.72409         20.7971         15.0766 
       0.730186         20.5157         14.8001 
       0.736317         20.2913          14.529 
       0.742472         19.9479         14.2639 
       0.748622         19.7227         14.0057 
        0.75476         19.3467         13.7546 
       0.760888         19.0912         13.5101 
       0.767043         18.8662         13.2706 
       0.773185         18.5153         13.0376 
       0.779291         18.4051         12.8115 
       0.785407         18.1657         12.5905 
       0.791564          17.844         12.3734 
       0.797719         17.4797         12.1616 
       0.803834         17.4339         11.9562 
       0.809972         17.2782         11.7548 
       0.816124         16.8717         11.5576 
       0.822261         16.7068         11.3656 
       0.828378         16.5252         11.1785 
       0.834502         16.3682         10.9955 
       0.840667         16.1273         10.8156 
       0.846816         15.8415         10.6401 
       0.852925         15.6988         10.4698 
       0.859047         15.5214         10.3028 
       0.865192         15.3776          10.139 
       0.871341         15.2403         9.97867 
       0.877463         14.9769         9.82257 
       0.883569          14.772         9.67025 
       0.889708         14.5452         9.52041 
       0.895864         14.4439          9.3734 
       0.902008         14.3272         9.22983 
       0.908149         14.1667         9.08938 
       0.914301          14.038         8.95166 
       0.920448          13.781         8.81694 
       0.926574         13.6539          8.6855 
       0.932687         13.5149         8.55704 
       0.938823         13.3358         8.43074 
       0.944975          13.176         8.30672 
       0.951105         13.0667         8.18567 
       0.957225         12.9628         8.06725 
       0.963368         12.8193         7.95079 
       0.969511         12.7022         7.83664 
       0.975621         12.5675         7.72537 
       0.981748         12.4162           7.616 
       0.987916         12.3262         7.50807 
        0.99406         12.1508         7.40265 
        1.00019         11.9695         7.29949 
        1.00632         11.9521          7.1984 
        1.01246         11.8171          7.0991 
        1.01859         11.6384         7.00184 
        1.02471         11.5771         6.90654 
        1.03085         11.4631          6.8127 
        1.03698         11.2901         6.72082 
        1.04314         11.2255         6.63026 
        1.04929         11.0807          6.5416 
        1.05541          10.959         6.45493 
        1.06154         10.8834         6.36963 
        1.06769         10.8319         6.28575 
        1.07382         10.6726         6.20368 
        1.07993         10.5901         6.12327 
        1.08607         10.4954         6.04397 
        1.09222          10.408         5.96601 
        1.09836         10.2851         5.88953 
        1.10449         10.2048         5.81449 
        1.11063         10.1039         5.74068 
        1.11677           10.05         5.66819 
         1.1229         9.97737          5.5971 
        1.12903         9.85772         5.52716 
        1.13518         9.73888         5.45838 
        1.14131         9.67184         5.39082 
        1.14745         9.58191         5.32444 
        1.15359         9.52162         5.25918 
        1.15973         9.43697         5.19499 
        1.16584         9.30109         5.13217 
        1.17197         9.24741         5.07031 
        1.17811         9.20361         5.00928 
        1.18424         9.11778         4.94944 
        1.19038          9.0758         4.89041 
        1.19652         8.97244         4.83237 
        1.20267         8.87751         4.77528 
        1.20881         8.85527         4.71913 
        1.21495         8.77818         4.66397 
        1.22108         8.67221         4.60972 
         1.2272         8.61981         4.55646 
        1.23334         8.52486         4.50392 
        1.23949         8.45717          4.4521 
        1.24562         8.41972         4.40124 
        1.25174         8.35133         4.35126 
        1.25789         8.28671         4.30191 
        1.26402         8.24644         4.25341 
        1.27014         8.17059         4.20579 
        1.27628         8.07419         4.15876 
        1.28244         8.00316         4.11236 
        1.28858         7.99903         4.06674 
        1.29471         7.90861         4.02192 
        1.30084         7.83159         3.97781 
        1.30697         7.82812         3.93431 
        1.31312         7.69865          3.8914 
        1.31925         7.65578         3.84928 
        1.32537         7.60666         3.80782 
        1.33151         7.57592         3.76683 
        1.33765         7.49455         3.72646 
        1.34378         7.43952         3.68678 
        1.34992         7.39363         3.64765 
        1.35606         7.33586           3.609 
         1.3622         7.29646         3.57099 
        1.36833         7.23388         3.53362 
        1.37445         7.19017         3.49681 
        1.38059           7.165         3.46041 
        1.38675         7.09817         3.42445 
        1.39288         7.06041         3.38914 
        1.39901          6.9801         3.35435 
        1.40515         6.94983         3.31997 
         1.4113         6.90384         3.28609 
        1.41742         6.85692         3.25282 
        1.42355         6.79534         3.21995 
         1.4297         6.75714         3.18743 
        1.43585         6.72865         3.15538 
        1.44198         6.69921          3.1239 
        1.44809         6.63488         3.09291 
        1.45423         6.58334         3.06222 
        1.46036         6.53949         3.03201 
        1.46649          6.5008          3.0022 
        1.47263         6.44508         2.97276 
        1.47877         6.40686         2.94374 
        1.48491         6.37198         2.91506 
        1.49104          6.3306         2.88683 
        1.49718          6.2967         2.85895 
        1.50333         6.26021         2.83139 
        1.50947         6.20989         2.80426 
         1.5156         6.17638         2.77753 
        1.52172         6.14434         2.75114 
        1.52787          6.1058         2.72505 
          1.534         6.05707         2.69933 
        1.54013         6.03379         2.67397 
        1.54627         5.97791         2.64889 
        1.55241         5.94677         2.62413 
        1.55855         5.92396         2.59973 
        1.56467         5.87838          2.5757 
         1.5708         5.85475         2.55192 
        1.57695         5.80007         2.52839 
        1.58308         5.76208         2.50522 
        1.58922         5.74935         2.48233 
        1.59535         5.72021         2.45973 
         1.6015         5.67167         2.43738 
        1.60764         5.63235         2.41533 
        1.61376         5.61103         2.39361 
        1.61989         5.57981         2.37214 
        1.62604         5.53829         2.35088 
        1.63218         5.52641          2.3299 
        1.63831         5.49131         2.30923 
        1.64444         5.46126          2.2888 
        1.65059         5.39983         2.26857 
        1.65673         5.40155         2.24861 
        1.66285         5.34631         2.22895 
        1.66898         5.32462         2.20952 
        1.67512         5.29706         2.19028 
        1.68127         5.26446         2.17125 
         1.6874         5.24775         2.15249 
        1.69353         5.20391         2.13397 
        1.69967          5.1829         2.11562 
        1.70581         5.15559          2.0975 
        1.71193           5.125         2.07966 
        1.71806         5.10523         2.06199 
        1.72421         5.06924         2.04449 
        1.73035          5.0542         2.02721 
        1.73649         5.02242         2.01014 
        1.74262         4.98747         1.99328 
        1.74876         4.97214          1.9766 
        1.75489         4.95068         1.96015 
        1.76101         4.90779         1.94389 
        1.76715         4.89537          1.9278 
        1.77329         4.86979         1.91187 
        1.77943         4.82634         1.89611 
        1.78557         4.81949         1.88055 
        1.79171         4.78859         1.86517 
        1.79785         4.76393         1.84996 
        1.80399         4.73371         1.83492 
        1.81012         4.71597         1.82007 
        1.81625         4.68996         1.80539 
        1.82239         4.67094         1.79085 
        1.82853         4.64252         1.77647 
        1.83466         4.62686         1.76228 
        1.84078         4.60595         1.74825 
        1.84692         4.59078         1.73435 
        1.85306         4.55149         1.72059 
         1.8592         4.52575         1.70699 
        1.86533         4.50773         1.69356 
        1.87147         4.49149         1.68025 
        1.87761         4.46507         1.66708 
        1.88375          4.4431         1.65407 
        1.88988         4.42034         1.64121 
        1.89601         4.40229         1.62849 
        1.90215         4.38329         1.61588 
        1.90829         4.35481         1.60342 
        1.91442         4.33928         1.59109 
        1.92056         4.31484          1.5789 
         1.9267         4.29357         1.56683 
        1.93284         4.27665         1.55487 
        1.93897         4.25506         1.54307 
        1.94509         4.23519         1.53141 
        1.95123         4.21371         1.51984 
        1.95737         4.18687         1.50839 
        1.96349         4.17784         1.49708 
        1.96964         4.16344         1.48586 
        1.97578         4.13092         1.47474 
        1.98192         4.12194         1.46377 
        1.98805         4.10446          1.4529 
        1.99419         4.08334         1.44215 
        2.00033         4.07036          1.4315 
        2.00647          4.0465         1.42096 
         2.0126         4.03413         1.41054 
        2.01874         4.00384         1.40021 
        2.02488         3.99644         1.38998 
        2.03101         3.96558         1.37987 
        2.03714         3.95296         1.36987 
        2.04328           3.934         1.35996 
        2.04941         3.91028         1.35015 
        2.05554         3.89942         1.34045 
        2.06167         3.88839         1.33084 
        2.06781         3.86703         1.32131 
        2.07396         3.85716         1.31187 
        2.08009         3.83705         1.30253 
        2.08622         3.81444          1.2933 
        2.09237         3.80244         1.28413 
        2.09851         3.78785         1.27506 
        2.10464         3.77248         1.26609 
        2.11077         3.75005         1.25721 
        2.11691         3.73697          1.2484 
        2.12305         3.72482         1.23968 
        2.12918         3.71488         1.23106 
        2.13531         3.69593         1.22252 
        2.14145         3.68036         1.21404 
         2.1476         3.65746         1.20564 
        2.15372         3.64354         1.19735 
        2.15985         3.63825         1.18914 
        2.16599          3.6138         1.18098 
        2.17213         3.59892          1.1729 
        2.17827          3.5903         1.16491 
         2.1844         3.57132         1.15699 
        2.19054          3.5596         1.14915 
        2.19666         3.54004         1.14139 
         2.2028         3.52571         1.13369 
        2.20893         3.51511         1.12607 
        2.21508         3.49594          1.1185 
        2.22122         3.48352           1.111 
        2.22736         3.47056         1.10359 
        2.23349         3.46301         1.09625 
        2.23962         3.44481         1.08897 
        2.24577         3.43001         1.08175 
         2.2519         3.42103          1.0746 
        2.25802         3.40399         1.06753 
        2.26417         3.39314         1.06051 
        2.27031         3.37628         1.05354 
        2.27644         3.36265         1.04666 
        2.28257         3.34719         1.03983 
        2.28872         3.34206         1.03306 
        2.29486         3.32375         1.02635 
        2.30099         3.30932         1.01971 
        2.30712         3.29595         1.01313 
        2.31326         3.28214         1.00659 
         2.3194          3.2731         1.00012 
        2.32553         3.25966         0.99371 
        2.33166         3.25232        0.987363 
         2.3378         3.23711        0.981063 
        2.34394         3.22505        0.974817 
        2.35007         3.20926        0.968633 
        2.35619         3.20271        0.962512 
        2.36233         3.19174        0.956428 
        2.36848         3.17285        0.950385 
        2.37462         3.16867        0.944407 
        2.38075         3.15317        0.938487 
        2.38689          3.1448        0.932612 
        2.39303         3.13066        0.926789 
        2.39916         3.11907        0.921022 
        2.40529         3.10777        0.915304 
        2.41143         3.09584        0.909631 
        2.41757          3.0857        0.904004 
         2.4237          3.0774        0.898435 
        2.42983           3.051        0.892913 
        2.43598         3.05363        0.887424 
        2.44211         3.03435        0.881989 
        2.44823         3.02995        0.876613 
        2.45437         3.01305        0.871266 
        2.46052         3.00865        0.865961 
        2.46665         2.99822        0.860708 
        2.47279          2.9855        0.855501 
        2.47892         2.97632        0.850334 
        2.48507         2.96527        0.845205 
         2.4912         2.94853        0.840129 
