# k  (h/Mpc)    P(k)  (Mpc/h)^3    P_linear(k)  (Mpc/h)^3
     0.00783031         820.229         829.055 
       0.013688         1032.81         1035.08 
       0.019231         1059.14         1059.54 
      0.0249154         987.725         992.858 
      0.0312784         875.842          876.55 
      0.0375637         765.777         764.055 
      0.0433917         679.307         680.264 
      0.0492413         618.603         618.174 
      0.0555754          566.65         568.991 
      0.0619321         529.974         528.145 
       0.067871         488.481         489.979 
      0.0738098         446.925         448.565 
      0.0800417         400.379         402.697 
      0.0862327         357.782         358.597 
      0.0921407          321.76         321.709 
      0.0982031         290.756         291.402 
       0.104506         269.352         268.092 
       0.110769         252.139         251.319 
       0.116806         237.945         238.453 
       0.122832         226.669         226.276 
       0.129052         212.024         212.667 
       0.135211         197.127         197.738 
       0.141259         182.809         182.415 
       0.147318         168.816         167.685 
       0.153489         155.168         154.514 
       0.159709         144.603         143.759 
       0.165845         137.393         135.567 
       0.171974         129.916         129.179 
       0.178125         124.574         123.707 
       0.184229         119.562         118.411 
        0.19034         112.872         112.752 
       0.196428         107.595         106.664 
       0.202534         102.121         100.349 
       0.208729         95.5424         94.1468 
       0.214876         89.5573         88.5844 
       0.220989          85.717         83.8541 
       0.227147         80.9296         79.9028 
        0.23329         77.6646         76.6004 
       0.239377         74.9791         73.6981 
       0.245482         71.6619         70.9066 
       0.251667         69.4127         68.0281 
       0.257832         66.3769         65.0543 
       0.263955         63.4459         62.0587 
       0.270079          60.632          59.136 
        0.27624         58.3581         56.3928 
       0.282372         55.8804         53.9381 
        0.28843         53.4811         51.7957 
       0.294538         51.5183         49.8826 
       0.300721         50.0968          48.119 
        0.30691         48.0657         46.4467 
       0.313033         46.4747         44.8195 
       0.319153         44.3498         43.1965 
       0.325316         43.4028         41.5695 
        0.33145         41.6872         39.9902 
       0.337538         40.2967         38.4951 
       0.343633         38.7828         37.0998 
       0.349808         37.5938         35.7979 
       0.355968         36.4246         34.6045 
       0.362074         35.2586         33.5041 
       0.368217         34.2205          32.454 
       0.374374         33.0716         31.4383 
       0.380519         32.2105         30.4463 
       0.386598          31.289         29.4854 
       0.392688          30.481         28.5485 
        0.39888         29.4927         27.6306 
       0.405048         28.7009          26.761 
       0.411186          27.938          25.944 
       0.417313         26.9976         25.1747 
       0.423458         26.3131         24.4459 
       0.429607         25.5475         23.7509 
       0.435692         24.8203         23.0889 
       0.441815         24.2606         22.4441 
       0.447964         23.7855         21.8155 
       0.454126         22.9298         21.2036 
       0.460267         22.4092         20.6142 
       0.466387         21.7232         20.0495 
        0.47254         21.3098         19.5056 
       0.478662          20.862         18.9876 
       0.484765         20.2577         18.4938 
       0.490885         19.7677          18.019 
       0.497035         19.4753         17.5593 
       0.503198         18.9487         17.1139 
       0.509342         18.4917         16.6839 
       0.515458         18.0354         16.2692 
       0.521598         17.6787         15.8661 
       0.527764         17.2448         15.4744 
       0.533884         16.9351          15.099 
           0.54         16.5498         14.7374 
       0.546137         16.2273         14.3877 
       0.552299         15.9118         14.0489 
       0.558452         15.4331         13.7221 
       0.564573         15.2112         13.4071 
       0.570708         14.9067         13.1012 
       0.576825         14.5219         12.8056 
       0.582926         14.2696         12.5197 
       0.589034         13.8627          12.242 
       0.595184         13.6481         11.9709 
       0.601379         13.3568         11.7063 
       0.607522         13.1538          11.452 
       0.613639         12.9729         11.2067 
       0.619772         12.6237         10.9684 
       0.625918         12.4915         10.7367 
       0.632068         12.2853         10.5117 
       0.638161          11.987         10.2951 
         0.6443         11.7414         10.0829 
       0.650464         11.5002         9.87595 
       0.656582         11.3918         9.67625 
       0.662703          11.178         9.48208 
       0.668861          10.978         9.29224 
       0.675024         10.7526         9.10759 
       0.681124         10.5598         8.92993 
       0.687237         10.4004         8.75675 
       0.693381         10.2485         8.58742 
       0.699536         9.97129          8.4223 
       0.705665          9.8535         8.26224 
       0.711789         9.69142         8.10651 
       0.717957         9.52321         7.95374 
        0.72409         9.36181         7.80578 
       0.730186         9.23045         7.66251 
       0.736317           9.129          7.5221 
       0.742472         8.97903         7.38473 
       0.748622         8.82354         7.25096 
        0.75476         8.63311         7.12083 
       0.760888         8.52875         6.99412 
       0.767043          8.4249         6.87003 
       0.773185         8.24972         6.74923 
       0.779291         8.17229         6.63205 
       0.785407          8.0386          6.5175 
       0.791564         7.91126         6.40495 
       0.797719         7.78453         6.29514 
       0.803834         7.71125         6.18862 
       0.809972         7.61902         6.08421 
       0.816124         7.46007         5.98199 
       0.822261         7.34329         5.88243 
       0.828378         7.25641         5.78544 
       0.834502         7.18656         5.69059 
       0.840667         7.04709         5.59727 
       0.846816         6.93226         5.50632 
       0.852925         6.87079         5.41798 
       0.859047         6.77659         5.33142 
       0.865192          6.7055         5.24648 
       0.871341         6.62487         5.16335 
       0.877463         6.52734         5.08242 
       0.883569         6.41436         5.00344 
       0.889708         6.31172         4.92575 
       0.895864         6.25371         4.84952 
       0.902008         6.17213         4.77508 
       0.908149         6.10313         4.70226 
       0.914301         6.00169         4.63086 
       0.920448         5.92064         4.56101 
       0.926574         5.84218         4.49286 
       0.932687         5.78753         4.42626 
       0.938823         5.71408         4.36077 
       0.944975           5.636         4.29647 
       0.951105         5.57865         4.23371 
       0.957225         5.54689         4.17232 
       0.963368         5.46321         4.11194 
       0.969511         5.39214         4.05276 
       0.975621         5.31625         3.99508 
       0.981748         5.26472         3.93837 
       0.987916         5.20508         3.88242 
        0.99406            5.12         3.82777 
        1.00019          5.0572         3.77429 
        1.00632         5.02055         3.72188 
        1.01246         4.96337         3.67039 
        1.01859         4.90042         3.61997 
        1.02471         4.84539         3.57056 
        1.03085         4.79235         3.52192 
        1.03698         4.72844         3.47428 
        1.04314         4.68733         3.42733 
        1.04929          4.6268         3.38136 
        1.05541          4.5749         3.33643 
        1.06154         4.53195         3.29221 
        1.06769         4.50008         3.24873 
        1.07382          4.4304         3.20618 
        1.07993         4.37619          3.1645 
        1.08607         4.35111         3.12339 
        1.09222          4.2994         3.08297 
        1.09836         4.26134         3.04332 
        1.10449         4.21299         3.00442 
        1.11063         4.16556         2.96617 
        1.11677          4.1273         2.92859 
         1.1229          4.0839         2.89174 
        1.12903         4.03694         2.85549 
        1.13518          4.0011         2.81984 
        1.14131         3.94586         2.78482 
        1.14745         3.89366         2.75041 
        1.15359         3.87587         2.71659 
        1.15973         3.82501         2.68332 
        1.16584         3.79718         2.65076 
        1.17197         3.75855          2.6187 
        1.17811         3.72688         2.58707 
        1.18424         3.69848         2.55606 
        1.19038         3.66176         2.52547 
        1.19652         3.62465          2.4954 
        1.20267         3.58919         2.46582 
        1.20881         3.55276         2.43672 
        1.21495         3.52507         2.40815 
        1.22108         3.48917         2.38004 
         1.2272          3.4685         2.35244 
        1.23334         3.42197         2.32522 
        1.23949         3.38816         2.29837 
        1.24562         3.37023         2.27202 
        1.25174          3.3274         2.24612 
        1.25789         3.30342         2.22055 
        1.26402         3.26719         2.19543 
        1.27014         3.23656         2.17075 
        1.27628         3.22061         2.14638 
        1.28244          3.1777         2.12235 
        1.28858         3.16065         2.09871 
        1.29471         3.12594         2.07549 
        1.30084         3.09591         2.05264 
        1.30697         3.08555         2.03011 
        1.31312         3.03113         2.00788 
        1.31925         3.01997         1.98606 
        1.32537         2.99283         1.96458 
        1.33151         2.97459         1.94335 
        1.33765         2.93594         1.92244 
        1.34378         2.91316         1.90189 
        1.34992         2.90221         1.88162 
        1.35606         2.86057         1.86161 
         1.3622         2.84902         1.84192 
        1.36833         2.82315         1.82257 
        1.37445          2.7971          1.8035 
        1.38059         2.78085         1.78465 
        1.38675         2.76531         1.76603 
        1.39288         2.73229         1.74775 
        1.39901         2.70662         1.72974 
        1.40515         2.68803         1.71194 
         1.4113         2.66819          1.6944 
        1.41742         2.64879         1.67717 
        1.42355         2.63288         1.66015 
         1.4297         2.60231         1.64332 
        1.43585         2.59065         1.62672 
        1.44198         2.57419         1.61042 
        1.44809         2.54233         1.59438 
        1.45423         2.52425         1.57849 
        1.46036         2.50488         1.56285 
        1.46649         2.48417         1.54742 
        1.47263         2.46414         1.53218 
        1.47877         2.44123         1.51716 
        1.48491         2.42542         1.50231 
        1.49104         2.41231          1.4877 
        1.49718         2.39485         1.47327 
        1.50333         2.37507           1.459 
        1.50947         2.35979         1.44496 
         1.5156         2.34114         1.43113 
        1.52172         2.32457         1.41747 
        1.52787          2.3063         1.40397 
          1.534         2.29104         1.39066 
        1.54013         2.27272         1.37753 
        1.54627         2.25191         1.36456 
        1.55241         2.23576         1.35175 
        1.55855         2.22491         1.33912 
        1.56467         2.20945         1.32669 
         1.5708         2.18663         1.31438 
        1.57695         2.17638         1.30221 
        1.58308         2.15948         1.29022 
        1.58922         2.14772         1.27838 
        1.59535         2.13171         1.26668 
         1.6015         2.11721         1.25512 
        1.60764         2.10471         1.24371 
        1.61376         2.08994         1.23248 
        1.61989         2.07328         1.22137 
        1.62604         2.05788         1.21038 
        1.63218          2.0511         1.19953 
        1.63831         2.02926         1.18883 
        1.64444         2.01569         1.17827 
        1.65059         2.00615         1.16781 
        1.65673         1.99189         1.15748 
        1.66285         1.97559         1.14731 
        1.66898         1.96671         1.13726 
        1.67512         1.94828         1.12731 
        1.68127         1.93725         1.11747 
         1.6874         1.92941         1.10777 
        1.69353         1.90773         1.09819 
        1.69967         1.89738         1.08871 
        1.70581         1.89235         1.07933 
        1.71193         1.87576         1.07011 
        1.71806         1.86775         1.06097 
        1.72421         1.85394         1.05192 
        1.73035          1.8406         1.04299 
        1.73649         1.82928         1.03417 
        1.74262         1.81784         1.02545 
        1.74876         1.80921         1.01683 
        1.75489          1.7925         1.00832 
        1.76101         1.78204        0.999918 
        1.76715         1.77255        0.991598 
        1.77329         1.76226        0.983363 
        1.77943           1.748        0.975218 
        1.78557         1.73869        0.967178 
        1.79171         1.73227        0.959226 
        1.79785         1.71722        0.951363 
        1.80399         1.70888         0.94359 
        1.81012         1.70147        0.935915 
        1.81625         1.68693        0.928328 
        1.82239         1.67661        0.920815 
        1.82853         1.66173        0.913388 
        1.83466         1.65764        0.906051 
        1.84078         1.64677        0.898802 
        1.84692          1.6392        0.891621 
        1.85306         1.62642         0.88451 
         1.8592          1.6185        0.877488 
        1.86533         1.60726        0.870546 
        1.87147         1.60098        0.863672 
        1.87761         1.59085        0.856868 
        1.88375         1.57696        0.850147 
        1.88988         1.57283        0.843505 
        1.89601         1.56145         0.83693 
        1.90215         1.55018         0.83042 
        1.90829         1.54098        0.823983 
        1.91442         1.53427        0.817613 
        1.92056         1.52543        0.811317 
         1.9267         1.51733         0.80508 
        1.93284          1.5116        0.798906 
        1.93897         1.50103        0.792808 
        1.94509         1.49112        0.786787 
        1.95123         1.48135        0.780813 
        1.95737         1.47425        0.774897 
        1.96349         1.46561        0.769058 
        1.96964         1.45973        0.763262 
        1.97578         1.45068        0.757523 
        1.98192         1.44408        0.751855 
        1.98805         1.43301        0.746245 
        1.99419         1.42865        0.740692 
        2.00033         1.42415        0.735192 
        2.00647         1.41068         0.72975 
         2.0126         1.40581        0.724373 
        2.01874         1.39625        0.719041 
        2.02488          1.3905        0.713759 
        2.03101         1.37965        0.708539 
        2.03714         1.37084        0.703377 
        2.04328          1.3683         0.69826 
        2.04941         1.35782        0.693199 
        2.05554         1.35282        0.688191 
        2.06167         1.34378        0.683227 
        2.06781         1.33865         0.67831 
        2.07396         1.33007        0.673435 
        2.08009         1.32427        0.668616 
        2.08622         1.31475         0.66385 
        2.09237         1.31279        0.659122 
        2.09851         1.30482        0.654438 
        2.10464         1.29988        0.649808 
        2.11077         1.29052        0.645228 
        2.11691         1.28249        0.640683 
        2.12305         1.27864        0.636181 
        2.12918         1.27115        0.631733 
        2.13531         1.26549        0.627328 
        2.14145         1.25719        0.622954 
         2.1476         1.25057        0.618617 
        2.15372         1.24518        0.614344 
        2.15985          1.2382        0.610106 
        2.16599         1.23205        0.605896 
        2.17213          1.2256        0.601731 
        2.17827         1.22192        0.597606 
         2.1844         1.21589        0.593523 
        2.19054         1.21135        0.589477 
        2.19666         1.20337        0.585475 
         2.2028         1.19787        0.581506 
        2.20893         1.19031        0.577572 
        2.21508         1.18796         0.57367 
        2.22122         1.17753        0.569803 
        2.22736         1.17212         0.56598 
        2.23349         1.17155        0.562192 
        2.23962         1.16204        0.558438 
        2.24577         1.15663        0.554714 
         2.2519         1.15027         0.55103 
        2.25802         1.14768        0.547384 
        2.26417         1.13924        0.543762 
        2.27031         1.13589         0.54017 
        2.27644         1.13024         0.53662 
        2.28257         1.12536        0.533102 
        2.28872         1.11899         0.52961 
        2.29486         1.11509        0.526149 
        2.30099         1.10807        0.522726 
        2.30712         1.10381        0.519333 
        2.31326         1.10074        0.515964 
         2.3194         1.09505        0.512627 
        2.32553         1.09038        0.509324 
        2.33166         1.08333        0.506053 
         2.3378         1.07806        0.502806 
        2.34394         1.07258        0.499586 
        2.35007         1.06799        0.496399 
        2.35619         1.06581        0.493244 
        2.36233         1.05794        0.490108 
        2.36848         1.05475        0.486994 
        2.37462         1.04965        0.483913 
        2.38075         1.04587        0.480862 
        2.38689          1.0404        0.477834 
        2.39303         1.03686        0.474833 
        2.39916         1.02982        0.471862 
        2.40529         1.02816        0.468915 
        2.41143          1.0223        0.465992 
        2.41757          1.0177        0.463093 
         2.4237         1.01483        0.460223 
        2.42983         1.00913        0.457378 
        2.43598         1.00561         0.45455 
        2.44211         1.00103         0.45175 
        2.44823        0.996023         0.44898 
        2.45437        0.992402        0.446226 
        2.46052        0.989768        0.443493 
        2.46665        0.984619        0.440787 
        2.47279        0.980064        0.438105 
        2.47892        0.974624        0.435443 
        2.48507         0.97156        0.432801 
         2.4912        0.966917        0.430187 
