# k  (h/Mpc)    P(k)  (Mpc/h)^3    P_linear(k)  (Mpc/h)^3
     0.00783031         19681.2         19973.8 
       0.013688         24733.4         24462.9 
       0.019231         24459.2         24405.8 
      0.0249154         21602.7           22133 
      0.0312784         18496.9         18745.9 
      0.0375637         15699.2         15702.6 
      0.0433917         13309.8         13583.1 
      0.0492413         12036.3         12141.7 
      0.0555754         10727.6         11132.7 
      0.0619321         10364.1         10385.7 
       0.067871         9353.26         9689.18 
      0.0738098         8580.63         8875.75 
      0.0800417         7567.17         7903.74 
      0.0862327         6757.43         6919.78 
      0.0921407         6104.33         6078.14 
      0.0982031         5411.97         5391.86 
       0.104506         5088.56         4890.03 
       0.110769         4735.05         4569.62 
       0.116806         4499.72         4363.23 
       0.122832         4299.67         4186.55 
       0.129052         3985.19         3976.82 
       0.135211          3752.8         3715.62 
       0.141259         3566.32         3416.64 
       0.147318         3331.79         3106.79 
       0.153489         3033.01         2817.81 
       0.159709         2861.52         2580.81 
       0.165845         2764.09         2408.76 
       0.171974         2626.73         2289.67 
       0.178125         2507.41         2203.66 
       0.184229         2397.93         2128.99 
        0.19034         2281.54         2046.44 
       0.196428         2225.25         1947.28 
       0.202534         2129.85         1832.18 
       0.208729          2029.2         1708.79 
       0.214876         1949.84         1591.87 
       0.220989         1878.47         1490.74 
       0.227147         1805.65         1408.79 
        0.23329         1736.71         1345.96 
       0.239377         1712.79         1297.18 
       0.245482         1610.91         1254.69 
       0.251667         1602.63         1211.66 
       0.257832         1537.84         1164.56 
       0.263955         1485.55         1112.83 
       0.270079         1434.77         1058.22 
        0.27624         1415.96         1003.89 
       0.282372         1358.78         953.991 
        0.28843          1354.2         910.901 
       0.294538         1288.21         874.217 
       0.300721         1278.63         842.932 
        0.30691         1233.14         815.356 
       0.313033         1207.64         789.542 
       0.319153         1190.37         763.449 
       0.325316          1151.6         736.121 
        0.33145         1126.69         708.022 
       0.337538         1103.86         680.144 
       0.343633         1083.55         653.338 
       0.349808         1047.47         628.204 
       0.355968         1039.18         605.675 
       0.362074         1030.68         585.694 
       0.368217         996.946         567.527 
       0.374374         962.355         550.506 
       0.380519         965.008         534.049 
       0.386598         935.798         517.896 
       0.392688         931.671         501.644 
        0.39888         905.584         485.245 
       0.405048         896.375         469.312 
       0.411186         883.781         454.152 
       0.417313         865.298         439.974 
       0.423458         848.998         426.765 
       0.429607         840.587         414.452 
       0.435692          822.87         403.014 
       0.441815         815.042         392.016 
       0.447964         799.389         381.274 
       0.454126         794.088         370.725 
       0.460267         773.394         360.419 
       0.466387         763.408         350.369 
        0.47254         762.484          340.58 
       0.478662         751.774         331.252 
       0.484765         730.627          322.41 
       0.490885          726.05         313.975 
       0.497035         711.259         305.905 
       0.503198         707.078         298.178 
       0.509342         699.646         290.756 
       0.515458         696.014          283.58 
       0.521598         678.491         276.552 
       0.527764         667.923         269.683 
       0.533884         664.495         263.067 
           0.54         658.816          256.67 
       0.546137         651.538         250.472 
       0.552299         644.146          244.48 
       0.558452         638.336         238.734 
       0.564573         631.116         233.238 
       0.570708         623.697          227.92 
       0.576825         608.488         222.784 
       0.582926         610.803         217.803 
       0.589034         603.905         212.952 
       0.595184         598.723         208.208 
       0.601379         590.124         203.572 
       0.607522         581.729         199.117 
       0.613639          581.16         194.817 
       0.619772         571.032         190.639 
       0.625918         566.781         186.583 
       0.632068         559.457         182.649 
       0.638161         556.622         178.871 
         0.6443         548.406         175.177 
       0.650464         546.407         171.575 
       0.656582         540.187           168.1 
       0.662703         539.108         164.716 
       0.668861         530.626         161.403 
       0.675024         525.994         158.177 
       0.681124         522.222         155.071 
       0.687237         518.643         152.045 
       0.693381         511.342         149.089 
       0.699536         503.172          146.21 
       0.705665         502.777         143.422 
       0.711789         500.379         140.712 
       0.717957         495.747         138.055 
        0.72409         493.436         135.481 
       0.730186         485.932         132.989 
       0.736317         483.467         130.545 
       0.742472          479.83         128.153 
       0.748622         475.046         125.823 
        0.75476         468.014         123.557 
       0.760888         464.381         121.351 
       0.767043         464.016          119.19 
       0.773185         459.875         117.088 
       0.779291         454.851         115.049 
       0.785407         451.609         113.057 
       0.791564         447.126           111.1 
       0.797719         445.587         109.191 
       0.803834         439.489          107.34 
       0.809972         438.934         105.525 
       0.816124         437.265         103.749 
       0.822261         431.434         102.019 
       0.828378         429.022         100.333 
       0.834502         424.114         98.6852 
       0.840667         421.186         97.0638 
       0.846816         419.337         95.4838 
       0.852925         416.685         93.9492 
       0.859047         414.485         92.4455 
       0.865192         409.077         90.9702 
       0.871341         405.752         89.5264 
       0.877463          405.84         88.1208 
       0.883569         401.457         86.7493 
       0.889708         399.177         85.4003 
       0.895864         398.528         84.0768 
       0.902008         394.579         82.7844 
       0.908149          388.88         81.5203 
       0.914301         387.483         80.2808 
       0.920448         385.801         79.0685 
       0.926574         379.969         77.8857 
       0.932687         379.165         76.7299 
       0.938823          375.64         75.5936 
       0.944975         375.692         74.4779 
       0.951105         371.763          73.389 
       0.957225          369.32          72.324 
       0.963368         364.765         71.2766 
       0.969511          364.02         70.2502 
       0.975621         362.223         69.2497 
       0.981748         359.332         68.2663 
       0.987916         357.634          67.296 
        0.99406         352.752         66.3483 
        1.00019         350.823         65.4209 
        1.00632         349.538         64.5122 
        1.01246         346.595         63.6197 
        1.01859         346.314         62.7455 
        1.02471         341.682         61.8891 
        1.03085         340.478         61.0458 
        1.03698         338.533         60.2201 
        1.04314         336.153         59.4063 
        1.04929          332.79         58.6096 
        1.05541         333.497         57.8309 
        1.06154         328.027         57.0644 
        1.06769         327.182         56.3108 
        1.07382         324.359         55.5735 
        1.07993         323.057         54.8511 
        1.08607         322.129         54.1386 
        1.09222         318.174         53.4383 
        1.09836         316.092         52.7512 
        1.10449          314.21         52.0771 
        1.11063         310.514         51.4142 
        1.11677         311.226         50.7632 
         1.1229          308.27         50.1246 
        1.12903         306.698         49.4966 
        1.13518          303.64         48.8789 
        1.14131         302.282         48.2722 
        1.14745         300.612         47.6762 
        1.15359          298.74         47.0903 
        1.15973         296.968          46.514 
        1.16584         294.522         45.9501 
        1.17197         294.301         45.3948 
        1.17811          290.92          44.847 
        1.18424          288.75         44.3099 
        1.19038          287.93         43.7802 
        1.19652         285.684         43.2593 
        1.20267         285.006          42.747 
        1.20881         282.448         42.2432 
        1.21495         280.596         41.7483 
        1.22108         278.867         41.2615 
         1.2272         277.284         40.7837 
        1.23334         276.279         40.3123 
        1.23949         272.929         39.8474 
        1.24562         272.154         39.3911 
        1.25174          271.02         38.9427 
        1.25789         268.557            38.5 
        1.26402           266.7          38.065 
        1.27014         265.157         37.6378 
        1.27628         263.056         37.2159 
        1.28244         263.184         36.7998 
        1.28858         260.709         36.3906 
        1.29471         259.749         35.9886 
        1.30084         257.047         35.5931 
        1.30697         256.438         35.2029 
        1.31312         253.693         34.8181 
        1.31925         252.252         34.4403 
        1.32537         251.813         34.0685 
        1.33151         249.473         33.7008 
        1.33765         247.358         33.3389 
        1.34378         246.922         32.9831 
        1.34992         245.549         32.6322 
        1.35606         244.416         32.2857 
         1.3622         241.853         31.9449 
        1.36833         240.885         31.6098 
        1.37445         239.206         31.2798 
        1.38059         237.573         30.9535 
        1.38675           236.5         30.6311 
        1.39288           235.3         30.3146 
        1.39901         233.612         30.0028 
        1.40515         232.626         29.6947 
         1.4113         231.094          29.391 
        1.41742         229.316         29.0928 
        1.42355          228.25         28.7982 
         1.4297         226.571         28.5068 
        1.43585          225.33         28.2196 
        1.44198         224.943         27.9375 
        1.44809         222.773         27.6597 
        1.45423         221.611         27.3848 
        1.46036         220.262         27.1141 
        1.46649         219.114          26.847 
        1.47263         218.039         26.5833 
        1.47877         216.324         26.3233 
        1.48491         214.252         26.0663 
        1.49104          213.77         25.8134 
        1.49718             212         25.5636 
        1.50333         211.473         25.3168 
        1.50947         209.883         25.0737 
         1.5156         208.299         24.8343 
        1.52172          207.56         24.5979 
        1.52787         205.775         24.3642 
          1.534          205.35         24.1338 
        1.54013         203.462         23.9066 
        1.54627         202.609          23.682 
        1.55241         201.424         23.4602 
        1.55855         199.471         23.2416 
        1.56467         199.196         23.0264 
         1.5708         197.879         22.8134 
        1.57695         196.898         22.6027 
        1.58308         195.459         22.3952 
        1.58922         194.075         22.1901 
        1.59535          192.75         21.9878 
         1.6015           191.7         21.7877 
        1.60764         190.993         21.5901 
        1.61376         189.915         21.3956 
        1.61989         188.875         21.2034 
        1.62604         187.459         21.0131 
        1.63218         186.717         20.8252 
        1.63831         185.097         20.6401 
        1.64444         184.313         20.4572 
        1.65059         183.492         20.2761 
        1.65673         182.347         20.0974 
        1.66285         180.897         19.9214 
        1.66898         180.296         19.7474 
        1.67512         179.194         19.5752 
        1.68127         177.611         19.4048 
         1.6874         177.158         19.2369 
        1.69353         175.868         19.0711 
        1.69967         174.631         18.9069 
        1.70581         173.818         18.7447 
        1.71193         172.427          18.585 
        1.71806         171.977         18.4268 
        1.72421         170.789         18.2702 
        1.73035         170.108         18.1156 
        1.73649         168.969         17.9628 
        1.74262         168.022         17.8119 
        1.74876         166.636         17.6626 
        1.75489         166.115         17.5154 
        1.76101         164.625         17.3699 
        1.76715         164.262         17.2258 
        1.77329         163.011         17.0833 
        1.77943         162.377         16.9422 
        1.78557          161.29          16.803 
        1.79171         160.537         16.6654 
        1.79785         159.312         16.5292 
        1.80399         158.612         16.3946 
        1.81012         157.768         16.2617 
        1.81625          157.06         16.1304 
        1.82239         155.777         16.0003 
        1.82853         155.113         15.8717 
        1.83466         154.329         15.7446 
        1.84078         153.382         15.6191 
        1.84692         152.232         15.4948 
        1.85306         151.837         15.3716 
         1.8592         150.805           15.25 
        1.86533         150.345         15.1298 
        1.87147         149.098         15.0108 
        1.87761         148.161          14.893 
        1.88375         147.434         14.7765 
        1.88988         145.968         14.6615 
        1.89601         145.849         14.5477 
        1.90215         145.036         14.4349 
        1.90829         143.847         14.3234 
        1.91442          143.47         14.2131 
        1.92056         142.387         14.1041 
         1.9267         141.491         13.9961 
        1.93284         140.625         13.8892 
        1.93897         140.137         13.7836 
        1.94509         139.471         13.6793 
        1.95123         138.662         13.5758 
        1.95737         137.699         13.4734 
        1.96349         137.129         13.3722 
        1.96964         136.134         13.2719 
        1.97578         135.273         13.1725 
        1.98192         134.604         13.0743 
        1.98805         134.097         12.9771 
        1.99419         133.056          12.881 
        2.00033         132.481         12.7857 
        2.00647         131.739         12.6914 
         2.0126          130.86         12.5983 
        2.01874         130.363         12.5059 
        2.02488         129.967         12.4144 
        2.03101         128.668          12.324 
        2.03714         128.242         12.2346 
        2.04328         127.308          12.146 
        2.04941         126.882         12.0583 
        2.05554         125.867         11.9715 
        2.06167         125.385         11.8855 
        2.06781         124.403         11.8003 
        2.07396          124.16         11.7159 
        2.08009         123.151         11.6324 
        2.08622         122.297         11.5498 
        2.09237         121.905         11.4679 
        2.09851         121.182         11.3868 
        2.10464         120.715         11.3066 
        2.11077         120.041         11.2272 
        2.11691         119.334         11.1485 
        2.12305         118.853         11.0705 
        2.12918         118.107         10.9934 
        2.13531           117.3         10.9171 
        2.14145         116.715         10.8413 
         2.1476          115.89         10.7661 
        2.15372         115.658         10.6921 
        2.15985           114.8         10.6186 
        2.16599         114.153         10.5457 
        2.17213         113.734         10.4735 
        2.17827         112.909          10.402 
         2.1844         112.269         10.3312 
        2.19054          111.91         10.2611 
        2.19666         111.118         10.1918 
         2.2028         110.454          10.123 
        2.20893         110.045         10.0548 
        2.21508         109.287         9.98717 
        2.22122         108.795         9.92014 
        2.22736         108.257         9.85388 
        2.23349         107.772         9.78823 
        2.23962         107.205         9.72315 
        2.24577          106.43         9.65861 
         2.2519         105.954         9.59475 
        2.25802         105.186         9.53157 
        2.26417         104.928         9.46879 
        2.27031         104.196         9.40651 
        2.27644         103.729         9.34498 
        2.28257         103.212           9.284 
        2.28872         102.531         9.22346 
        2.29486         101.972         9.16347 
        2.30099         101.443         9.10414 
        2.30712         100.935         9.04531 
        2.31326         100.373          8.9869 
         2.3194         99.7786         8.92904 
        2.32553         99.2371         8.87179 
        2.33166         98.6823         8.81507 
         2.3378          98.407         8.75877 
        2.34394         97.7325         8.70294 
        2.35007          97.264         8.64768 
        2.35619          96.726         8.59297 
        2.36233         96.3272         8.53861 
        2.36848         95.7064          8.4846 
        2.37462         95.2958         8.43118 
        2.38075         94.7034         8.37827 
        2.38689          94.203         8.32578 
        2.39303         93.6494         8.27374 
        2.39916         93.2031         8.22221 
        2.40529         92.9979         8.17112 
        2.41143         92.3988         8.12042 
        2.41757         91.8227         8.07014 
         2.4237         91.3517         8.02038 
        2.42983         90.8866         7.97104 
        2.43598         90.2888         7.92199 
        2.44211         89.9376         7.87344 
        2.44823         89.3931          7.8254 
        2.45437         89.0056         7.77763 
        2.46052         88.4107         7.73023 
        2.46665         88.1605          7.6833 
        2.47279         87.6094         7.63678 
        2.47892          87.136         7.59061 
        2.48507          86.793         7.54479 
         2.4912         86.3246         7.49943 
