# k  (h/Mpc)    Pcb(k)  (Mpc/h)^3    Pcb_linear(k)  (Mpc/h)^3
     0.00783031         16383.9         16454.9 
       0.013688           20567         21162.4 
       0.019231         21764.5         22163.1 
      0.0249154         21150.7         21194.7 
      0.0312784         18716.4         19045.3 
      0.0375637         16319.2         16773.2 
      0.0433917         14742.2         14981.9 
      0.0492413         13247.2         13608.2 
      0.0555754           12252         12523.9 
      0.0619321         11030.7           11677 
       0.067871         10478.3         10938.5 
      0.0738098         9819.02         10150.4 
      0.0800417         8957.42         9247.32 
      0.0862327         8045.26         8322.96 
      0.0921407         7305.34         7492.21 
      0.0982031          6708.1         6759.31 
       0.104506          6041.6         6160.95 
       0.110769         5645.19         5723.85 
       0.116806         5428.44         5412.55 
       0.122832         5120.63         5158.13 
       0.129052         4843.48         4904.44 
       0.135211          4693.1         4629.57 
       0.141259         4340.99         4329.45 
       0.147318          4022.4         4012.65 
       0.153489         3796.46         3698.72 
       0.159709         3656.78         3416.44 
       0.165845         3355.13         3186.41 
       0.171974         3271.38         3006.47 
       0.178125         3185.56         2866.41 
       0.184229         2942.49         2751.72 
        0.19034         2908.78         2644.57 
       0.196428         2831.14         2533.03 
       0.202534         2673.55         2411.01 
       0.208729         2612.62         2278.81 
       0.214876         2499.75         2146.42 
       0.220989         2390.97         2022.06 
       0.227147         2326.25         1910.94 
        0.23329         2237.85         1817.24 
       0.239377         2231.54         1740.22 
       0.245482         2136.56         1674.79 
       0.251667         2060.35         1615.15 
       0.257832         2026.87         1557.22 
       0.263955         1945.42            1498 
       0.270079         1904.37         1436.27 
        0.27624         1825.82         1372.87 
       0.282372         1811.76         1310.99 
        0.28843         1772.03         1253.52 
       0.294538         1702.04         1201.07 
       0.300721         1676.96         1154.15 
        0.30691         1631.44         1112.75 
       0.313033          1578.8         1075.82 
       0.319153         1566.25         1041.16 
       0.325316         1546.53         1007.07 
        0.33145          1514.1         973.085 
       0.337538         1470.59         939.185 
       0.343633         1439.89         905.535 
       0.349808         1419.17         872.486 
       0.355968         1388.13         841.339 
       0.362074          1355.2         812.682 
       0.368217         1350.41         786.226 
       0.374374          1328.4         761.785 
       0.380519         1288.01         738.987 
       0.386598         1285.74         717.485 
       0.392688         1251.81         696.516 
        0.39888         1232.74         675.573 
       0.405048         1208.83         655.046 
       0.411186         1202.06         635.067 
       0.417313         1199.34         615.819 
       0.423458         1164.31         597.395 
       0.429607         1136.42         579.947 
       0.435692         1128.56         563.691 
       0.441815         1106.83         548.229 
       0.447964         1099.35         533.436 
       0.454126         1084.19         519.199 
       0.460267         1072.81         505.457 
       0.466387         1055.55         492.101 
        0.47254         1037.74         479.008 
       0.478662         1027.08          466.36 
       0.484765         1017.12         454.168 
       0.490885         1005.71         442.398 
       0.497035         988.663         431.064 
       0.503198         988.354         420.214 
       0.509342         969.525         409.847 
       0.515458         951.102         399.918 
       0.521598         953.989          390.29 
       0.527764         930.453         380.928 
       0.533884         920.296         371.906 
           0.54         915.383         363.137 
       0.546137         904.896         354.589 
       0.552299         896.443         346.274 
       0.558452         888.792         338.255 
       0.564573          885.05         330.554 
       0.570708         874.047         323.098 
       0.576825         857.169         315.914 
       0.582926         855.245         308.984 
       0.589034         846.767         302.262 
       0.595184         835.708         295.697 
       0.601379         823.234         289.276 
       0.607522          814.02         283.084 
       0.613639         812.785         277.088 
       0.619772         803.664          271.25 
       0.625918         796.161         265.571 
       0.632068         790.286         260.062 
       0.638161         778.841         254.768 
         0.6443         772.355         249.591 
       0.650464         767.313         244.543 
       0.656582         761.903         239.672 
       0.662703         751.224         234.932 
       0.668861         744.128         230.293 
       0.675024         740.023         225.775 
       0.681124         726.881         221.424 
       0.687237         727.614         217.181 
       0.693381         714.349          213.03 
       0.699536         717.361         208.983 
       0.705665         706.422         205.059 
       0.711789         703.812         201.241 
       0.717957         696.385         197.496 
        0.72409         690.464         193.868 
       0.730186         687.434         190.354 
       0.736317          679.74          186.91 
       0.742472         670.794         183.539 
       0.748622         670.076         180.255 
        0.75476         659.878          177.06 
       0.760888          657.76         173.947 
       0.767043         655.156         170.898 
       0.773185         649.779         167.929 
       0.779291         642.636         165.048 
       0.785407         637.367         162.231 
       0.791564         634.107         159.463 
       0.797719         624.109         156.762 
       0.803834         624.676          154.14 
       0.809972         616.251          151.57 
       0.816124         612.698         149.054 
       0.822261         608.567         146.602 
       0.828378         606.846         144.213 
       0.834502         597.101         141.876 
       0.840667         594.902         139.576 
       0.846816          591.16         137.334 
       0.852925         588.127         135.157 
       0.859047         581.893         133.022 
       0.865192         578.754         130.927 
       0.871341         573.056         128.876 
       0.877463         572.215         126.878 
       0.883569         566.291         124.929 
       0.889708         559.566         123.011 
       0.895864         554.528         121.129 
       0.902008          553.89          119.29 
       0.908149          548.24         117.491 
       0.914301         546.117         115.727 
       0.920448         539.852             114 
       0.926574         536.985         112.316 
       0.932687         534.834         110.669 
       0.938823         529.004          109.05 
       0.944975         526.006          107.46 
       0.951105         522.782         105.907 
       0.957225         516.019         104.388 
       0.963368         516.266         102.894 
       0.969511          510.32         101.429 
       0.975621         506.968         100.001 
       0.981748         504.079         98.5971 
       0.987916          501.05         97.2115 
        0.99406         496.419         95.8579 
        1.00019          491.97         94.5329 
        1.00632         489.082         93.2345 
        1.01246         485.579         91.9587 
        1.01859         482.263         90.7089 
        1.02471         480.676         89.4842 
        1.03085         475.949          88.278 
        1.03698         474.319         87.0967 
        1.04314         469.226         85.9322 
        1.04929          468.21         84.7919 
        1.05541         462.045          83.677 
        1.06154         460.433         82.5796 
        1.06769         456.642         81.5003 
        1.07382         452.218          80.444 
        1.07993         452.644          79.409 
        1.08607         449.097         78.3881 
        1.09222         444.862         77.3843 
        1.09836         441.482         76.3993 
        1.10449         437.456         75.4328 
        1.11063         436.289         74.4821 
        1.11677         431.962         73.5482 
         1.1229         429.656         72.6321 
        1.12903         425.722         71.7309 
        1.13518         425.099         70.8443 
        1.14131         421.863         69.9734 
        1.14745         417.635         69.1177 
        1.15359          414.79         68.2762 
        1.15973         412.786         67.4485 
        1.16584         411.079         66.6384 
        1.17197         407.737         65.8405 
        1.17811         402.861         65.0533 
        1.18424         402.143         64.2814 
        1.19038         399.586         63.5198 
        1.19652         395.365         62.7709 
        1.20267         393.789         62.0342 
        1.20881         391.854         61.3096 
        1.21495         386.891         60.5977 
        1.22108          387.51         59.8973 
         1.2272         381.732         59.2098 
        1.23334         380.581         58.5315 
        1.23949         377.166         57.8623 
        1.24562         376.671         57.2054 
        1.25174         373.525         56.5598 
        1.25789         370.356         55.9223 
        1.26402         368.402         55.2958 
        1.27014         366.309         54.6805 
        1.27628          363.26         54.0727 
        1.28244          360.63         53.4731 
        1.28858         359.024         52.8834 
        1.29471         357.405         52.3039 
        1.30084         355.394         51.7337 
        1.30697         351.506         51.1712 
        1.31312         349.537         50.6163 
        1.31925         347.614         50.0715 
        1.32537         345.987         49.5352 
        1.33151         342.315          49.005 
        1.33765         339.999         48.4828 
        1.34378          338.44         47.9694 
        1.34992         335.457          47.463 
        1.35606         333.274          46.963 
         1.3622         331.411          46.471 
        1.36833         330.695         45.9874 
        1.37445         328.659         45.5109 
        1.38059          324.82         45.0397 
        1.38675         323.417         44.5742 
        1.39288         321.714         44.1171 
        1.39901         319.152         43.6666 
        1.40515         317.714         43.2215 
         1.4113         315.439         42.7828 
        1.41742         313.018         42.3519 
        1.42355         311.608         41.9261 
         1.4297         309.823          41.505 
        1.43585         306.425         41.0898 
        1.44198         305.564         40.6819 
        1.44809         303.628         40.2804 
        1.45423          301.39         39.8828 
        1.46036         300.477         39.4913 
        1.46649         297.933          39.105 
        1.47263         295.135         38.7235 
        1.47877          294.18         38.3474 
        1.48491         291.482         37.9756 
        1.49104         289.101         37.6096 
        1.49718         287.912         37.2481 
        1.50333         286.406         36.8909 
        1.50947         284.564         36.5391 
         1.5156         282.017         36.1924 
        1.52172         280.482         35.8502 
        1.52787         278.362         35.5118 
          1.534         277.896         35.1782 
        1.54013         275.344         34.8492 
        1.54627         273.526         34.5239 
        1.55241         272.593         34.2027 
        1.55855         270.049         33.8861 
        1.56467         268.309         33.5743 
         1.5708         266.943         33.2656 
        1.57695         265.825         32.9604 
        1.58308         264.553         32.6597 
        1.58922         262.145         32.3626 
        1.59535         259.829         32.0693 
         1.6015         258.949         31.7792 
        1.60764         257.363         31.4929 
        1.61376         255.565         31.2109 
        1.61989         253.959         30.9322 
        1.62604         252.398         30.6562 
        1.63218         250.587         30.3838 
        1.63831         249.296         30.1154 
        1.64444          247.65         29.8501 
        1.65059         246.681         29.5874 
        1.65673         244.894         29.3282 
        1.66285         243.211         29.0728 
        1.66898          241.58         28.8203 
        1.67512          239.88         28.5704 
        1.68127         238.441         28.3233 
         1.6874         236.702         28.0796 
        1.69353         236.405         27.8389 
        1.69967         234.548         27.6006 
        1.70581         232.452         27.3651 
        1.71193         231.669         27.1332 
        1.71806         229.487         26.9036 
        1.72421          228.62         26.6761 
        1.73035         226.826         26.4516 
        1.73649         225.445         26.2297 
        1.74262         224.383         26.0106 
        1.74876         222.446         25.7938 
        1.75489         221.801         25.5799 
        1.76101         220.212         25.3686 
        1.76715         218.809         25.1593 
        1.77329         217.017         24.9522 
        1.77943         215.652         24.7473 
        1.78557         214.741          24.545 
        1.79171         213.749         24.3449 
        1.79785         211.928         24.1471 
        1.80399          210.98         23.9515 
        1.81012         209.777         23.7584 
        1.81625         208.292         23.5674 
        1.82239         206.968         23.3783 
        1.82853         205.864         23.1914 
        1.83466          204.49         23.0067 
        1.84078         203.162         22.8242 
        1.84692          202.19         22.6434 
        1.85306         200.741         22.4643 
         1.8592         199.866         22.2875 
        1.86533         198.123         22.1127 
        1.87147         197.535         21.9395 
        1.87761         195.941         21.7682 
        1.88375         194.775         21.5988 
        1.88988         193.809         21.4315 
        1.89601         192.887         21.2659 
        1.90215         191.504         21.1019 
        1.90829          190.13         20.9397 
        1.91442         188.921         20.7792 
        1.92056         187.712         20.6205 
         1.9267         186.968         20.4633 
        1.93284         185.569         20.3077 
        1.93897         184.327          20.154 
        1.94509         183.569         20.0023 
        1.95123           182.4         19.8517 
        1.95737         181.598         19.7025 
        1.96349         180.083         19.5553 
        1.96964          178.95         19.4092 
        1.97578         178.064         19.2645 
        1.98192         177.633         19.1215 
        1.98805         176.343           18.98 
        1.99419         175.063           18.84 
        2.00033          174.28         18.7012 
        2.00647         172.713          18.564 
         2.0126         171.904         18.4283 
        2.01874         170.854         18.2938 
        2.02488         169.741         18.1605 
        2.03101         168.951         18.0288 
        2.03714         168.416         17.8985 
        2.04328         167.013         17.7694 
        2.04941         166.024         17.6416 
        2.05554         165.053         17.5153 
        2.06167         164.091         17.3899 
        2.06781         163.479         17.2658 
        2.07396         161.871         17.1428 
        2.08009         161.351         17.0211 
        2.08622         160.592         16.9008 
        2.09237         159.167         16.7814 
        2.09851         158.566         16.6631 
        2.10464         157.725         16.5462 
        2.11077         156.852         16.4305 
        2.11691         155.843         16.3157 
        2.12305         154.919          16.202 
        2.12918         153.832         16.0897 
        2.13531         153.063         15.9784 
        2.14145         152.178         15.8679 
         2.1476         151.045         15.7583 
        2.15372         150.454         15.6503 
        2.15985         149.726         15.5432 
        2.16599          148.78         15.4368 
        2.17213         147.694         15.3316 
        2.17827         147.171         15.2273 
         2.1844         146.076         15.1241 
        2.19054         145.272         15.0219 
        2.19666         144.549         14.9207 
         2.2028         143.851         14.8204 
        2.20893         142.905         14.7209 
        2.21508         142.007         14.6223 
        2.22122         141.146         14.5245 
        2.22736         140.377         14.4278 
        2.23349         139.602          14.332 
        2.23962          138.92         14.2371 
        2.24577         137.803         14.1429 
         2.2519         137.061         14.0497 
        2.25802         136.572         13.9575 
        2.26417         135.931         13.8659 
        2.27031         134.866          13.775 
        2.27644         134.234         13.6852 
        2.28257         133.707         13.5963 
        2.28872         132.693         13.5079 
        2.29486         132.087         13.4203 
        2.30099         131.004         13.3337 
        2.30712         130.695         13.2478 
        2.31326         129.677         13.1626 
         2.3194         129.176         13.0781 
        2.32553         128.394         12.9945 
        2.33166         127.744         12.9117 
         2.3378         126.893         12.8295 
        2.34394         126.131          12.748 
        2.35007         125.327         12.6673 
        2.35619         124.778         12.5875 
        2.36233         124.402         12.5081 
        2.36848         123.708         12.4292 
        2.37462          122.91         12.3512 
        2.38075          122.23         12.2739 
        2.38689         121.282         12.1973 
        2.39303         120.947         12.1213 
        2.39916         120.337          12.046 
        2.40529         119.407         11.9714 
        2.41143          118.78         11.8973 
        2.41757         118.078         11.8239 
         2.4237         117.526         11.7512 
        2.42983         116.916         11.6791 
        2.43598         116.171         11.6075 
        2.44211         115.565         11.5365 
        2.44823         115.141         11.4664 
        2.45437          114.49         11.3966 
        2.46052         113.726         11.3273 
        2.46665         113.296         11.2587 
        2.47279         112.591         11.1908 
        2.47892         111.894         11.1233 
        2.48507         111.409         11.0563 
         2.4912         110.923           10.99 
