# k  (h/Mpc)    Pcb(k)  (Mpc/h)^3    Pcb_linear(k)  (Mpc/h)^3
     0.00783031          7312.1         7343.94 
       0.013688          9537.6         9734.46 
       0.019231         10328.5         10451.1 
      0.0249154         10206.2           10216 
      0.0312784         9267.87         9363.46 
      0.0375637         8218.76          8359.6 
      0.0433917         7462.07         7521.35 
      0.0492413         6744.71         6855.61 
      0.0555754         6258.33         6325.17 
      0.0619321         5709.29         5924.03 
       0.067871         5453.49          5592.4 
      0.0738098          5138.5         5246.45 
      0.0800417         4751.67         4842.38 
      0.0862327         4308.18         4409.47 
      0.0921407         3915.58         3998.57 
      0.0982031         3580.55         3615.21 
       0.104506         3219.56         3285.13 
       0.110769         2986.07         3034.96 
       0.116806          2860.2         2857.97 
       0.122832         2691.63         2723.78 
       0.129052         2575.61         2604.61 
       0.135211         2492.33         2484.12 
       0.141259         2331.16         2351.35 
       0.147318         2161.03         2203.16 
       0.153489         2036.31         2044.88 
       0.159709         1934.15         1890.87 
       0.165845         1765.14         1756.01 
       0.171974         1714.88         1644.96 
       0.178125            1648         1557.86 
       0.184229         1534.32         1490.98 
        0.19034         1507.74         1435.94 
       0.196428         1464.04         1384.88 
       0.202534         1377.31         1331.13 
       0.208729         1350.17         1270.87 
       0.214876         1296.56         1205.94 
       0.220989         1215.97         1139.55 
       0.227147         1186.49         1075.23 
        0.23329         1140.33         1017.42 
       0.239377         1120.58         968.486 
       0.245482         1066.22         927.829 
       0.251667         1026.89         893.636 
       0.257832         1016.79         863.897 
       0.263955         966.727         835.866 
       0.270079          939.03         807.241 
        0.27624         900.101         776.825 
       0.282372         883.644         745.117 
        0.28843         875.656         713.446 
       0.294538         832.041         682.542 
       0.300721         808.269         653.639 
        0.30691         795.073         627.825 
       0.313033         762.784         605.488 
       0.319153         751.463         585.805 
       0.325316         738.723         567.826 
        0.33145         724.213         550.795 
       0.337538         699.446         534.046 
       0.343633         679.938         517.012 
       0.349808         664.263         499.519 
       0.355968         652.172         482.096 
       0.362074         633.202         465.326 
       0.368217         628.922         449.384 
       0.374374         617.635         434.592 
       0.380519         594.463         421.119 
       0.386598         588.034         408.882 
       0.392688         576.575         397.473 
        0.39888         561.358         386.429 
       0.405048         552.859         375.691 
       0.411186         549.915         365.132 
       0.417313         543.277         354.662 
       0.423458         527.317         344.297 
       0.429607         514.734         334.211 
       0.435692         506.582         324.639 
       0.441815         499.007         315.497 
       0.447964         488.668         306.876 
       0.454126         482.581         298.754 
       0.460267         475.377         291.082 
       0.466387         468.342         283.768 
        0.47254          461.62         276.654 
       0.478662         451.091         269.733 
       0.484765         446.888         262.962 
       0.490885         442.362         256.322 
       0.497035         434.647         249.826 
       0.503198         433.211         243.526 
       0.509342         422.328         237.488 
       0.515458         416.693         231.743 
       0.521598         409.625         226.236 
       0.527764         403.892         220.932 
       0.533884         402.955         215.861 
           0.54         396.464         210.959 
       0.546137         388.203         206.182 
       0.552299         387.603         201.507 
       0.558452         381.562         196.948 
       0.564573         377.573         192.529 
       0.570708         372.807         188.232 
       0.576825         366.376         184.088 
       0.582926         363.192         180.096 
       0.589034         358.681         176.233 
       0.595184          356.44         172.473 
       0.601379         350.074          168.81 
       0.607522         344.564         165.292 
       0.613639         342.496          161.89 
       0.619772         340.687          158.57 
       0.625918          336.15         155.327 
       0.632068         330.891         152.163 
       0.638161         327.861         149.111 
         0.6443         325.957         146.122 
       0.650464         320.951          143.21 
       0.656582         318.137         140.405 
       0.662703         316.009         137.681 
       0.668861         310.959         135.018 
       0.675024         309.558         132.425 
       0.681124         306.064         129.926 
       0.687237         303.085         127.486 
       0.693381         300.388         125.096 
       0.699536         296.937         122.763 
       0.705665         293.934         120.501 
       0.711789         291.953         118.298 
       0.717957         288.362         116.136 
        0.72409          286.03          114.04 
       0.730186         286.798         112.011 
       0.736317         281.741          110.02 
       0.742472         278.254         108.071 
       0.748622          274.87         106.172 
        0.75476         275.446         104.324 
       0.760888         272.112         102.523 
       0.767043         269.069         100.758 
       0.773185         267.388          99.039 
       0.779291         263.442         97.3704 
       0.785407         262.477         95.7384 
       0.791564         259.806          94.134 
       0.797719          256.25         92.5675 
       0.803834         257.569         91.0471 
       0.809972         255.043         89.5558 
       0.816124         251.776         88.0951 
       0.822261         249.065         86.6713 
       0.828378         249.356         85.2837 
       0.834502         245.138         83.9256 
       0.840667          244.82         82.5887 
       0.846816         241.685          81.285 
       0.852925         240.263         80.0181 
       0.859047         237.751         78.7759 
       0.865192         237.493         77.5563 
       0.871341         234.241          76.362 
       0.877463         232.326         75.1987 
       0.883569         232.012         74.0629 
       0.889708         230.107          72.945 
       0.895864         228.074         71.8476 
       0.902008         226.068         70.7755 
       0.908149         223.908         69.7261 
       0.914301         223.395         68.6966 
       0.920448         222.013         67.6891 
       0.926574         219.659         66.7056 
       0.932687         218.584         65.7439 
       0.938823          216.93          64.798 
       0.944975         215.087         63.8687 
       0.951105          213.42         62.9612 
       0.957225         212.492          62.073 
       0.963368         210.916         61.1992 
       0.969511          208.27         60.3424 
       0.975621         207.248         59.5068 
       0.981748         205.716          58.685 
       0.987916         204.778         57.8738 
        0.99406         203.259         57.0811 
        1.00019         201.991         56.3049 
        1.00632          201.21         55.5441 
        1.01246         199.542         54.7963 
        1.01859         197.722         54.0637 
        1.02471         196.274         53.3454 
        1.03085         195.313         52.6379 
        1.03698         193.722         51.9449 
        1.04314         193.205         51.2616 
        1.04929         192.124         50.5922 
        1.05541         190.622         49.9377 
        1.06154         189.493         49.2932 
        1.06769         187.571         48.6592 
        1.07382         187.001         48.0386 
        1.07993         185.627         47.4304 
        1.08607         183.999         46.8302 
        1.09222         183.282           46.24 
        1.09836         181.939         45.6607 
        1.10449         180.369         45.0921 
        1.11063         179.412         44.5327 
        1.11677         178.666         43.9831 
         1.1229         177.135         43.4438 
        1.12903         176.593         42.9132 
        1.13518         175.324         42.3911 
        1.14131         174.258          41.878 
        1.14745         172.797         41.3738 
        1.15359         171.166          40.878 
        1.15973         170.757         40.3901 
        1.16584         169.932         39.9124 
        1.17197         168.919         39.4419 
        1.17811          167.34         38.9776 
        1.18424         166.479         38.5222 
        1.19038         165.669         38.0728 
        1.19652         164.274         37.6308 
        1.20267         163.476          37.196 
        1.20881         162.361         36.7681 
        1.21495         162.011         36.3477 
        1.22108         160.559          35.934 
         1.2272         159.455         35.5278 
        1.23334         158.958         35.1269 
        1.23949         158.354         34.7314 
        1.24562         156.921         34.3431 
        1.25174         155.563         33.9613 
        1.25789         155.199         33.5843 
        1.26402         154.461         33.2137 
        1.27014         153.439         32.8496 
        1.27628          151.65           32.49 
        1.28244         151.453         32.1351 
        1.28858         150.316          31.786 
        1.29471         149.408         31.4429 
        1.30084         148.594         31.1053 
        1.30697         148.076         30.7721 
        1.31312         146.986         30.4434 
        1.31925         145.759         30.1206 
        1.32537         145.357         29.8028 
        1.33151         144.606         29.4885 
        1.33765         143.112          29.179 
        1.34378         143.219         28.8745 
        1.34992         142.458         28.5742 
        1.35606         141.282         28.2776 
         1.3622         140.903         27.9858 
        1.36833         139.302         27.6988 
        1.37445         139.001          27.416 
        1.38059         138.173         27.1363 
        1.38675         137.258         26.8599 
        1.39288         136.494         26.5885 
        1.39901         135.389          26.321 
        1.40515         135.115         26.0566 
         1.4113         134.371         25.7959 
        1.41742           133.3         25.5399 
        1.42355         132.866         25.2868 
         1.4297         131.902         25.0365 
        1.43585         130.958         24.7897 
        1.44198         130.135         24.5471 
        1.44809          129.26         24.3083 
        1.45423         128.932         24.0719 
        1.46036         127.967          23.839 
        1.46649         127.192         23.6091 
        1.47263         126.883         23.3821 
        1.47877         125.804         23.1582 
        1.48491         125.037          22.937 
        1.49104         123.857         22.7191 
        1.49718         123.985         22.5038 
        1.50333         123.161         22.2911 
        1.50947         122.578         22.0816 
         1.5156         121.801          21.875 
        1.52172         121.028         21.6712 
        1.52787         120.287         21.4695 
          1.534         119.923         21.2707 
        1.54013         119.212         21.0746 
        1.54627         118.241         20.8807 
        1.55241         117.665         20.6892 
        1.55855         117.102         20.5003 
        1.56467         116.101         20.3144 
         1.5708         115.802         20.1302 
        1.57695         115.252         19.9481 
        1.58308         114.547         19.7687 
        1.58922         114.234         19.5914 
        1.59535         113.614         19.4163 
         1.6015         112.762         19.2431 
        1.60764         112.017         19.0722 
        1.61376         111.394         18.9038 
        1.61989         110.805         18.7373 
        1.62604         110.226         18.5725 
        1.63218         109.839         18.4098 
        1.63831         108.929         18.2494 
        1.64444         108.418         18.0908 
        1.65059          107.73         17.9338 
        1.65673         107.125         17.7789 
        1.66285          106.62         17.6262 
        1.66898          105.86         17.4753 
        1.67512         105.596         17.3258 
        1.68127         104.897          17.178 
         1.6874         104.305         17.0323 
        1.69353          103.59         16.8883 
        1.69967         103.395         16.7457 
        1.70581         102.801         16.6048 
        1.71193         102.156          16.466 
        1.71806         101.366         16.3286 
        1.72421          100.96         16.1925 
        1.73035         100.694          16.058 
        1.73649         99.9377         15.9252 
        1.74262          99.241          15.794 
        1.74876         98.8021         15.6641 
        1.75489         98.1761          15.536 
        1.76101         97.6265         15.4094 
        1.76715         97.1714          15.284 
        1.77329         96.6062         15.1599 
        1.77943          96.143         15.0371 
        1.78557         95.7602         14.9159 
        1.79171         95.1633          14.796 
        1.79785         94.5423         14.6774 
        1.80399         94.1284         14.5601 
        1.81012         93.4871         14.4443 
        1.81625         93.2345         14.3297 
        1.82239         92.8941         14.2163 
        1.82853         92.1074         14.1042 
        1.83466          91.565         13.9933 
        1.84078         91.1791         13.8838 
        1.84692         90.8679         13.7753 
        1.85306         90.3132         13.6679 
         1.8592         89.8973         13.5617 
        1.86533          89.315         13.4568 
        1.87147         88.7625         13.3528 
        1.87761         88.2617         13.2499 
        1.88375         87.6911         13.1482 
        1.88988         87.2691         13.0477 
        1.89601         86.8517         12.9482 
        1.90215         86.3216         12.8497 
        1.90829         85.9115         12.7523 
        1.91442         85.5824         12.6558 
        1.92056         85.0367         12.5605 
         1.9267         84.6607          12.466 
        1.93284         84.3077         12.3724 
        1.93897         83.8959           12.28 
        1.94509         83.3041         12.1888 
        1.95123         82.9866         12.0982 
        1.95737         82.2788         12.0086 
        1.96349         82.0166           11.92 
        1.96964         81.6216         11.8321 
        1.97578         81.0602         11.7451 
        1.98192         80.6808         11.6591 
        1.98805         80.2053         11.5739 
        1.99419         79.7245         11.4896 
        2.00033         79.2579         11.4062 
        2.00647         79.0729         11.3235 
         2.0126         78.5935         11.2419 
        2.01874         78.2395         11.1609 
        2.02488         77.8927         11.0807 
        2.03101         77.4454         11.0014 
        2.03714         77.1861         10.9229 
        2.04328         76.6713         10.8451 
        2.04941         76.0169         10.7682 
        2.05554         75.9233         10.6921 
        2.06167         75.5532         10.6166 
        2.06781         74.9201         10.5418 
        2.07396         74.6604         10.4676 
        2.08009         74.3417         10.3943 
        2.08622         73.8811         10.3218 
        2.09237          73.424         10.2498 
        2.09851         72.9972         10.1785 
        2.10464         72.7528          10.108 
        2.11077         72.3809         10.0383 
        2.11691         72.0617         9.96905 
        2.12305         71.5658         9.90047 
        2.12918         71.1736         9.83271 
        2.13531         70.9041         9.76558 
        2.14145         70.3658         9.69892 
         2.1476         70.1199         9.63282 
        2.15372         69.8072         9.56766 
        2.15985         69.3787         9.50305 
        2.16599         68.9856         9.43885 
        2.17213         68.7244         9.37531 
        2.17827         68.2483         9.31238 
         2.1844         67.9839         9.25009 
        2.19054         67.6456         9.18834 
        2.19666         67.1754         9.12725 
         2.2028         67.0262         9.06666 
        2.20893         66.5227          9.0066 
        2.21508         66.1715         8.94702 
        2.22122         65.7672         8.88795 
        2.22736         65.4682         8.82955 
        2.23349         65.2709         8.77169 
        2.23962         64.9048         8.71432 
        2.24577         64.5331         8.65741 
         2.2519         64.2348          8.6011 
        2.25802         63.9168         8.54538 
        2.26417          63.514            8.49 
        2.27031         63.1776         8.43506 
        2.27644         62.9241         8.38077 
        2.28257          62.659         8.32696 
        2.28872         62.3865         8.27353 
        2.29486          62.104         8.22058 
        2.30099         61.5882         8.16821 
        2.30712         61.4131         8.11627 
        2.31326         61.0809         8.06469 
         2.3194         60.7284          8.0136 
        2.32553         60.5446         7.96304 
        2.33166         60.0231         7.91293 
         2.3378         59.7668          7.8632 
        2.34394         59.5119         7.81387 
        2.35007         59.1747         7.76504 
        2.35619         58.9462         7.71669 
        2.36233         58.5364         7.66864 
        2.36848         58.2757          7.6209 
        2.37462         57.9784         7.57367 
        2.38075          57.748         7.52689 
        2.38689         57.4474         7.48046 
        2.39303         57.2545         7.43444 
        2.39916         56.9858         7.38885 
        2.40529         56.5775         7.34365 
        2.41143         56.3281          7.2988 
        2.41757         55.9908         7.25431 
         2.4237         55.8686         7.21027 
        2.42983         55.3909          7.1666 
        2.43598         55.1413         7.12318 
        2.44211          54.941         7.08019 
        2.44823         54.6455         7.03766 
        2.45437         54.3764         6.99536 
        2.46052         54.0641         6.95338 
        2.46665         53.7893         6.91181 
        2.47279         53.5932          6.8706 
        2.47892         53.2873          6.8297 
        2.48507         53.0296          6.7891 
         2.4912         52.7492         6.74891 
