# k  (h/Mpc)    Pcb(k)  (Mpc/h)^3    Pcb_linear(k)  (Mpc/h)^3
     0.00783031         2835.81         2864.68 
       0.013688         3728.25         3722.45 
       0.019231         3946.97         3945.62 
      0.0249154         3786.28         3822.68 
      0.0312784          3464.8         3478.94 
      0.0375637         3089.05         3086.93 
      0.0433917         2740.15         2760.07 
      0.0492413         2492.62         2497.94 
      0.0555754          2258.7         2286.57 
      0.0619321         2134.34          2127.3 
       0.067871         1979.02          2000.1 
      0.0738098         1851.31         1873.35 
      0.0800417         1698.99         1729.75 
      0.0862327         1558.32          1577.1 
      0.0921407         1421.42         1430.91 
      0.0982031         1278.47         1291.88 
       0.104506         1174.64         1168.89 
       0.110769         1078.04         1072.74 
       0.116806         1000.64         1003.01 
       0.122832         953.992         950.181 
       0.129052          899.14         905.397 
       0.135211         857.168         863.269 
       0.141259         819.798         819.065 
       0.147318         775.549         770.301 
       0.153489          718.25         717.438 
       0.159709         670.864         664.379 
       0.165845         632.621         616.029 
       0.171974         586.503         574.442 
       0.178125         554.781         540.478 
       0.184229          530.79         513.831 
        0.19034         499.712         492.347 
       0.196428         488.525         473.738 
       0.202534         474.736         455.664 
       0.208729         452.415         436.397 
       0.214876         428.438         415.834 
       0.220989         414.347         394.382 
       0.227147         388.218         372.801 
        0.23329         370.058         352.475 
       0.239377          356.88         334.419 
       0.245482         335.078         318.801 
       0.251667         328.402         305.426 
       0.257832          317.14         294.022 
       0.263955         306.324         283.872 
       0.270079         296.509         274.186 
        0.27624         290.868         264.389 
       0.282372         279.568         254.352 
        0.28843         268.927         244.222 
       0.294538         258.143         234.042 
       0.300721         253.032         224.129 
        0.30691         241.243         214.894 
       0.313033         234.381          206.62 
       0.319153         224.131         199.214 
       0.325316         219.788         192.515 
        0.33145         212.558         186.392 
       0.337538          208.88         180.639 
       0.343633         202.271         175.015 
       0.349808         196.525         169.361 
       0.355968         192.019         163.733 
       0.362074         186.347          158.23 
       0.368217         181.395         152.852 
       0.374374         176.098         147.713 
       0.380519         171.911         142.906 
       0.386598         167.492         138.478 
       0.392688         164.635         134.358 
        0.39888         160.347         130.433 
       0.405048         157.002         126.721 
       0.411186         153.679         123.165 
       0.417313         149.513         119.702 
       0.423458         146.388         116.297 
       0.429607         142.702         112.966 
       0.435692         138.222         109.758 
       0.441815         137.031         106.643 
       0.447964         134.876         103.653 
       0.454126         129.255         100.802 
       0.460267         127.546         98.1039 
       0.466387         125.005         95.5484 
        0.47254         123.107         93.0915 
       0.478662          121.32         90.7371 
       0.484765         118.204         88.4647 
       0.490885         115.999         86.2509 
       0.497035         114.561         84.0843 
       0.503198         111.605         81.9732 
       0.509342         109.167         79.9348 
       0.515458         107.571          77.976 
       0.521598         106.219         76.0816 
       0.527764         104.434         74.2516 
       0.533884         102.638         72.5062 
           0.54         100.903         70.8276 
       0.546137         99.8047         69.2007 
       0.552299         98.4058         67.6184 
       0.558452         95.7961         66.0856 
       0.564573         94.1874         64.6047 
       0.570708         93.2462         63.1625 
       0.576825         91.4658         61.7655 
       0.582926         89.8962         60.4131 
       0.589034         87.9222         59.1005 
       0.595184         87.0324         57.8214 
       0.601379         86.0493          56.575 
       0.607522         84.0041         55.3782 
       0.613639          83.839         54.2228 
       0.619772         81.7692         53.0983 
       0.625918         81.3644         52.0036 
       0.632068         80.2073         50.9391 
       0.638161         79.0313         49.9136 
         0.6443         77.8363         48.9083 
       0.650464         76.7331         47.9265 
       0.656582         76.1117         46.9786 
       0.662703         74.6045         46.0563 
       0.668861         73.8041         45.1543 
       0.675024         72.8041         44.2769 
       0.681124         71.6937         43.4328 
       0.687237         70.5658         42.6098 
       0.693381         70.0248         41.8047 
       0.699536         68.7538         41.0191 
       0.705665          69.033          40.257 
       0.711789         67.3001         39.5149 
       0.717957         66.7624         38.7863 
        0.72409         65.8274         38.0804 
       0.730186         64.8558         37.3965 
       0.736317         64.5873         36.7261 
       0.742472         63.5198           36.07 
       0.748622         63.0922         35.4309 
        0.75476         62.2809          34.809 
       0.760888          61.438         34.2032 
       0.767043         60.8474         33.6096 
       0.773185         60.0224         33.0315 
       0.779291         59.7523         32.4704 
       0.785407         59.1538         31.9216 
       0.791564         58.1926         31.3822 
       0.797719         57.3204         30.8557 
       0.803834         57.2268         30.3448 
       0.809972         56.4246         29.8439 
       0.816124         55.4915         29.3533 
       0.822261         55.2869         28.8752 
       0.828378         54.7853         28.4093 
       0.834502         54.1461         27.9535 
       0.840667         53.7237         27.5049 
       0.846816         53.0012         27.0675 
       0.852925         52.5568         26.6425 
       0.859047         51.8866         26.2259 
       0.865192         51.6419         25.8168 
       0.871341         51.3527         25.4163 
       0.877463         50.3427         25.0262 
       0.883569         50.0146         24.6454 
       0.889708         49.6894         24.2706 
       0.895864          49.251         23.9027 
       0.902008         48.8597         23.5433 
       0.908149         48.4408         23.1916 
       0.914301         48.2081         22.8466 
       0.920448         47.3637          22.509 
       0.926574         47.1834         22.1795 
       0.932687         46.7111         21.8574 
       0.938823         46.1103         21.5406 
       0.944975         45.9166         21.2293 
       0.951105         45.5375         20.9255 
       0.957225         45.0015         20.6281 
       0.963368         44.7961         20.3356 
       0.969511         44.4785         20.0489 
       0.975621         44.1477         19.7692 
       0.981748         43.5832         19.4943 
       0.987916          43.405         19.2228 
        0.99406         43.0437         18.9577 
        1.00019         42.5047         18.6981 
        1.00632         42.3715         18.4437 
        1.01246         42.0083         18.1937 
        1.01859         41.5362         17.9488 
        1.02471          41.525         17.7087 
        1.03085         41.1072         17.4723 
        1.03698         40.5586         17.2407 
        1.04314         40.2644         17.0124 
        1.04929         40.0414         16.7887 
        1.05541         39.6268         16.5701 
        1.06154         39.4895         16.3549 
        1.06769         39.1927         16.1431 
        1.07382         38.8815         15.9359 
        1.07993          38.753         15.7328 
        1.08607         38.2754         15.5325 
        1.09222         38.1234         15.3355 
        1.09836          37.699         15.1421 
        1.10449         37.5804         14.9524 
        1.11063         37.0989         14.7657 
        1.11677          36.992         14.5823 
         1.1229         36.8655         14.4023 
        1.12903         36.3849         14.2253 
        1.13518         36.1446         14.0511 
        1.14131         36.0905           13.88 
        1.14745         35.7901         13.7118 
        1.15359         35.6104         13.5464 
        1.15973         35.2238         13.3837 
        1.16584         34.9126         13.2244 
        1.17197         34.9725         13.0675 
        1.17811         34.5122         12.9127 
        1.18424         34.2374         12.7609 
        1.19038         34.1895          12.611 
        1.19652         33.9452         12.4637 
        1.20267         33.7132         12.3188 
        1.20881         33.5339         12.1762 
        1.21495         33.2774         12.0361 
        1.22108         33.0469         11.8982 
         1.2272         32.7216         11.7629 
        1.23334         32.5985         11.6294 
        1.23949         32.3582         11.4976 
        1.24562         32.2987         11.3683 
        1.25174         32.0964         11.2411 
        1.25789         31.9134         11.1156 
        1.26402         31.7411         10.9922 
        1.27014         31.4432          10.871 
        1.27628         31.2055         10.7513 
        1.28244         31.1345         10.6332 
        1.28858          30.991          10.517 
        1.29471         30.7252         10.4028 
        1.30084         30.5434         10.2905 
        1.30697         30.3563         10.1796 
        1.31312         30.1024         10.0703 
        1.31925         29.9818         9.96286 
        1.32537         29.8952         9.85715 
        1.33151         29.6309         9.75261 
        1.33765         29.5413         9.64966 
        1.34378          29.427         9.54841 
        1.34992          29.027         9.44855 
        1.35606          28.997         9.34992 
         1.3622         28.8424         9.25287 
        1.36833         28.6602         9.15745 
        1.37445         28.5879         9.06343 
        1.38059         28.4387         8.97045 
        1.38675         28.1499         8.87856 
        1.39288         28.0845         8.78833 
        1.39901         27.8506          8.6994 
        1.40515         27.7516         8.61152 
         1.4113         27.6015         8.52489 
        1.41742         27.3747         8.43979 
        1.42355         27.3242         8.35571 
         1.4297         27.1481         8.27252 
        1.43585         27.0933         8.19051 
        1.44198         26.8036         8.10993 
        1.44809         26.7552          8.0306 
        1.45423         26.6212         7.95204 
        1.46036         26.5286         7.87468 
        1.46649         26.3607         7.79834 
        1.47263          26.174         7.72295 
        1.47877         26.0695          7.6486 
        1.48491         25.9266         7.57511 
        1.49104         25.8828         7.50276 
        1.49718         25.6503         7.43131 
        1.50333         25.5602         7.36068 
        1.50947         25.4736         7.29111 
         1.5156         25.2669         7.22256 
        1.52172         25.0889          7.1549 
        1.52787         25.0541         7.08797 
          1.534         24.9119         7.02199 
        1.54013         24.7307         6.95692 
        1.54627         24.6524         6.89256 
        1.55241         24.4933         6.82902 
        1.55855         24.4199         6.76637 
        1.56467         24.3252         6.70468 
         1.5708         24.2185         6.64359 
        1.57695         23.9913         6.58318 
        1.58308         23.9902         6.52366 
        1.58922           23.85         6.46484 
        1.59535         23.7078         6.40678 
         1.6015         23.5856         6.34935 
        1.60764         23.5318         6.29265 
        1.61376         23.4364         6.23681 
        1.61989         23.2061         6.18161 
        1.62604         23.2157         6.12695 
        1.63218         23.0478         6.07299 
        1.63831         22.9788         6.01982 
        1.64444         22.8137         5.96726 
        1.65059         22.7358         5.91521 
        1.65673         22.6511         5.86384 
        1.66285         22.5091         5.81323 
        1.66898         22.4476         5.76321 
        1.67512         22.3424         5.71368 
        1.68127         22.1812         5.66468 
         1.6874         22.1079         5.61638 
        1.69353         22.0795         5.56867 
        1.69967         21.8873         5.52141 
        1.70581         21.7698         5.47472 
        1.71193          21.678         5.42875 
        1.71806         21.6417         5.38321 
        1.72421         21.5134         5.33811 
        1.73035         21.4623         5.29357 
        1.73649         21.3179         5.24956 
        1.74262         21.2786         5.20609 
        1.74876         21.1496         5.16309 
        1.75489         21.0666         5.12066 
        1.76101         20.9543         5.07872 
        1.76715         20.9477          5.0372 
        1.77329         20.8195          4.9961 
        1.77943         20.6883         4.95544 
        1.78557         20.6037         4.91529 
        1.79171         20.5595         4.87559 
        1.79785          20.438         4.83632 
        1.80399         20.3654         4.79749 
        1.81012         20.2704         4.75914 
        1.81625         20.1698         4.72124 
        1.82239         20.1168         4.68369 
        1.82853         19.9581         4.64656 
        1.83466         19.9187         4.60988 
        1.84078          19.775         4.57364 
        1.84692         19.7521         4.53773 
        1.85306          19.654         4.50216 
         1.8592         19.5921         4.46704 
        1.86533         19.5097          4.4323 
        1.87147          19.416         4.39791 
        1.87761         19.3536         4.36386 
        1.88375         19.2282         4.33021 
        1.88988         19.1944         4.29696 
        1.89601         19.1182         4.26405 
        1.90215         19.0088         4.23145 
        1.90829         18.9586         4.19921 
        1.91442         18.8626         4.16731 
        1.92056         18.8078         4.13576 
         1.9267         18.7292         4.10452 
        1.93284         18.6337         4.07358 
        1.93897         18.5363         4.04302 
        1.94509         18.4863         4.01284 
        1.95123         18.4144         3.98289 
        1.95737         18.3216         3.95323 
        1.96349         18.2538         3.92395 
        1.96964         18.1861         3.89488 
        1.97578          18.115          3.8661 
        1.98192          18.019         3.83767 
        1.98805         17.9696         3.80952 
        1.99419         17.8826         3.78165 
        2.00033         17.8211         3.75405 
        2.00647          17.787         3.72673 
         2.0126         17.6269         3.69974 
        2.01874           17.59         3.67297 
        2.02488         17.5021         3.64644 
        2.03101         17.4938         3.62023 
        2.03714          17.405          3.5943 
        2.04328         17.3168          3.5686 
        2.04941          17.252         3.54317 
        2.05554         17.2263         3.51801 
        2.06167         17.1418         3.49306 
        2.06781         17.0724         3.46835 
        2.07396         16.9998         3.44384 
        2.08009         16.9293         3.41962 
        2.08622         16.8521         3.39565 
        2.09237         16.8039         3.37187 
        2.09851         16.7427         3.34832 
        2.10464           16.67         3.32503 
        2.11077         16.6102         3.30199 
        2.11691         16.5231         3.27912 
        2.12305         16.4721         3.25646 
        2.12918         16.4299         3.23408 
        2.13531         16.3531          3.2119 
        2.14145         16.2941         3.18988 
         2.1476         16.2301         3.16805 
        2.15372         16.1839         3.14653 
        2.15985         16.1062         3.12519 
        2.16599         16.0517         3.10398 
        2.17213         16.0199           3.083 
        2.17827         15.9516         3.06222 
         2.1844         15.8878         3.04165 
        2.19054         15.7972         3.02126 
        2.19666         15.7575         3.00109 
         2.2028         15.6899         2.98108 
        2.20893         15.6482         2.96125 
        2.21508         15.5878         2.94158 
        2.22122         15.4951         2.92208 
        2.22736         15.4574          2.9028 
        2.23349          15.388          2.8837 
        2.23962         15.3675         2.86476 
        2.24577         15.2794         2.84597 
         2.2519         15.2322         2.82738 
        2.25802         15.1761         2.80899 
        2.26417         15.1159         2.79071 
        2.27031         15.0772         2.77258 
        2.27644         15.0281         2.75466 
        2.28257         14.9805          2.7369 
        2.28872         14.8923         2.71927 
        2.29486         14.8696          2.7018 
        2.30099         14.8283         2.68451 
        2.30712         14.7729         2.66737 
        2.31326         14.7039         2.65035 
         2.3194           14.61         2.63349 
        2.32553          14.609         2.61681 
        2.33166         14.5178         2.60028 
         2.3378         14.4905         2.58387 
        2.34394         14.4237         2.56759 
        2.35007         14.3501         2.55148 
        2.35619         14.3205         2.53553 
        2.36233         14.2612         2.51968 
        2.36848         14.2432         2.50393 
        2.37462         14.1745         2.48835 
        2.38075         14.1068         2.47292 
        2.38689         14.0709         2.45761 
        2.39303         14.0281         2.44243 
        2.39916         13.9743         2.42739 
        2.40529         13.9424         2.41249 
        2.41143         13.8656         2.39769 
        2.41757         13.8426         2.38302 
         2.4237         13.7621          2.3685 
        2.42983         13.7459         2.35409 
        2.43598         13.6862         2.33978 
        2.44211          13.617          2.3256 
        2.44823         13.5916         2.31157 
        2.45437         13.5465         2.29763 
        2.46052         13.5045         2.28378 
        2.46665         13.4418         2.27008 
        2.47279         13.4055         2.25649 
        2.47892         13.3476           2.243 
        2.48507         13.3001         2.22962 
         2.4912         13.2693         2.21636 
