# k  (h/Mpc)    P(k)  (Mpc/h)^3    P_linear(k)  (Mpc/h)^3
     0.00783031         8278.23         8323.89 
       0.013688         10957.1         10794.1 
       0.019231         11547.4         11431.3 
      0.0249154         10986.4         11069.6 
      0.0312784         10065.3         10070.7 
      0.0375637         8992.66         8933.97 
      0.0433917         7918.57         7986.87 
      0.0492413         7226.15         7227.58 
      0.0555754         6486.73         6615.43 
      0.0619321         6192.42         6154.21 
       0.067871         5679.93         5785.95 
      0.0738098         5311.19         5419.08 
      0.0800417          4846.7         5003.53 
      0.0862327         4462.64         4561.84 
      0.0921407         4097.17          4138.9 
      0.0982031         3682.45         3736.66 
       0.104506         3422.88         3380.88 
       0.110769          3144.4         3102.74 
       0.116806         2925.08         2901.01 
       0.122832         2786.59         2748.19 
       0.129052         2605.59         2618.63 
       0.135211         2489.04         2496.77 
       0.141259         2392.65          2368.9 
       0.147318          2268.7         2227.85 
       0.153489          2095.4         2074.95 
       0.159709         1978.55         1921.49 
       0.165845         1888.47         1781.64 
       0.171974          1765.3         1661.36 
       0.178125         1672.89         1563.13 
       0.184229         1603.69         1486.06 
        0.19034         1506.07         1423.92 
       0.196428         1483.57         1370.09 
       0.202534         1438.35         1317.82 
       0.208729         1375.55         1262.09 
       0.214876         1311.55         1202.62 
       0.220989         1273.68         1140.58 
       0.227147         1207.42         1078.16 
        0.23329          1158.3         1019.38 
       0.239377         1134.42         967.156 
       0.245482         1060.64         921.986 
       0.251667         1051.96         883.301 
       0.257832         1014.27         850.322 
       0.263955         982.666         820.966 
       0.270079         951.138         792.954 
        0.27624         942.082         764.618 
       0.282372         902.351         735.592 
        0.28843          887.02         706.296 
       0.294538         844.823         676.853 
       0.300721         841.154         648.183 
        0.30691         803.824         621.473 
       0.313033         788.618         597.546 
       0.319153         768.291         576.127 
       0.325316         744.949         556.754 
        0.33145         726.213         539.046 
       0.337538         717.999         522.408 
       0.343633         696.948         506.142 
       0.349808          675.09         489.792 
       0.355968          670.73         473.516 
       0.362074         659.188         457.599 
       0.368217         641.329         442.046 
       0.374374         616.565         427.184 
       0.380519         612.629         413.282 
       0.386598         598.725         400.476 
       0.392688          596.18         388.561 
        0.39888         578.935         377.211 
       0.405048         569.107         366.476 
       0.411186         559.199          356.19 
       0.417313         549.219         346.175 
       0.423458         540.594          336.33 
       0.429607         530.027         326.697 
       0.435692         518.478         317.418 
       0.441815         515.427         308.409 
       0.447964         505.216         299.762 
       0.454126         491.661         291.517 
       0.460267         485.313         283.714 
       0.466387         480.074         276.324 
        0.47254         470.834         269.218 
       0.478662         469.669         262.409 
       0.484765         456.404         255.838 
       0.490885         451.958         249.436 
       0.497035         444.153         243.169 
       0.503198         436.982         237.064 
       0.509342         433.728         231.169 
       0.515458         429.534         225.504 
       0.521598         421.588         220.026 
       0.527764         413.548         214.733 
       0.533884         411.344         209.686 
           0.54         405.934         204.831 
       0.546137         404.663         200.126 
       0.552299         396.757          195.55 
       0.558452         393.925         191.117 
       0.564573         387.668         186.834 
       0.570708         381.828         182.664 
       0.576825         375.468         178.624 
       0.582926         373.282         174.713 
       0.589034          369.45         170.917 
       0.595184         366.241         167.217 
       0.601379         362.613         163.613 
       0.607522          356.51         160.152 
       0.613639         355.326          156.81 
       0.619772         346.624         153.558 
       0.625918         345.626         150.393 
       0.632068         341.002         147.314 
       0.638161         339.744         144.348 
         0.6443         333.708         141.441 
       0.650464         331.366         138.602 
       0.656582         330.211          135.86 
       0.662703          327.12         133.193 
       0.668861         321.662         130.584 
       0.675024          318.76         128.047 
       0.681124         317.558         125.606 
       0.687237         313.681         123.226 
       0.693381         309.391         120.897 
       0.699536         306.967         118.626 
       0.705665         305.392         116.422 
       0.711789         301.743         114.275 
       0.717957         299.843         112.169 
        0.72409         296.811         110.127 
       0.730186         293.764         108.149 
       0.736317         291.123          106.21 
       0.742472         289.991         104.313 
       0.748622         287.604         102.465 
        0.75476         285.205         100.666 
       0.760888         281.468         98.9142 
       0.767043         281.176         97.1975 
       0.773185         277.664         95.5256 
       0.779291         273.241         93.9028 
       0.785407         272.629         92.3159 
       0.791564         270.111          90.756 
       0.797719         267.569         89.2335 
       0.803834         266.114          87.756 
       0.809972          263.95         86.3071 
       0.816124         264.372         84.8883 
       0.822261         259.903         83.5057 
       0.828378         258.411         82.1586 
       0.834502         257.965         80.8404 
       0.840667         253.818          79.543 
       0.846816         252.911         78.2781 
       0.852925         251.098          77.049 
       0.859047          249.33          75.844 
       0.865192          247.52          74.661 
       0.871341         245.065         73.5028 
       0.877463         243.671         72.3747 
       0.883569         241.935         71.2733 
       0.889708         240.136         70.1894 
       0.895864         237.269         69.1256 
       0.902008         236.827         68.0863 
       0.908149          235.63         67.0692 
       0.914301         232.976         66.0714 
       0.920448         231.209         65.0951 
       0.926574         230.153         64.1422 
       0.932687         229.529         63.2105 
       0.938823         226.924         62.2943 
       0.944975         225.348         61.3943 
       0.951105         224.381         60.5155 
       0.957225         221.999         59.6556 
       0.963368         219.833         58.8097 
       0.969511         218.895         57.9804 
       0.975621         217.379         57.1716 
       0.981748         217.394         56.3764 
       0.987916         214.639         55.5915 
        0.99406         213.219         54.8247 
        1.00019         212.954          54.074 
        1.00632         210.932         53.3383 
        1.01246          209.61         52.6152 
        1.01859         208.472         51.9069 
        1.02471         207.091         51.2127 
        1.03085         204.826         50.5289 
        1.03698         203.801         49.8592 
        1.04314          202.66         49.1989 
        1.04929         200.986         48.5522 
        1.05541         200.472         47.9199 
        1.06154         198.958         47.2974 
        1.06769          198.73         46.6852 
        1.07382         197.204         46.0859 
        1.07993         195.593         45.4986 
        1.08607         194.496         44.9192 
        1.09222         193.435         44.3494 
        1.09836         191.728         43.7903 
        1.10449         190.244         43.2415 
        1.11063         189.045         42.7016 
        1.11677         188.655         42.1712 
         1.1229         186.774         41.6508 
        1.12903         185.985         41.1388 
        1.13518         185.503         40.6351 
        1.14131         183.721         40.1402 
        1.14745         183.195         39.6538 
        1.15359         181.704         39.1755 
        1.15973         181.424         38.7049 
        1.16584          179.47         38.2443 
        1.17197         178.789         37.7906 
        1.17811         177.784         37.3428 
        1.18424         176.739         36.9037 
        1.19038         176.191         36.4705 
        1.19652         174.948         36.0444 
        1.20267          173.99         35.6252 
        1.20881         172.714         35.2129 
        1.21495         171.821         34.8077 
        1.22108         171.169         34.4091 
         1.2272         169.733         34.0177 
        1.23334         168.849         33.6315 
        1.23949         167.193         33.2505 
        1.24562         166.897         32.8765 
        1.25174         164.902         32.5088 
        1.25789         164.501         32.1457 
        1.26402         163.816         31.7889 
        1.27014         162.718         31.4384 
        1.27628         161.997         31.0922 
        1.28244         161.273         30.7506 
        1.28858         160.403         30.4146 
        1.29471         158.689         30.0844 
        1.30084         158.124         29.7595 
        1.30697          157.34         29.4389 
        1.31312         156.945         29.1227 
        1.31925         155.569         28.8121 
        1.32537         155.073         28.5064 
        1.33151          153.45         28.2041 
        1.33765         153.141         27.9063 
        1.34378         152.037         27.6135 
        1.34992         151.688         27.3247 
        1.35606         150.664         27.0395 
         1.3622         149.809         26.7588 
        1.36833         148.868         26.4829 
        1.37445         147.814          26.211 
        1.38059         147.632         25.9421 
        1.38675         146.351         25.6763 
        1.39288         145.922         25.4154 
        1.39901         145.352         25.1582 
        1.40515         144.442         24.9041 
         1.4113         142.831         24.6535 
        1.41742         142.739         24.4074 
        1.42355          141.65         24.1643 
         1.4297         140.849         23.9237 
        1.43585          139.77         23.6865 
        1.44198          139.71         23.4535 
        1.44809         138.505         23.2241 
        1.45423         137.469         22.9969 
        1.46036          137.23         22.7732 
        1.46649         136.483         22.5524 
        1.47263         135.946         22.3344 
        1.47877         135.131         22.1193 
        1.48491         134.025         21.9068 
        1.49104         133.432         21.6976 
        1.49718         132.395         21.4909 
        1.50333         131.907         21.2867 
        1.50947         131.164         21.0855 
         1.5156         130.677         20.8873 
        1.52172         129.743         20.6916 
        1.52787         129.354          20.498 
          1.534         128.634         20.3072 
        1.54013         127.572          20.119 
        1.54627         127.074         19.9329 
        1.55241          126.37         19.7492 
        1.55855         125.874          19.568 
        1.56467         125.184         19.3896 
         1.5708         124.344         19.2129 
        1.57695         123.985         19.0382 
        1.58308         122.896         18.8661 
        1.58922         122.822          18.696 
        1.59535         121.973         18.5281 
         1.6015         121.436          18.362 
        1.60764         120.588          18.198 
        1.61376         120.207         18.0365 
        1.61989         119.521         17.8769 
        1.62604         118.774         17.7188 
        1.63218         118.367         17.5628 
        1.63831         117.504          17.409 
        1.64444         117.001          17.257 
        1.65059         116.297         17.1065 
        1.65673          115.45         16.9579 
        1.66285         115.357         16.8116 
        1.66898         114.429         16.6669 
        1.67512         113.926         16.5236 
        1.68127         113.198          16.382 
         1.6874         112.544         16.2423 
        1.69353         112.005         16.1043 
        1.69967         111.506         15.9676 
        1.70581         110.997         15.8326 
        1.71193         110.564         15.6996 
        1.71806         109.611         15.5679 
        1.72421         109.314         15.4375 
        1.73035          108.53         15.3087 
        1.73649         107.968         15.1815 
        1.74262         107.524         15.0557 
        1.74876         106.991         14.9314 
        1.75489          106.17         14.8087 
        1.76101         105.913         14.6874 
        1.76715         105.085         14.5673 
        1.77329          104.79         14.4484 
        1.77943         104.209         14.3309 
        1.78557         103.768         14.2148 
        1.79171         103.084         14.0999 
        1.79785         102.621         13.9864 
        1.80399         102.169         13.8741 
        1.81012         101.661         13.7632 
        1.81625         100.994         13.6536 
        1.82239         100.662          13.545 
        1.82853         100.315         13.4376 
        1.83466         99.4878         13.3315 
        1.84078         99.3169         13.2267 
        1.84692         98.4579         13.1229 
        1.85306         97.9031           13.02 
         1.8592         97.3603         12.9184 
        1.86533         97.0111          12.818 
        1.87147         96.1933         12.7185 
        1.87761         95.9866           12.62 
        1.88375         95.5912         12.5227 
        1.88988         94.9966         12.4266 
        1.89601         94.4869         12.3314 
        1.90215         94.1345         12.2371 
        1.90829          93.619         12.1439 
        1.91442         93.1704         12.0516 
        1.92056         92.5636         11.9604 
         1.9267          92.208           11.87 
        1.93284         91.4286         11.7806 
        1.93897         91.1245         11.6922 
        1.94509         90.6718         11.6049 
        1.95123         90.1842         11.5183 
        1.95737         90.0713         11.4325 
        1.96349         89.3098         11.3478 
        1.96964         88.6805         11.2638 
        1.97578         88.6189         11.1805 
        1.98192         87.9779         11.0983 
        1.98805         87.5165         11.0169 
        1.99419         86.9344         10.9363 
        2.00033         86.7027         10.8565 
        2.00647         86.2775         10.7775 
         2.0126         85.6994         10.6994 
        2.01874         85.2111          10.622 
        2.02488         84.9479         10.5453 
        2.03101         84.6059         10.4695 
        2.03714         83.9115         10.3945 
        2.04328         83.6132         10.3202 
        2.04941         83.0302         10.2467 
        2.05554         82.7921         10.1739 
        2.06167         82.4173         10.1017 
        2.06781         81.8765         10.0303 
        2.07396         81.5086          9.9594 
        2.08009         81.1478         9.88934 
        2.08622         80.7727         9.82004 
        2.09237         80.3555         9.75127 
        2.09851         80.0497         9.68315 
        2.10464          79.568         9.61579 
        2.11077         79.0116         9.54916 
        2.11691         78.7978         9.48302 
        2.12305         78.3301         9.41751 
        2.12918         77.9611         9.35277 
        2.13531         77.5612         9.28864 
        2.14145         77.0675         9.22497 
         2.1476         76.8633         9.16182 
        2.15372         76.4529         9.09958 
        2.15985         76.0203         9.03786 
        2.16599         75.6553         8.97654 
        2.17213         75.2927         8.91587 
        2.17827         74.9233         8.85576 
         2.1844         74.4363         8.79627 
        2.19054         74.1411         8.73731 
        2.19666         73.7921         8.67897 
         2.2028         73.5762         8.62112 
        2.20893         73.1133         8.56377 
        2.21508          72.668         8.50688 
        2.22122         72.5333         8.45049 
        2.22736         71.9867         8.39473 
        2.23349         71.7087         8.33949 
        2.23962         71.2372         8.28472 
        2.24577         70.8225          8.2304 
         2.2519         70.6246         8.17664 
        2.25802         70.2383         8.12345 
        2.26417         69.8272         8.07058 
        2.27031         69.5997         8.01814 
        2.27644         69.1785         7.96633 
        2.28257         68.8212         7.91497 
        2.28872         68.5728         7.86397 
        2.29486           68.27         7.81344 
        2.30099         67.8481         7.76345 
        2.30712         67.5799         7.71388 
        2.31326         67.1142         7.66467 
         2.3194          66.967         7.61591 
        2.32553         66.4574         7.56766 
        2.33166         66.1246         7.51985 
         2.3378         65.8373         7.47239 
        2.34394         65.3653         7.42533 
        2.35007         65.1244         7.37874 
        2.35619         64.8432         7.33262 
        2.36233         64.6251         7.28677 
        2.36848         64.2185         7.24123 
        2.37462         63.9378         7.19618 
        2.38075           63.68         7.15155 
        2.38689         63.3548         7.10726 
        2.39303         63.0928         7.06336 
        2.39916         62.9038         7.01988 
        2.40529         62.4397         6.97677 
        2.41143         62.1478         6.93399 
        2.41757         61.8547         6.89156 
         2.4237         61.5349         6.84955 
        2.42983         61.1548         6.80791 
        2.43598         60.8686          6.7665 
        2.44211         60.6125          6.7255 
        2.44823         60.3641         6.68494 
        2.45437         59.9653          6.6446 
        2.46052         59.6492         6.60456 
        2.46665         59.4138         6.56493 
        2.47279         59.1671         6.52563 
        2.47892         58.9653         6.48664 
        2.48507         58.5766         6.44792 
         2.4912         58.3974          6.4096 
