# k  (h/Mpc)    Pcb(k)  (Mpc/h)^3    Pcb_linear(k)  (Mpc/h)^3
     0.00783031         2073.78         2094.01 
       0.013688         2724.74         2723.13 
       0.019231         2887.14         2886.57 
      0.0249154         2773.45         2796.34 
      0.0312784         2536.43          2544.5 
      0.0375637         2259.98         2257.53 
      0.0433917         2007.31         2018.35 
      0.0492413         1824.57         1826.58 
      0.0555754         1656.09         1671.96 
      0.0619321         1561.33         1555.45 
       0.067871         1450.69         1462.41 
      0.0738098         1357.22         1369.71 
      0.0800417         1246.82          1264.7 
      0.0862327         1142.63         1153.08 
      0.0921407         1041.11         1046.19 
      0.0982031         936.798         944.526 
       0.104506         858.631         854.602 
       0.110769         787.922         784.302 
       0.116806         731.554         733.313 
       0.122832         697.154         694.689 
       0.129052         658.177         661.944 
       0.135211         627.232         631.141 
       0.141259         599.207         598.822 
       0.147318         566.574          563.17 
       0.153489          525.09         524.521 
       0.159709         489.388         485.729 
       0.165845          460.41         450.379 
       0.171974          426.51         419.974 
       0.178125         403.159         395.142 
       0.184229         385.421          375.66 
        0.19034         363.652         359.952 
       0.196428         354.587         346.347 
       0.202534         344.397         333.133 
       0.208729         328.161         319.047 
       0.214876         310.774         304.013 
       0.220989         299.971          288.33 
       0.227147         280.815         272.551 
        0.23329         267.227         257.691 
       0.239377         256.824         244.491 
       0.245482         241.794         233.073 
       0.251667         236.177         223.294 
       0.257832         227.856         214.957 
       0.263955         220.043         207.536 
       0.270079         212.959         200.454 
        0.27624         208.361         193.291 
       0.282372         200.381         185.954 
        0.28843         192.318         178.548 
       0.294538          184.73         171.105 
       0.300721         180.298         163.858 
        0.30691         171.901         157.106 
       0.313033         166.619         151.057 
       0.319153         159.045         145.643 
       0.325316         156.296         140.745 
        0.33145         150.994         136.269 
       0.337538         147.914         132.063 
       0.343633         143.196         127.951 
       0.349808          139.19         123.817 
       0.355968         135.561         119.703 
       0.362074         131.389          115.68 
       0.368217         127.776         111.748 
       0.374374         123.944         107.991 
       0.380519         120.815         104.476 
       0.386598         117.633         101.239 
       0.392688         115.376         98.2272 
        0.39888          112.27         95.3579 
       0.405048         109.858         92.6441 
       0.411186         107.521          90.044 
       0.417313         104.254         87.5121 
       0.423458          101.94         85.0233 
       0.429607         99.3022          82.588 
       0.435692         96.1966         80.2427 
       0.441815         95.0671         77.9651 
       0.447964         93.5543         75.7791 
       0.454126         89.7813         73.6947 
       0.460267         88.4038         71.7223 
       0.466387         86.2691          69.854 
        0.47254         85.0669         68.0578 
       0.478662         83.6879         66.3365 
       0.484765          81.478         64.6752 
       0.490885         79.7991         63.0567 
       0.497035         78.8016         61.4727 
       0.503198         76.8132         59.9294 
       0.509342         74.9371         58.4391 
       0.515458         73.6983          57.007 
       0.521598         72.6594         55.6221 
       0.527764         71.3256         54.2842 
       0.533884         70.1074         53.0082 
           0.54         68.8393          51.781 
       0.546137         67.9135         50.5916 
       0.552299         66.9501         49.4348 
       0.558452         65.0059         48.3142 
       0.564573         64.0408         47.2315 
       0.570708         63.2732         46.1771 
       0.576825         61.8746         45.1559 
       0.582926         60.8089         44.1672 
       0.589034         59.3466         43.2075 
       0.595184         58.6881         42.2724 
       0.601379         57.8883         41.3612 
       0.607522         56.6651         40.4862 
       0.613639         56.3777         39.6415 
       0.619772         54.9523         38.8194 
       0.625918         54.7458         38.0191 
       0.632068         53.8824         37.2409 
       0.638161         52.9569         36.4911 
         0.6443         52.0338         35.7562 
       0.650464         51.2385         35.0384 
       0.656582          50.915         34.3453 
       0.662703         49.9326          33.671 
       0.668861         49.2187         33.0116 
       0.675024         48.4749         32.3702 
       0.681124          47.676          31.753 
       0.687237         46.9334         31.1513 
       0.693381         46.5945         30.5627 
       0.699536         45.5645         29.9884 
       0.705665         45.6106         29.4313 
       0.711789         44.5785         28.8887 
       0.717957         44.1109         28.3561 
        0.72409         43.4877           27.84 
       0.730186         42.8945           27.34 
       0.736317         42.5763         26.8499 
       0.742472         41.8374         26.3702 
       0.748622          41.516          25.903 
        0.75476         40.8891         25.4483 
       0.760888         40.3577         25.0054 
       0.767043          39.951         24.5715 
       0.773185         39.3071         24.1488 
       0.779291         39.1426         23.7386 
       0.785407         38.6978         23.3374 
       0.791564         38.0283         22.9431 
       0.797719         37.3644         22.5582 
       0.803834         37.3213         22.1846 
       0.809972         36.9383         21.8184 
       0.816124          36.132         21.4597 
       0.822261         35.9937         21.1102 
       0.828378         35.6264         20.7696 
       0.834502         35.2397         20.4364 
       0.840667          34.886         20.1084 
       0.846816         34.3577         19.7887 
       0.852925         34.0766         19.4779 
       0.859047          33.682         19.1733 
       0.865192         33.4348         18.8743 
       0.871341         33.2314         18.5815 
       0.877463         32.6111         18.2963 
       0.883569         32.3023         18.0178 
       0.889708         31.9668         17.7438 
       0.895864         31.7508         17.4749 
       0.902008         31.5042         17.2122 
       0.908149         31.1984          16.955 
       0.914301         31.0477         16.7028 
       0.920448         30.4268          16.456 
       0.926574         30.2814         16.2151 
       0.932687         29.9805         15.9796 
       0.938823         29.6116          15.748 
       0.944975         29.3612         15.5204 
       0.951105         29.1581         15.2983 
       0.957225         28.8344         15.0809 
       0.963368         28.6325         14.8671 
       0.969511         28.4192         14.6574 
       0.975621         28.2101          14.453 
       0.981748         27.8451         14.2519 
       0.987916          27.701         14.0535 
        0.99406         27.3872         13.8597 
        1.00019         27.0514         13.6699 
        1.00632         27.0023         13.4839 
        1.01246         26.7382         13.3011 
        1.01859         26.3966          13.122 
        1.02471         26.3354         12.9465 
        1.03085         26.0892         12.7737 
        1.03698         25.7105         12.6044 
        1.04314         25.5755         12.4375 
        1.04929         25.3081          12.274 
        1.05541         25.0803         12.1141 
        1.06154         24.9346         11.9568 
        1.06769         24.8007          11.802 
        1.07382         24.5278         11.6505 
        1.07993         24.4283          11.502 
        1.08607         24.1454         11.3556 
        1.09222          23.998         11.2115 
        1.09836         23.7225         11.0702 
        1.10449         23.6341         10.9314 
        1.11063         23.3894          10.795 
        1.11677         23.3053         10.6609 
         1.1229         23.1856         10.5293 
        1.12903         22.8988         10.3999 
        1.13518         22.6728         10.2725 
        1.14131         22.5977         10.1474 
        1.14745         22.4445         10.0245 
        1.15359         22.3009         9.90355 
        1.15973          22.106          9.7846 
        1.16584         21.8394         9.66815 
        1.17197         21.8156         9.55344 
        1.17811         21.6093         9.44026 
        1.18424         21.4337         9.32926 
        1.19038         21.3627         9.21973 
        1.19652         21.1718         9.11203 
        1.20267         20.9966         9.00605 
        1.20881          20.952          8.9018 
        1.21495          20.791         8.79938 
        1.22108         20.5897         8.69861 
         1.2272          20.425         8.59966 
        1.23334         20.2835         8.50204 
        1.23949         20.1265         8.40572 
        1.24562         20.0958         8.31117 
        1.25174         19.9512         8.21823 
        1.25789         19.8383         8.12644 
        1.26402         19.7296         8.03623 
        1.27014         19.5647         7.94762 
        1.27628         19.3491          7.8601 
        1.28244         19.2982         7.77374 
        1.28858         19.2398          7.6888 
        1.29471         19.0423         7.60534 
        1.30084          18.895          7.5232 
        1.30697         18.8303         7.44216 
        1.31312          18.633         7.36221 
        1.31925         18.5265         7.28369 
        1.32537         18.4788         7.20641 
        1.33151         18.3262         7.12998 
        1.33765         18.2203         7.05471 
        1.34378          18.124         6.98069 
        1.34992         17.9459         6.90769 
        1.35606          17.908         6.83557 
         1.3622         17.8089         6.76463 
        1.36833         17.6771         6.69486 
        1.37445         17.5992         6.62613 
        1.38059         17.5206         6.55815 
        1.38675         17.3464         6.49097 
        1.39288         17.2775         6.42501 
        1.39901         17.1243         6.35999 
        1.40515         17.0727         6.29574 
         1.4113         16.9819         6.23241 
        1.41742          16.873          6.1702 
        1.42355         16.7782         6.10872 
         1.4297         16.6716         6.04791 
        1.43585          16.631         5.98795 
        1.44198         16.5032         5.92904 
        1.44809         16.4211         5.87104 
        1.45423         16.3194         5.81361 
        1.46036         16.2525         5.75706 
        1.46649         16.1667         5.70124 
        1.47263         16.0319         5.64613 
        1.47877         15.9682         5.59177 
        1.48491          15.879         5.53805 
        1.49104         15.8133         5.48515 
        1.49718         15.7168         5.43291 
        1.50333          15.643         5.38127 
        1.50947         15.5615         5.33042 
         1.5156         15.4582          5.2803 
        1.52172         15.3735         5.23083 
        1.52787         15.2843         5.18191 
          1.534         15.2132         5.13367 
        1.54013         15.1344          5.0861 
        1.54627         15.0323         5.03905 
        1.55241          14.979         4.99259 
        1.55855         14.9213         4.94679 
        1.56467         14.8179         4.90169 
         1.5708         14.7926         4.85703 
        1.57695         14.6569         4.81286 
        1.58308         14.6042         4.76935 
        1.58922         14.5439         4.72635 
        1.59535         14.4766          4.6839 
         1.6015         14.3757         4.64191 
        1.60764         14.3078         4.60046 
        1.61376         14.2859         4.55964 
        1.61989         14.1623         4.51928 
        1.62604          14.128         4.47932 
        1.63218         14.0556         4.43987 
        1.63831         14.0033           4.401 
        1.64444         13.9144         4.36257 
        1.65059         13.8307         4.32452 
        1.65673         13.7908         4.28697 
        1.66285         13.6688         4.24996 
        1.66898         13.6435         4.21339 
        1.67512         13.5823         4.17718 
        1.68127         13.5012         4.14136 
         1.6874         13.4576         4.10605 
        1.69353         13.3902         4.07117 
        1.69967         13.3064         4.03662 
        1.70581          13.235         4.00248 
        1.71193         13.1915         3.96887 
        1.71806         13.1715         3.93558 
        1.72421         13.0576         3.90261 
        1.73035         13.0347         3.87005 
        1.73649         12.9803         3.83788 
        1.74262         12.9036         3.80609 
        1.74876         12.8537         3.77465 
        1.75489         12.8071         3.74364 
        1.76101         12.7119         3.71298 
        1.76715         12.6963         3.68262 
        1.77329         12.6236         3.65257 
        1.77943         12.5472         3.62285 
        1.78557          12.521          3.5935 
        1.79171         12.4672         3.56447 
        1.79785         12.3953         3.53576 
        1.80399         12.3387         3.50737 
        1.81012          12.292         3.47934 
        1.81625         12.2201         3.45162 
        1.82239         12.1837         3.42417 
        1.82853         12.1022         3.39703 
        1.83466         12.0736         3.37022 
        1.84078          11.988         3.34372 
        1.84692         11.9894         3.31747 
        1.85306         11.9152         3.29146 
         1.8592         11.8564         3.26578 
        1.86533          11.821         3.24039 
        1.87147         11.7653         3.21524 
        1.87761         11.7196         3.19035 
        1.88375         11.6706         3.16576 
        1.88988         11.6321         3.14145 
        1.89601         11.5778         3.11738 
        1.90215         11.5212         3.09355 
        1.90829         11.4756         3.06998 
        1.91442         11.4304         3.04666 
        1.92056         11.3918          3.0236 
         1.9267         11.3353         3.00075 
        1.93284         11.2838         2.97813 
        1.93897         11.2291         2.95579 
        1.94509         11.1932         2.93373 
        1.95123         11.1427         2.91183 
        1.95737         11.0933         2.89015 
        1.96349         11.0499         2.86874 
        1.96964         11.0057         2.84749 
        1.97578         10.9605         2.82645 
        1.98192         10.9131         2.80566 
        1.98805         10.8795         2.78508 
        1.99419         10.8353         2.76471 
        2.00033         10.8106         2.74453 
        2.00647         10.7554         2.72456 
         2.0126          10.706         2.70483 
        2.01874         10.6619         2.68526 
        2.02488         10.6181         2.66586 
        2.03101         10.5763          2.6467 
        2.03714         10.5338         2.62774 
        2.04328         10.4949         2.60895 
        2.04941         10.4574         2.59036 
        2.05554         10.4102         2.57197 
        2.06167         10.3638         2.55373 
        2.06781         10.3448         2.53566 
        2.07396         10.3069         2.51774 
        2.08009         10.2482         2.50003 
        2.08622         10.2018         2.48251 
        2.09237            10.2         2.46513 
        2.09851         10.1689         2.44791 
        2.10464         10.1112         2.43088 
        2.11077         10.0516         2.41404 
        2.11691         10.0165         2.39732 
        2.12305         9.99865         2.38075 
        2.12918         9.96862         2.36439 
        2.13531         9.91112         2.34818 
        2.14145         9.88494         2.33208 
         2.1476         9.83155         2.31612 
        2.15372         9.80465         2.30038 
        2.15985         9.79512         2.28478 
        2.16599         9.73419         2.26928 
        2.17213         9.71455         2.25394 
        2.17827         9.67857         2.23875 
         2.1844         9.63286         2.22371 
        2.19054         9.58391          2.2088 
        2.19666         9.56205         2.19405 
         2.2028         9.51817         2.17943 
        2.20893         9.50709         2.16493 
        2.21508         9.45149         2.15055 
        2.22122         9.41076         2.13629 
        2.22736         9.38873          2.1222 
        2.23349         9.36151         2.10823 
        2.23962         9.32879         2.09438 
        2.24577         9.28166         2.08065 
         2.2519         9.26257         2.06706 
        2.25802         9.22068         2.05362 
        2.26417         9.18417         2.04025 
        2.27031         9.15674         2.02699 
        2.27644         9.12432         2.01389 
        2.28257         9.09729         2.00091 
        2.28872         9.05801         1.98802 
        2.29486         9.02969         1.97524 
        2.30099         9.01038         1.96261 
        2.30712         8.98127         1.95008 
        2.31326         8.91919         1.93763 
         2.3194         8.89675         1.92531 
        2.32553         8.88405         1.91311 
        2.33166         8.84893         1.90103 
         2.3378          8.8216         1.88903 
        2.34394         8.78361         1.87713 
        2.35007         8.73588         1.86535 
        2.35619         8.71728         1.85369 
        2.36233         8.68722          1.8421 
        2.36848         8.66225         1.83059 
        2.37462         8.62736          1.8192 
        2.38075         8.60582         1.80792 
        2.38689         8.56871         1.79672 
        2.39303         8.53662         1.78563 
        2.39916         8.51714         1.77463 
        2.40529         8.48395         1.76373 
        2.41143           8.456         1.75292 
        2.41757         8.44603         1.74219 
         2.4237         8.41025         1.73157 
        2.42983         8.37811         1.72105 
        2.43598          8.3605         1.71058 
        2.44211         8.32809         1.70021 
        2.44823         8.30339         1.68996 
        2.45437         8.26654         1.67976 
        2.46052         8.22908         1.66964 
        2.46665         8.20953         1.65962 
        2.47279         8.18002         1.64969 
        2.47892         8.14827         1.63983 
        2.48507         8.13237         1.63004 
         2.4912         8.09576         1.62035 
