# k  (h/Mpc)    P(k)  (Mpc/h)^3    P_linear(k)  (Mpc/h)^3
     0.00783031         2037.22         2061.93 
       0.013688         2674.99         2676.91 
       0.019231         2834.37         2836.23 
      0.0249154          2723.2         2747.22 
      0.0312784         2490.89         2499.79 
      0.0375637         2219.64         2217.88 
      0.0433917         1971.69         1982.92 
      0.0492413          1792.3         1794.52 
      0.0555754         1626.91         1642.61 
      0.0619321         1533.82         1528.15 
       0.067871         1425.24         1436.74 
      0.0738098         1333.44         1345.67 
      0.0800417         1225.03         1242.51 
      0.0862327         1122.69         1132.84 
      0.0921407         1022.92         1027.83 
      0.0982031         920.456         927.948 
       0.104506         843.628         839.603 
       0.110769         774.174         770.537 
       0.116806         718.805         720.443 
       0.122832         685.002         682.496 
       0.129052         646.744         650.326 
       0.135211         616.344         620.064 
       0.141259         588.796         588.312 
       0.147318         556.738         553.285 
       0.153489         515.991         515.314 
       0.159709         480.888         477.202 
       0.165845         452.407         442.473 
       0.171974         419.091         412.602 
       0.178125         396.147         388.207 
       0.184229         378.709         369.066 
        0.19034         357.366         353.634 
       0.196428         348.428         340.268 
       0.202534          338.41         327.286 
       0.208729         322.469         313.447 
       0.214876          305.39         298.677 
       0.220989         294.766         283.269 
       0.227147         275.937         267.767 
        0.23329         262.578         253.168 
       0.239377          252.34         240.199 
       0.245482         237.593         228.981 
       0.251667         232.064         219.374 
       0.257832         223.886         211.184 
       0.263955         216.214         203.893 
       0.270079         209.254         196.936 
        0.27624         204.735         189.899 
       0.282372          196.89          182.69 
        0.28843         188.966         175.414 
       0.294538         181.521         168.102 
       0.300721         177.146         160.982 
        0.30691           168.9         154.348 
       0.313033         163.705         148.406 
       0.319153         156.262         143.086 
       0.325316         153.569         138.275 
        0.33145         148.363         133.877 
       0.337538         145.326         129.745 
       0.343633         140.689         125.705 
       0.349808          136.76         121.644 
       0.355968         133.186         117.602 
       0.362074         129.084         113.649 
       0.368217         125.537         109.786 
       0.374374          121.77         106.095 
       0.380519         118.693         102.642 
       0.386598         115.568         99.4619 
       0.392688         113.346         96.5029 
        0.39888         110.295         93.6839 
       0.405048         107.926         91.0178 
       0.411186         105.633         88.4634 
       0.417313         102.415          85.976 
       0.423458         100.144         83.5308 
       0.429607         97.5516         81.1383 
       0.435692         94.5008          78.834 
       0.441815         93.3861         76.5965 
       0.447964         91.9024         74.4488 
       0.454126         88.2014         72.4011 
       0.460267         86.8441         70.4631 
       0.466387         84.7415         68.6278 
        0.47254          83.562         66.8631 
       0.478662         82.2057         65.1721 
       0.484765         80.0363         63.5399 
       0.490885         78.3835         61.9499 
       0.497035          77.407         60.3936 
       0.503198         75.4543         58.8774 
       0.509342          73.609         57.4132 
       0.515458         72.3903         56.0063 
       0.521598         71.3682         54.6457 
       0.527764         70.0559         53.3312 
       0.533884         68.8601         52.0777 
           0.54         67.6152          50.872 
       0.546137         66.7031         49.7035 
       0.552299         65.7578          48.567 
       0.558452         63.8445          47.466 
       0.564573         62.9008         46.4023 
       0.570708         62.1438         45.3665 
       0.576825         60.7672         44.3631 
       0.582926         59.7231         43.3918 
       0.589034          58.284          42.449 
       0.595184         57.6373         41.5302 
       0.601379         56.8486          40.635 
       0.607522         55.6527         39.7754 
       0.613639         55.3672         38.9455 
       0.619772         53.9667         38.1379 
       0.625918         53.7665         37.3516 
       0.632068          52.917          36.587 
       0.638161         52.0058         35.8505 
         0.6443         51.0972         35.1284 
       0.650464         50.3157         34.4232 
       0.656582         49.9998         33.7424 
       0.662703         49.0371         33.0799 
       0.668861         48.3324         32.4321 
       0.675024         47.6011         31.8019 
       0.681124         46.8167         31.1956 
       0.687237         46.0879         30.6045 
       0.693381          45.756         30.0262 
       0.699536         44.7414          29.462 
       0.705665         44.7818         28.9146 
       0.711789         43.7736         28.3815 
       0.717957         43.3118         27.8583 
        0.72409            42.7         27.3512 
       0.730186         42.1198         26.8601 
       0.736317         41.8046         26.3785 
       0.742472         41.0799         25.9073 
       0.748622         40.7631         25.4483 
        0.75476         40.1454         25.0016 
       0.760888         39.6256         24.5664 
       0.767043         39.2262         24.1401 
       0.773185         38.5921         23.7248 
       0.779291         38.4301         23.3218 
       0.785407          37.992         22.9277 
       0.791564         37.3356         22.5403 
       0.797719         36.6834         22.1621 
       0.803834         36.6409         21.7952 
       0.809972         36.2686         21.4353 
       0.816124         35.4739          21.083 
       0.822261         35.3373         20.7396 
       0.828378         34.9752          20.405 
       0.834502         34.5971         20.0776 
       0.840667         34.2481         19.7554 
       0.846816         33.7292         19.4413 
       0.852925         33.4527          19.136 
       0.859047         33.0673         18.8367 
       0.865192         32.8241         18.5429 
       0.871341         32.6232         18.2553 
       0.877463          32.016         17.9751 
       0.883569         31.7106         17.7015 
       0.889708         31.3787         17.4323 
       0.895864         31.1688         17.1681 
       0.902008         30.9266           16.91 
       0.908149         30.6266         16.6574 
       0.914301         30.4769         16.4096 
       0.920448         29.8676         16.1671 
       0.926574         29.7237         15.9304 
       0.932687         29.4295         15.6991 
       0.938823         29.0675         15.4715 
       0.944975         28.8194          15.248 
       0.951105          28.621         15.0297 
       0.957225         28.3045         14.8162 
       0.963368         28.1045         14.6061 
       0.969511         27.8955         14.4001 
       0.975621         27.6893         14.1992 
       0.981748         27.3323         14.0017 
       0.987916         27.1903         13.8068 
        0.99406         26.8806         13.6163 
        1.00019         26.5505         13.4299 
        1.00632         26.5043         13.2472 
        1.01246         26.2437         13.0676 
        1.01859         25.9079         12.8917 
        1.02471         25.8468         12.7193 
        1.03085         25.6058         12.5494 
        1.03698         25.2343         12.3831 
        1.04314          25.103         12.2191 
        1.04929         24.8381         12.0585 
        1.05541          24.615         11.9015 
        1.06154          24.471         11.7469 
        1.06769         24.3409         11.5948 
        1.07382         24.0712          11.446 
        1.07993         23.9728         11.3001 
        1.08607         23.6971         11.1562 
        1.09222         23.5512         11.0147 
        1.09836         23.2814         10.8758 
        1.10449         23.1934         10.7395 
        1.11063         22.9553         10.6054 
        1.11677         22.8721         10.4737 
         1.1229         22.7537         10.3445 
        1.12903         22.4734         10.2173 
        1.13518           22.25         10.0922 
        1.14131         22.1752         9.96927 
        1.14745         22.0249         9.84848 
        1.15359         21.8839         9.72969 
        1.15973         21.6942         9.61282 
        1.16584         21.4311         9.49841 
        1.17197         21.4052         9.38572 
        1.17811         21.2065         9.27453 
        1.18424         21.0343         9.16547 
        1.19038         20.9641         9.05787 
        1.19652         20.7754         8.95206 
        1.20267         20.6025         8.84794 
        1.20881         20.5608         8.74552 
        1.21495         20.4024          8.6449 
        1.22108         20.2034         8.54589 
         1.2272         20.0434         8.44868 
        1.23334         19.9026         8.35278 
        1.23949         19.7493         8.25814 
        1.24562         19.7189         8.16525 
        1.25174         19.5764         8.07395 
        1.25789         19.4659         7.98377 
        1.26402         19.3592         7.89515 
        1.27014         19.1983          7.8081 
        1.27628         18.9856         7.72211 
        1.28244         18.9341         7.63726 
        1.28858         18.8782         7.55382 
        1.29471         18.6844         7.47182 
        1.30084         18.5391         7.39112 
        1.30697         18.4775          7.3115 
        1.31312         18.2819         7.23295 
        1.31925         18.1777         7.15582 
        1.32537           18.13         7.07989 
        1.33151         17.9819         7.00481 
        1.33765         17.8762         6.93086 
        1.34378         17.7807         6.85814 
        1.34992         17.6081         6.78642 
        1.35606         17.5698         6.71557 
         1.3622         17.4727         6.64587 
        1.36833         17.3436         6.57733 
        1.37445         17.2665          6.5098 
        1.38059         17.1899         6.44302 
        1.38675         17.0196         6.37702 
        1.39288         16.9512         6.31221 
        1.39901         16.8003         6.24834 
        1.40515           16.75         6.18522 
         1.4113         16.6617           6.123 
        1.41742          16.555         6.06187 
        1.42355         16.4605         6.00148 
         1.4297         16.3557         5.94173 
        1.43585         16.3158         5.88283 
        1.44198         16.1927         5.82495 
        1.44809         16.1101         5.76797 
        1.45423         16.0103         5.71155 
        1.46036         15.9441         5.65598 
        1.46649         15.8598         5.60115 
        1.47263         15.7278           5.547 
        1.47877         15.6652          5.4936 
        1.48491         15.5774         5.44082 
        1.49104         15.5124         5.38885 
        1.49718         15.4191         5.33753 
        1.50333         15.3462          5.2868 
        1.50947         15.2653         5.23684 
         1.5156          15.165          5.1876 
        1.52172         15.0822           5.139 
        1.52787         14.9937         5.09093 
          1.534         14.9241         5.04354 
        1.54013         14.8477          4.9968 
        1.54627         14.7465         4.95058 
        1.55241         14.6949         4.90494 
        1.55855         14.6379         4.85994 
        1.56467         14.5359         4.81563 
         1.5708         14.5112         4.77176 
        1.57695         14.3781         4.72836 
        1.58308         14.3259         4.68562 
        1.58922         14.2673         4.64337 
        1.59535         14.2014         4.60166 
         1.6015         14.1023         4.56041 
        1.60764         14.0348         4.51969 
        1.61376         14.0136         4.47958 
        1.61989         13.8935         4.43993 
        1.62604         13.8578         4.40068 
        1.63218         13.7884         4.36192 
        1.63831         13.7369         4.32373 
        1.64444         13.6505         4.28598 
        1.65059         13.5664          4.2486 
        1.65673         13.5277          4.2117 
        1.66285         13.4079         4.17535 
        1.66898         13.3829         4.13942 
        1.67512          13.323         4.10384 
        1.68127          13.244         4.06866 
         1.6874         13.2012         4.03396 
        1.69353         13.1341          3.9997 
        1.69967         13.0523         3.96575 
        1.70581         12.9826         3.93221 
        1.71193         12.9401         3.89919 
        1.71806         12.9203         3.86649 
        1.72421         12.8084         3.83409 
        1.73035         12.7858         3.80211 
        1.73649         12.7328          3.7705 
        1.74262         12.6562         3.73927 
        1.74876         12.6082         3.70838 
        1.75489         12.5628         3.67791 
        1.76101         12.4692         3.64779 
        1.76715         12.4528         3.61797 
        1.77329         12.3821         3.58844 
        1.77943         12.3072         3.55924 
        1.78557         12.2822         3.53041 
        1.79171         12.2282         3.50189 
        1.79785         12.1581         3.47368 
        1.80399         12.1018         3.44579 
        1.81012         12.0568         3.41825 
        1.81625         11.9861         3.39102 
        1.82239         11.9504         3.36405 
        1.82853         11.8714         3.33739 
        1.83466         11.8426         3.31105 
        1.84078          11.759         3.28501 
        1.84692         11.7606         3.25922 
        1.85306         11.6869         3.23367 
         1.8592         11.6292         3.20844 
        1.86533         11.5947          3.1835 
        1.87147           11.54         3.15879 
        1.87761         11.4952         3.13434 
        1.88375         11.4474         3.11017 
        1.88988          11.409         3.08629 
        1.89601          11.356         3.06265 
        1.90215         11.3011         3.03923 
        1.90829         11.2557         3.01608 
        1.91442         11.2117         2.99316 
        1.92056         11.1732         2.97051 
         1.9267         11.1178         2.94807 
        1.93284         11.0674         2.92584 
        1.93897         11.0145         2.90389 
        1.94509         10.9785         2.88222 
        1.95123         10.9286         2.86071 
        1.95737           10.88         2.83941 
        1.96349         10.8382         2.81837 
        1.96964         10.7947          2.7975 
        1.97578         10.7501         2.77682 
        1.98192          10.704          2.7564 
        1.98805          10.671         2.73618 
        1.99419         10.6277         2.71617 
        2.00033         10.6037         2.69634 
        2.00647         10.5489         2.67672 
         2.0126          10.502         2.65733 
        2.01874         10.4575         2.63811 
        2.02488         10.4154         2.61906 
        2.03101         10.3733         2.60023 
        2.03714         10.3316         2.58161 
        2.04328         10.2935         2.56314 
        2.04941         10.2566         2.54488 
        2.05554         10.2102         2.52681 
        2.06167         10.1651         2.50889 
        2.06781         10.1462         2.49114 
        2.07396         10.1095         2.47354 
        2.08009         10.0519         2.45614 
        2.08622          10.006         2.43893 
        2.09237         10.0048         2.42185 
        2.09851         9.97349         2.40493 
        2.10464         9.91709          2.3882 
        2.11077         9.85874         2.37165 
        2.11691         9.82479         2.35522 
        2.12305         9.80699         2.33895 
        2.12918         9.77732         2.32287 
        2.13531         9.72099         2.30695 
        2.14145         9.69506         2.29113 
         2.1476         9.64301         2.27545 
        2.15372         9.61645         2.25999 
        2.15985         9.60721         2.24466 
        2.16599         9.54716         2.22943 
        2.17213         9.52799         2.21436 
        2.17827         9.49299         2.19944 
         2.1844          9.4478         2.18466 
        2.19054          9.4005         2.17002 
        2.19666         9.37834         2.15553 
         2.2028         9.33555         2.14116 
        2.20893         9.32461         2.12692 
        2.21508         9.26982         2.11279 
        2.22122         9.23038         2.09878 
        2.22736         9.20837         2.08493 
        2.23349         9.18283         2.07121 
        2.23962         9.14954         2.05761 
        2.24577         9.10346         2.04412 
         2.2519         9.08548         2.03077 
        2.25802         9.04362         2.01756 
        2.26417           9.008         2.00443 
        2.27031          8.9808          1.9914 
        2.27644         8.94895         1.97853 
        2.28257         8.92248         1.96578 
        2.28872         8.88479         1.95311 
        2.29486         8.85643         1.94056 
        2.30099         8.83677         1.92815 
        2.30712         8.80838         1.91584 
        2.31326         8.74771         1.90361 
         2.3194         8.72656          1.8915 
        2.32553         8.71297         1.87952 
        2.33166         8.67919         1.86765 
         2.3378         8.65225         1.85586 
        2.34394         8.61497         1.84417 
        2.35007         8.56829          1.8326 
        2.35619         8.55056         1.82114 
        2.36233         8.52096         1.80976 
        2.36848          8.4958         1.79845 
        2.37462         8.46205         1.78726 
        2.38075         8.44135         1.77617 
        2.38689         8.40422         1.76518 
        2.39303         8.37312         1.75427 
        2.39916         8.35403         1.74347 
        2.40529         8.32095         1.73277 
        2.41143         8.29433         1.72214 
        2.41757         8.28403          1.7116 
         2.4237         8.24944         1.70117 
        2.42983         8.21672         1.69083 
        2.43598         8.20021         1.68054 
        2.44211         8.16842         1.67036 
        2.44823         8.14377         1.66029 
        2.45437         8.10765         1.65027 
        2.46052         8.07139         1.64032 
        2.46665         8.05214         1.63048 
        2.47279         8.02323         1.62072 
        2.47892         7.99224         1.61104 
        2.48507           7.977         1.60142 
         2.4912         7.94042          1.5919 
