# k  (h/Mpc)    P(k)  (Mpc/h)^3    P_linear(k)  (Mpc/h)^3
     0.00783031         1152.25         1160.59 
       0.013688         1526.97         1544.56 
       0.019231         1664.11            1673 
      0.0249154         1654.42         1655.73 
      0.0312784         1536.76         1541.27 
      0.0375637         1388.89         1395.43 
      0.0433917         1267.46         1267.34 
      0.0492413         1156.88         1160.77 
      0.0555754         1072.53         1071.87 
      0.0619321         992.024         1002.73 
       0.067871         942.177         946.426 
      0.0738098         887.072         890.066 
      0.0800417         825.331         826.374 
      0.0862327         755.702         758.738 
      0.0921407         690.665         693.737 
      0.0982031         631.238         631.412 
       0.104506         571.772         575.568 
       0.110769         528.259         531.122 
       0.116806         499.552         498.165 
       0.122832         470.673         472.613 
       0.129052         450.387         450.608 
       0.135211         431.544         429.936 
       0.141259         407.942         408.531 
       0.147318         382.113         385.225 
       0.153489         359.241         360.147 
       0.159709         336.322         335.006 
       0.165845         309.859         312.002 
       0.171974         294.966         292.044 
       0.178125         278.858         275.538 
       0.184229         263.454         262.383 
        0.19034         255.012          251.61 
       0.196428         245.426         242.189 
       0.202534         233.323         233.046 
       0.208729         226.102         223.373 
       0.214876         217.449         213.136 
       0.220989          203.62         202.516 
       0.227147         196.731         191.853 
        0.23329         187.504           181.8 
       0.239377          179.52          172.84 
       0.245482         170.869         165.048 
       0.251667         163.369         158.329 
       0.257832          159.68         152.562 
       0.263955         152.678         147.401 
       0.270079         147.769         142.463 
        0.27624         141.702         137.468 
       0.282372         137.112         132.357 
        0.28843         134.277         127.204 
       0.294538         128.492         122.028 
       0.300721         122.665         116.987 
        0.30691         119.577          112.29 
       0.313033         114.863         108.078 
       0.319153         112.546         104.304 
       0.325316         107.566         100.884 
        0.33145         104.355         97.7529 
       0.337538         101.576         94.8034 
       0.343633         98.8445         91.9124 
       0.349808         95.7616         88.9995 
       0.355968         92.8003         86.0938 
       0.362074         90.8224         83.2488 
       0.368217         88.1086         80.4671 
       0.374374         86.2602         77.8095 
       0.380519         82.5886         75.3252 
       0.386598         80.2739         73.0389 
       0.392688         78.0599         70.9134 
        0.39888         76.5464         68.8884 
       0.405048         74.7621          66.971 
       0.411186         72.8874         65.1303 
       0.417313         70.9737         63.3328 
       0.423458         68.9878         61.5612 
       0.429607         67.8413          59.824 
       0.435692         66.5702         58.1485 
       0.441815         64.1419         56.5209 
       0.447964         62.3183         54.9597 
       0.454126         61.2304         53.4724 
       0.460267         60.6358         52.0663 
       0.466387          58.915         50.7358 
        0.47254         58.0568         49.4563 
       0.478662         56.3468         48.2289 
       0.484765         55.2192         47.0421 
       0.490885         53.7238         45.8839 
       0.497035          52.866         44.7477 
       0.503198         51.6473          43.639 
       0.509342         50.3715         42.5674 
       0.515458         49.7593         41.5378 
       0.521598         48.6115         40.5423 
       0.527764         48.0016          39.581 
       0.533884         46.8532         38.6648 
           0.54         45.9576         37.7839 
       0.546137         44.6373           36.93 
       0.552299         43.9437         36.0986 
       0.558452         43.1102         35.2921 
       0.564573         42.6896         34.5121 
       0.570708         41.5887         33.7516 
       0.576825         41.0175         33.0143 
       0.582926         40.3187         32.3001 
       0.589034         39.5844         31.6066 
       0.595184         39.0779         30.9309 
       0.601379         38.0483         30.2729 
       0.607522         37.5241         29.6411 
       0.613639         36.8657         29.0311 
       0.619772         36.3248          28.437 
       0.625918         35.5916         27.8584 
       0.632068         35.3096         27.2953 
       0.638161          34.601         26.7525 
         0.6443         34.0735         26.2201 
       0.650464         33.2445         25.6999 
       0.656582         33.0702         25.1974 
       0.662703         32.7023         24.7083 
       0.668861         31.8514         24.2299 
       0.675024         31.4858         23.7646 
       0.681124         31.2891         23.3168 
       0.687237         30.6845         22.8803 
       0.693381         30.0285         22.4531 
       0.699536         29.9306         22.0362 
       0.705665         29.3872         21.6315 
       0.711789         28.8588         21.2372 
       0.717957         28.3073           20.85 
        0.72409         28.0861         20.4745 
       0.730186         27.9246         20.1107 
       0.736317         27.3798          19.754 
       0.742472         27.0429         19.4048 
       0.748622         26.6311         19.0647 
        0.75476         25.9944         18.7336 
       0.760888         25.8883         18.4111 
       0.767043         25.4659         18.0949 
       0.773185         25.2165          17.787 
       0.779291         25.0272         17.4879 
       0.785407         24.5736         17.1954 
       0.791564         24.3924         16.9077 
       0.797719         23.9083         16.6269 
       0.803834          23.784         16.3542 
       0.809972         23.3563         16.0868 
       0.816124          23.113         15.8249 
       0.822261          22.864         15.5696 
       0.828378          22.594         15.3208 
       0.834502         22.3913         15.0773 
       0.840667         22.1675         14.8376 
       0.846816         21.7101         14.6039 
       0.852925          21.614         14.3767 
       0.859047         21.3583          14.154 
       0.865192         21.0809         13.9352 
       0.871341         20.7967          13.721 
       0.877463         20.6149         13.5124 
       0.883569         20.4838         13.3086 
       0.889708         20.1588          13.108 
       0.895864         19.9225         12.9111 
       0.902008         19.6867         12.7187 
       0.908149         19.4525         12.5304 
       0.914301         19.3598         12.3456 
       0.920448         19.0706         12.1648 
       0.926574         18.9625         11.9882 
       0.932687         18.6986         11.8156 
       0.938823          18.478         11.6458 
       0.944975          18.318          11.479 
       0.951105         18.1112         11.3161 
       0.957225         18.0172         11.1567 
       0.963368         17.7746         10.9998 
       0.969511         17.5928          10.846 
       0.975621         17.4212          10.696 
       0.981748         17.1916         10.5484 
       0.987916         17.0717         10.4028 
        0.99406         16.9468         10.2604 
        1.00019          16.791         10.1211 
        1.00632         16.6401         9.98447 
        1.01246         16.4774          9.8502 
        1.01859           16.29         9.71865 
        1.02471            16.1         9.58969 
        1.03085         16.0566         9.46264 
        1.03698         15.8962         9.33819 
        1.04314         15.7252         9.21547 
        1.04929         15.5194         9.09526 
        1.05541         15.4605          8.9777 
        1.06154         15.3258         8.86195 
        1.06769         15.2468         8.74808 
        1.07382         14.9905         8.63661 
        1.07993         14.8605         8.52736 
        1.08607         14.8023         8.41956 
        1.09222         14.6193         8.31353 
        1.09836         14.5883         8.20947 
        1.10449         14.3449         8.10733 
        1.11063         14.3062         8.00683 
        1.11677         14.2067         7.90808 
         1.1229         14.0795         7.81118 
        1.12903         13.9895         7.71584 
        1.13518         13.7747         7.62202 
        1.14131         13.7059         7.52983 
        1.14745         13.5342         7.43923 
        1.15359         13.4493         7.35012 
        1.15973         13.3305         7.26245 
        1.16584         13.2362         7.17661 
        1.17197         13.1249         7.09205 
        1.17811         13.0109          7.0086 
        1.18424         12.9269         6.92675 
        1.19038         12.8507         6.84599 
        1.19652         12.7543         6.76655 
        1.20267         12.6499         6.68839 
        1.20881          12.533         6.61149 
        1.21495         12.4278         6.53593 
        1.22108         12.3824         6.46157 
         1.2272         12.2607         6.38855 
        1.23334         12.2262         6.31651 
        1.23949         12.0949         6.24542 
        1.24562         11.9975         6.17562 
        1.25174          11.932         6.10701 
        1.25789         11.7814         6.03924 
        1.26402         11.7505         5.97263 
        1.27014         11.6825         5.90719 
        1.27628         11.5404         5.84254 
        1.28244         11.5272         5.77875 
        1.28858         11.4444           5.716 
        1.29471         11.2895         5.65432 
        1.30084         11.2201         5.59362 
        1.30697         11.1959         5.53373 
        1.31312         11.0846         5.47463 
        1.31925          11.019         5.41659 
        1.32537         10.9548         5.35946 
        1.33151         10.8678         5.30295 
        1.33765         10.7842          5.2473 
        1.34378         10.7662         5.19256 
        1.34992         10.6632         5.13857 
        1.35606          10.587         5.08523 
         1.3622         10.5101         5.03276 
        1.36833         10.4452         4.98116 
        1.37445         10.3712         4.93031 
        1.38059         10.3241         4.88002 
        1.38675         10.2371         4.83031 
        1.39288         10.1653          4.7815 
        1.39901          10.096          4.7334 
        1.40515         10.0387         4.68585 
         1.4113         9.96288         4.63898 
        1.41742         9.91854         4.59293 
        1.42355         9.83433         4.54742 
         1.4297         9.79823          4.5024 
        1.43585         9.73727         4.45802 
        1.44198         9.67256          4.4144 
        1.44809         9.62749         4.37146 
        1.45423         9.54942         4.32893 
        1.46036         9.50147         4.28705 
        1.46649          9.4365         4.24571 
        1.47263         9.39299         4.20488 
        1.47877         9.32906         4.16462 
        1.48491         9.28512         4.12482 
        1.49104          9.2087         4.08563 
        1.49718         9.18128         4.04693 
        1.50333         9.11603         4.00866 
        1.50947         9.03327         3.97098 
         1.5156         9.02525         3.93383 
        1.52172         8.97202         3.89717 
        1.52787         8.91523          3.8609 
          1.534         8.86645         3.82514 
        1.54013         8.81504         3.78988 
        1.54627         8.76244         3.75499 
        1.55241         8.69571         3.72055 
        1.55855         8.68114         3.68659 
        1.56467          8.6111         3.65314 
         1.5708          8.5718         3.62002 
        1.57695         8.49966         3.58727 
        1.58308         8.45292           3.555 
        1.58922         8.42325          3.5231 
        1.59535         8.37509         3.49161 
         1.6015         8.31404         3.46046 
        1.60764          8.2895         3.42971 
        1.61376         8.25478         3.39942 
        1.61989         8.17348         3.36947 
        1.62604         8.14922         3.33982 
        1.63218         8.10733         3.31055 
        1.63831         8.07875          3.2817 
        1.64444         8.01074         3.25318 
        1.65059         7.97819         3.22494 
        1.65673          7.9447         3.19706 
        1.66285         7.90388         3.16959 
        1.66898         7.84907         3.14244 
        1.67512         7.80575         3.11556 
        1.68127         7.76182         3.08897 
         1.6874          7.7445         3.06275 
        1.69353         7.68053         3.03685 
        1.69967         7.65412         3.01119 
        1.70581         7.60171         2.98584 
        1.71193         7.58147         2.96088 
        1.71806         7.54695         2.93616 
        1.72421         7.49431         2.91167 
        1.73035         7.45712         2.88749 
        1.73649         7.42488         2.86359 
        1.74262         7.38265         2.83998 
        1.74876         7.36005         2.81662 
        1.75489         7.32421         2.79358 
        1.76101         7.27283          2.7708 
        1.76715         7.26028         2.74824 
        1.77329         7.22185         2.72591 
        1.77943         7.17027         2.70383 
        1.78557         7.14934         2.68202 
        1.79171         7.12552         2.66044 
        1.79785         7.07625         2.63911 
        1.80399         7.02272         2.61801 
        1.81012         7.00589         2.59717 
        1.81625         6.97491         2.57657 
        1.82239         6.94042         2.55616 
        1.82853         6.90381         2.53599 
        1.83466         6.86007         2.51605 
        1.84078         6.83616         2.49635 
        1.84692          6.8096         2.47683 
        1.85306         6.77881          2.4575 
         1.8592          6.7588          2.4384 
        1.86533         6.72149         2.41952 
        1.87147         6.68467         2.40082 
        1.87761         6.67296         2.38231 
        1.88375         6.63121         2.36401 
        1.88988         6.59931         2.34593 
        1.89601         6.56624         2.32803 
        1.90215         6.52188          2.3103 
        1.90829         6.52116         2.29277 
        1.91442         6.47213         2.27542 
        1.92056          6.4615         2.25826 
         1.9267         6.42226         2.24127 
        1.93284          6.4133         2.22444 
        1.93897         6.35984         2.20781 
        1.94509         6.33711         2.19139 
        1.95123          6.3131          2.1751 
        1.95737         6.28863         2.15897 
        1.96349         6.24241         2.14304 
        1.96964         6.22298         2.12722 
        1.97578         6.20418         2.11156 
        1.98192         6.16872         2.09609 
        1.98805         6.15336         2.08077 
        1.99419         6.13043          2.0656 
        2.00033         6.08085         2.05058 
        2.00647         6.07995         2.03572 
         2.0126         6.04524         2.02103 
        2.01874         6.03133         2.00646 
        2.02488         5.99437         1.99202 
        2.03101         5.95895         1.97775 
        2.03714         5.94989         1.96364 
        2.04328         5.92072         1.94964 
        2.04941         5.89768          1.9358 
        2.05554         5.87817          1.9221 
        2.06167         5.84374         1.90852 
        2.06781         5.82758         1.89506 
        2.07396         5.79555         1.88172 
        2.08009         5.78239         1.86853 
        2.08622         5.75625         1.85548 
        2.09237         5.74894         1.84254 
        2.09851          5.7027         1.82971 
        2.10464         5.68997         1.81703 
        2.11077           5.678         1.80448 
        2.11691         5.65264         1.79202 
        2.12305         5.62342         1.77969 
        2.12918          5.6059         1.76749 
        2.13531         5.57371         1.75542 
        2.14145         5.56409         1.74342 
         2.1476         5.52864         1.73153 
        2.15372         5.51799         1.71981 
        2.15985         5.49644         1.70818 
        2.16599         5.47586         1.69663 
        2.17213         5.45466          1.6852 
        2.17827         5.42375         1.67388 
         2.1844          5.4007         1.66267 
        2.19054          5.3861         1.65156 
        2.19666         5.37012         1.64057 
         2.2028         5.33349         1.62967 
        2.20893         5.32981         1.61886 
        2.21508         5.31865         1.60814 
        2.22122         5.27508         1.59752 
        2.22736         5.26932         1.58701 
        2.23349         5.24277          1.5766 
        2.23962         5.23093         1.56628 
        2.24577         5.19767         1.55604 
         2.2519         5.18533         1.54591 
        2.25802         5.16477         1.53589 
        2.26417          5.1433         1.52592 
        2.27031         5.12329         1.51604 
        2.27644         5.11109         1.50627 
        2.28257         5.08993         1.49659 
        2.28872         5.07254         1.48698 
        2.29486         5.04785         1.47745 
        2.30099          5.0282         1.46803 
        2.30712         5.01673         1.45869 
        2.31326         4.99584         1.44941 
         2.3194         4.97748         1.44021 
        2.32553           4.962         1.43112 
        2.33166         4.94789          1.4221 
         2.3378         4.92847         1.41315 
        2.34394          4.9086         1.40428 
        2.35007         4.88298          1.3955 
        2.35619         4.87533          1.3868 
        2.36233         4.85598         1.37815 
        2.36848         4.84476         1.36956 
        2.37462         4.82466         1.36107 
        2.38075         4.81179         1.35265 
        2.38689         4.79405          1.3443 
        2.39303         4.77503         1.33602 
        2.39916         4.75438         1.32782 
        2.40529         4.73996         1.31969 
        2.41143         4.73262         1.31162 
        2.41757         4.71834         1.30361 
         2.4237         4.69482         1.29569 
        2.42983         4.68634         1.28784 
        2.43598         4.66839         1.28002 
        2.44211         4.64429         1.27229 
        2.44823         4.62867         1.26464 
        2.45437         4.61283         1.25703 
        2.46052         4.60065         1.24948 
        2.46665         4.58817           1.242 
        2.47279         4.55297         1.23458 
        2.47892          4.5527         1.22723 
        2.48507         4.53693         1.21992 
         2.4912          4.5271         1.21269 
