# k  (h/Mpc)    Pcb(k)  (Mpc/h)^3    Pcb_linear(k)  (Mpc/h)^3
     0.00783031         9179.24          9214.8 
       0.013688         11992.5         12266.8 
       0.019231         13106.5         13288.3 
      0.0249154         13121.3         13151.9 
      0.0312784         12073.6         12243.1 
      0.0375637         10841.2         11084.9 
      0.0433917         9939.22         10067.5 
      0.0492413         9012.83         9220.99 
      0.0555754         8364.74         8514.85 
      0.0619321         7596.83         7965.68 
       0.067871          7259.4          7518.4 
      0.0738098          6861.1          7070.7 
      0.0800417         6373.34         6564.74 
      0.0862327         5821.57         6027.45 
      0.0921407         5333.07         5511.09 
      0.0982031            4911         5015.99 
       0.104506          4427.7         4572.36 
       0.110769         4103.94         4219.28 
       0.116806         3924.08         3957.47 
       0.122832         3681.02         3754.49 
       0.129052          3509.8         3579.68 
       0.135211         3405.35         3415.46 
       0.141259         3190.15         3245.41 
       0.147318         2971.39         3060.27 
       0.153489         2820.23         2861.05 
       0.159709         2702.38         2661.33 
       0.165845         2470.36         2478.58 
       0.171974         2403.82         2320.03 
       0.178125         2316.86         2188.91 
       0.184229         2144.26         2084.41 
        0.19034         2110.26         1998.82 
       0.196428         2051.96         1923.99 
       0.202534         1935.37         1851.35 
       0.208729          1900.9          1774.5 
       0.214876         1829.69         1693.18 
       0.220989         1730.78         1608.81 
       0.227147         1690.82         1524.11 
        0.23329         1627.76         1444.25 
       0.239377         1608.82         1373.06 
       0.245482         1533.45         1311.16 
       0.251667         1477.02         1257.79 
       0.257832            1460         1211.97 
       0.263955         1393.38         1170.97 
       0.270079         1359.05         1131.75 
        0.27624         1303.75         1092.07 
       0.282372         1286.71         1051.46 
        0.28843         1271.82         1010.52 
       0.294538         1212.26         969.404 
       0.300721         1184.86         929.364 
        0.30691         1162.86         892.048 
       0.313033         1118.39         858.586 
       0.319153          1104.6         828.601 
       0.325316         1090.12         801.439 
        0.33145         1070.35         776.562 
       0.337538         1035.05          753.13 
       0.343633         1009.62         730.165 
       0.349808         989.626         707.024 
       0.355968         972.175         683.942 
       0.362074           944.3          661.34 
       0.368217         940.413         639.243 
       0.374374         926.271         618.131 
       0.380519         894.082         598.394 
       0.386598         887.711         580.234 
       0.392688         870.017         563.346 
        0.39888         848.537         547.259 
       0.405048         835.811         532.027 
       0.411186         832.281         517.404 
       0.417313         828.332         503.126 
       0.423458         802.361         489.051 
       0.429607         781.403          475.25 
       0.435692          773.67          461.94 
       0.441815         761.066         449.011 
       0.447964         750.025         436.607 
       0.454126         740.461         424.793 
       0.460267         730.313         413.623 
       0.466387         720.758         403.052 
        0.47254          708.03         392.888 
       0.478662         697.145         383.137 
       0.484765         691.514          373.71 
       0.490885         683.827         364.508 
       0.497035          672.07         355.482 
       0.503198         671.217         346.674 
       0.509342         657.635         338.162 
       0.515458         646.042         329.983 
       0.521598         639.947         322.074 
       0.527764         628.025         314.438 
       0.533884         625.008         307.159 
           0.54         617.959         300.161 
       0.546137         608.035         293.377 
       0.552299         606.268         286.772 
       0.558452         598.724         280.366 
       0.564573         591.529         274.169 
       0.570708         587.516         268.128 
       0.576825         576.198          262.27 
       0.582926         573.087         256.596 
       0.589034         565.837         251.088 
       0.595184         560.996          245.72 
       0.601379         552.235         240.492 
       0.607522         544.464         235.473 
       0.613639         542.552         230.627 
       0.619772         539.772         225.908 
       0.625918         531.111         221.311 
       0.632068         526.399         216.838 
       0.638161          520.81         212.525 
         0.6443         516.616         208.296 
       0.650464         511.272         204.164 
       0.656582         506.775         200.172 
       0.662703         502.139         196.287 
       0.668861          496.54         192.486 
       0.675024         492.453         188.789 
       0.681124         487.175         185.232 
       0.687237         484.224         181.764 
       0.693381         478.574         178.371 
       0.699536         474.699         175.059 
       0.705665         470.302         171.844 
       0.711789         469.356         168.712 
       0.717957         461.928         165.635 
        0.72409         458.234         162.653 
       0.730186         459.665         159.762 
       0.736317         451.741         156.928 
       0.742472         446.651         154.155 
       0.748622         443.099         151.453 
        0.75476         440.922         148.823 
       0.760888         437.452          146.26 
       0.767043         434.347         143.749 
       0.773185         432.172         141.302 
       0.779291         425.519         138.927 
       0.785407             424         136.603 
       0.791564         419.779         134.317 
       0.797719         414.057         132.086 
       0.803834         416.816          129.92 
       0.809972         410.691         127.796 
       0.816124          406.66         125.715 
       0.822261          402.82         123.687 
       0.828378          402.02         121.711 
       0.834502         395.993         119.776 
       0.840667          395.78         117.872 
       0.846816         390.013         116.015 
       0.852925         389.644         114.211 
       0.859047         385.753         112.441 
       0.865192         384.881         110.704 
       0.871341          379.47         109.002 
       0.877463         375.984         107.344 
       0.883569         374.035         105.725 
       0.889708         371.169         104.132 
       0.895864         368.611         102.568 
       0.902008         366.557         101.039 
       0.908149         363.665         99.5431 
       0.914301         361.697         98.0752 
       0.920448         358.908         96.6387 
       0.926574         356.903         95.2362 
       0.932687         353.995         93.8649 
       0.938823         350.671          92.516 
       0.944975         349.033         91.1909 
       0.951105         346.379         89.8967 
       0.957225         342.311         88.6301 
       0.963368         342.365          87.384 
       0.969511         336.461          86.162 
       0.975621         336.862         84.9702 
       0.981748         334.108         83.7981 
       0.987916         332.222          82.641 
        0.99406         329.307         81.5104 
        1.00019         326.441         80.4033 
        1.00632         326.379         79.3181 
        1.01246         323.866         78.2514 
        1.01859         319.696         77.2064 
        1.02471         317.505         76.1819 
        1.03085          317.22         75.1726 
        1.03698         314.366         74.1839 
        1.04314         313.865          73.209 
        1.04929         311.044         72.2541 
        1.05541         307.811         71.3202 
        1.06154         306.468         70.4006 
        1.06769           303.2          69.496 
        1.07382         303.268         68.6105 
        1.07993         299.854         67.7426 
        1.08607         297.437         66.8862 
        1.09222         296.421         66.0439 
        1.09836          294.79         65.2172 
        1.10449         292.412         64.4058 
        1.11063         289.744         63.6074 
        1.11677         288.367         62.8229 
         1.1229         286.474         62.0532 
        1.12903         285.408         61.2957 
        1.13518         283.075         60.5505 
        1.14131         282.348         59.8181 
        1.14745         278.329         59.0983 
        1.15359         276.429         58.3904 
        1.15973         275.656         57.6939 
        1.16584         274.681          57.012 
        1.17197         272.242         56.3402 
        1.17811         269.922         55.6773 
        1.18424           268.3         55.0271 
        1.19038         266.843         54.3855 
        1.19652         264.077         53.7545 
        1.20267         263.799         53.1335 
        1.20881         261.537         52.5226 
        1.21495         260.743         51.9223 
        1.22108         258.734         51.3316 
         1.2272         256.165         50.7516 
        1.23334         255.131         50.1793 
        1.23949         254.343         49.6145 
        1.24562         252.354           49.06 
        1.25174         250.556          48.515 
        1.25789          248.49         47.9766 
        1.26402         248.233         47.4474 
        1.27014         246.591         46.9276 
        1.27628          243.76          46.414 
        1.28244         243.192         45.9072 
        1.28858         241.446         45.4087 
        1.29471         240.275         44.9187 
        1.30084         238.738         44.4365 
        1.30697         236.617         43.9607 
        1.31312         235.288         43.4913 
        1.31925         233.861         43.0302 
        1.32537         233.161         42.5763 
        1.33151           231.1         42.1274 
        1.33765         229.469         41.6853 
        1.34378         228.231         41.2504 
        1.34992         226.853         40.8215 
        1.35606         225.772         40.3978 
         1.3622         224.367          39.981 
        1.36833         222.194          39.571 
        1.37445         221.751         39.1671 
        1.38059         220.059         38.7675 
        1.38675         218.641         38.3727 
        1.39288         217.455         37.9849 
        1.39901         216.076         37.6028 
        1.40515          214.89          37.225 
         1.4113         213.361         36.8527 
        1.41742         211.559         36.4869 
        1.42355         211.992         36.1254 
         1.4297         209.651         35.7677 
        1.43585         208.329         35.4151 
        1.44198         206.476         35.0686 
        1.44809         205.508         34.7275 
        1.45423         204.864         34.3896 
        1.46036         203.346         34.0569 
        1.46649         202.216         33.7285 
        1.47263         201.189         33.4042 
        1.47877         199.991         33.0843 
        1.48491         197.961         32.7682 
        1.49104         196.291         32.4568 
        1.49718         195.674         32.1493 
        1.50333         194.534         31.8454 
        1.50947         193.609          31.546 
         1.5156         192.501         31.2509 
        1.52172         191.137         30.9597 
        1.52787         190.252         30.6715 
          1.534          189.08         30.3875 
        1.54013         188.075         30.1073 
        1.54627         187.037         29.8302 
        1.55241         185.746         29.5566 
        1.55855         184.923         29.2868 
        1.56467         183.224         29.0211 
         1.5708         182.105          28.758 
        1.57695         181.421         28.4978 
        1.58308         180.186         28.2414 
        1.58922         179.288          27.988 
        1.59535         177.849         27.7378 
         1.6015          176.55         27.4904 
        1.60764          175.91         27.2461 
        1.61376         174.574         27.0055 
        1.61989         173.667         26.7676 
        1.62604         172.408          26.532 
        1.63218         171.771         26.2995 
        1.63831         170.657         26.0703 
        1.64444         169.509         25.8437 
        1.65059         168.666         25.6193 
        1.65673         167.451         25.3979 
        1.66285         166.878         25.1797 
        1.66898         165.563          24.964 
        1.67512         164.758         24.7504 
        1.68127         163.541         24.5392 
         1.6874         162.774         24.3309 
        1.69353         161.959         24.1252 
        1.69967         160.712         23.9213 
        1.70581         160.197           23.72 
        1.71193         158.721         23.5217 
        1.71806         157.941         23.3252 
        1.72421         157.255         23.1307 
        1.73035         156.172         22.9386 
        1.73649         154.935         22.7487 
        1.74262         154.325         22.5612 
        1.74876         153.406         22.3756 
        1.75489         152.503         22.1926 
        1.76101         151.525         22.0116 
        1.76715         150.551         21.8324 
        1.77329         150.014          21.655 
        1.77943         148.581         21.4796 
        1.78557         148.212         21.3063 
        1.79171         147.228         21.1349 
        1.79785          146.22         20.9654 
        1.80399         145.462         20.7978 
        1.81012         144.159         20.6323 
        1.81625         143.954         20.4686 
        1.82239         142.786         20.3065 
        1.82853         142.391         20.1462 
        1.83466         141.191         19.9879 
        1.84078         140.449         19.8314 
        1.84692          140.12         19.6763 
        1.85306         138.779         19.5227 
         1.8592         138.112          19.371 
        1.86533         137.017          19.221 
        1.87147          136.57         19.0724 
        1.87761         135.452         18.9254 
        1.88375         134.697           18.78 
        1.88988         133.795         18.6364 
        1.89601         133.456         18.4942 
        1.90215         132.749         18.3533 
        1.90829         131.667         18.2141 
        1.91442         130.686         18.0762 
        1.92056          130.12         17.9399 
         1.9267         129.263         17.8049 
        1.93284         128.695         17.6712 
        1.93897         127.832         17.5392 
        1.94509         127.153         17.4087 
        1.95123         126.442         17.2793 
        1.95737         125.873         17.1511 
        1.96349         125.054         17.0246 
        1.96964         124.221         16.8989 
        1.97578         123.783         16.7745 
        1.98192         122.963         16.6516 
        1.98805          122.27         16.5299 
        1.99419         121.507         16.4094 
        2.00033          120.81         16.2901 
        2.00647         120.075          16.172 
         2.0126         119.471         16.0553 
        2.01874         119.044         15.9396 
        2.02488         117.977         15.8249 
        2.03101         117.576         15.7115 
        2.03714           116.7         15.5994 
        2.04328         116.083         15.4882 
        2.04941         115.478         15.3783 
        2.05554         115.153         15.2694 
        2.06167         113.992         15.1615 
        2.06781         113.332         15.0546 
        2.07396         112.992         14.9487 
        2.08009         112.248         14.8439 
        2.08622         111.524         14.7402 
        2.09237         110.929         14.6373 
        2.09851         110.437         14.5355 
        2.10464         109.758         14.4347 
        2.11077         109.031          14.335 
        2.11691         108.567         14.2361 
        2.12305         107.832         14.1381 
        2.12918         107.366         14.0412 
        2.13531         106.907         13.9453 
        2.14145         105.958           13.85 
         2.1476         105.379         13.7555 
        2.15372         104.918         13.6624 
        2.15985         104.301           13.57 
        2.16599         103.609         13.4783 
        2.17213          103.21         13.3874 
        2.17827         102.459         13.2975 
         2.1844         102.056         13.2085 
        2.19054         101.469         13.1202 
        2.19666         100.682         13.0329 
         2.2028          100.34         12.9463 
        2.20893         99.7509         12.8605 
        2.21508         99.0482         12.7753 
        2.22122         98.7147         12.6909 
        2.22736         98.2044         12.6074 
        2.23349         97.5837         12.5247 
        2.23962         97.0833         12.4427 
        2.24577         96.5289         12.3614 
         2.2519         95.8483         12.2809 
        2.25802         95.3664         12.2013 
        2.26417         94.9115         12.1221 
        2.27031         94.2555         12.0436 
        2.27644         93.9248          11.966 
        2.28257         93.3937         11.8891 
        2.28872         92.8792         11.8128 
        2.29486         92.5161         11.7371 
        2.30099         91.6856         11.6622 
        2.30712         91.4945          11.588 
        2.31326         90.9516         11.5143 
         2.3194         90.2366         11.4412 
        2.32553         89.8068          11.369 
        2.33166         89.3145         11.2974 
         2.3378         89.0532         11.2263 
        2.34394         88.4801         11.1558 
        2.35007         87.7678          11.086 
        2.35619         87.2992         11.0169 
        2.36233         86.9614         10.9482 
        2.36848          86.407           10.88 
        2.37462         85.9033         10.8125 
        2.38075         85.5896         10.7456 
        2.38689         85.1967         10.6793 
        2.39303         84.7505         10.6135 
        2.39916         84.3448         10.5484 
        2.40529           83.68         10.4838 
        2.41143         83.3376         10.4197 
        2.41757         82.8899         10.3561 
         2.4237         82.4057         10.2931 
        2.42983         81.9389         10.2307 
        2.43598         81.6988         10.1687 
        2.44211         80.9545         10.1072 
        2.44823         80.6552         10.0464 
        2.45437         80.3599         9.98599 
        2.46052         79.8506         9.92599 
        2.46665           79.36         9.86659 
        2.47279         78.9367         9.80769 
        2.47892         78.4189         9.74924 
        2.48507         78.1026         9.69121 
         2.4912         77.6944         9.63377 
