# k  (h/Mpc)    P(k)  (Mpc/h)^3    P_linear(k)  (Mpc/h)^3
     0.00783031           14341         14609.9 
       0.013688         18361.7         18251.7 
       0.019231         18647.8         18659.7 
      0.0249154         17023.1         17420.6 
      0.0312784         15014.5         15221.4 
      0.0375637           12984         13024.2 
      0.0433917         11103.3           11338 
      0.0492413         9980.63         10079.1 
      0.0555754          8827.6         9135.68 
      0.0619321         8452.23         8467.91 
       0.067871         7688.19         7941.91 
      0.0738098         7160.25         7400.49 
      0.0800417         6463.57         6764.11 
      0.0862327         5889.49          6077.3 
      0.0921407         5362.26         5424.85 
      0.0982031         4754.54         4820.11 
       0.104506         4404.74         4307.22 
       0.110769          4030.3         3928.77 
       0.116806         3764.51         3672.41 
       0.122832         3582.48         3489.48 
       0.129052         3342.24         3335.83 
       0.135211         3193.63         3182.21 
       0.141259         3072.35         3008.42 
       0.147318         2903.92         2807.93 
       0.153489         2662.78         2588.13 
       0.159709         2507.91         2370.65 
       0.165845         2394.43         2178.86 
       0.171974         2245.69         2021.41 
       0.178125         2128.45         1899.98 
       0.184229         2032.92          1810.1 
        0.19034         1923.47         1740.08 
       0.196428         1890.99         1678.28 
       0.202534         1825.58         1614.28 
       0.208729         1746.74         1541.48 
       0.214876         1674.46         1460.91 
       0.220989         1617.54          1376.3 
       0.227147         1544.83         1292.47 
        0.23329         1480.77         1215.89 
       0.239377         1454.09         1150.54 
       0.245482         1361.93         1096.42 
       0.251667         1354.13         1051.77 
       0.257832         1301.78         1014.31 
       0.263955          1260.5         980.388 
       0.270079         1218.06         946.651 
        0.27624         1205.77         911.032 
       0.282372         1155.54          873.54 
        0.28843          1146.1         835.455 
       0.294538         1089.09          797.56 
       0.300721         1083.04         761.466 
        0.30691          1039.5         728.783 
       0.313033         1019.39         700.352 
       0.319153         1000.08         675.461 
       0.325316         968.015         653.144 
        0.33145         946.132         632.562 
       0.337538         930.798         612.807 
       0.343633         908.665         593.004 
       0.349808         878.271         572.745 
       0.355968         872.657         552.434 
       0.362074         863.119         532.658 
       0.368217         836.833         513.579 
       0.374374         804.633         495.656 
       0.380519          804.97          479.19 
       0.386598         783.266         464.222 
       0.392688         780.933         450.384 
        0.39888         757.866          437.17 
       0.405048          747.64         424.545 
       0.411186         736.954         412.303 
       0.417313         721.686         400.252 
       0.423458         709.649         388.343 
       0.429607         699.664           376.7 
       0.435692         684.799         365.551 
       0.441815         679.398         354.819 
       0.447964         665.322         344.624 
       0.454126         657.194          334.98 
       0.460267          642.46         325.894 
       0.466387          635.27         317.293 
        0.47254         628.645         308.998 
       0.478662         624.195         301.004 
       0.484765         605.303         293.248 
       0.490885         601.377         285.669 
       0.497035         589.144         278.246 
       0.503198         584.818         271.028 
       0.509342         579.287         264.086 
       0.515458          575.23         257.452 
       0.521598         561.171         251.065 
       0.527764         551.032         244.912 
       0.533884         549.507         239.052 
           0.54         542.961         233.414 
       0.546137         539.785         227.943 
       0.552299         531.088         222.609 
       0.558452         527.892         217.431 
       0.564573         520.709         212.427 
       0.570708         514.424         207.558 
       0.576825         500.967         202.851 
       0.582926          502.14         198.304 
       0.589034         497.639           193.9 
       0.595184         493.249         189.616 
       0.601379         486.197         185.448 
       0.607522         479.381          181.45 
       0.613639         479.108         177.589 
       0.619772         468.213         173.829 
       0.625918         466.369         170.166 
       0.632068         459.694         166.603 
       0.638161         458.093         163.172 
         0.6443         450.015         159.812 
       0.650464         447.587         156.535 
       0.656582         444.656         153.374 
       0.662703         442.835         150.302 
       0.668861         435.149         147.299 
       0.675024         431.766          144.38 
       0.681124         428.662         141.573 
       0.687237         424.914         138.837 
       0.693381         419.251         136.161 
       0.699536         413.623         133.552 
       0.705665         412.312         131.021 
       0.711789         409.951         128.557 
       0.717957         406.432          126.14 
        0.72409         403.658         123.798 
       0.730186         398.474          121.53 
       0.736317         395.301         119.309 
       0.742472         393.499         117.136 
       0.748622         389.206         115.021 
        0.75476         384.475         112.964 
       0.760888         380.563         110.962 
       0.767043         381.251             109 
       0.773185          376.63          107.09 
       0.779291          371.95         105.238 
       0.785407         370.422         103.426 
       0.791564          365.95         101.646 
       0.797719         363.654         99.9092 
       0.803834         360.274         98.2244 
       0.809972         359.306         96.5729 
       0.816124         358.619         94.9564 
       0.822261         353.473         93.3818 
       0.828378         351.429         91.8482 
       0.834502         348.082         90.3483 
       0.840667         345.138         88.8726 
       0.846816         343.681         87.4344 
       0.852925         341.159         86.0375 
       0.859047         339.272         84.6685 
       0.865192         335.311          83.325 
       0.871341         332.783           82.01 
       0.877463         331.805         80.7297 
       0.883569         329.516         79.4801 
       0.889708         326.582         78.2508 
       0.895864         324.268         77.0446 
       0.902008         321.994         75.8665 
       0.908149          319.49          74.714 
       0.914301         316.473         73.5838 
       0.920448          314.69         72.4783 
       0.926574         310.947         71.3995 
       0.932687          311.28         70.3452 
       0.938823          307.77         69.3086 
       0.944975         307.213         68.2907 
       0.951105         304.345          67.297 
       0.957225         302.331         66.3251 
       0.963368         298.789         65.3692 
       0.969511         297.578         64.4324 
       0.975621         295.308         63.5191 
       0.981748         294.734         62.6213 
       0.987916         292.634         61.7354 
        0.99406          288.13         60.8702 
        1.00019           287.8         60.0234 
        1.00632         286.245         59.1937 
        1.01246         283.773         58.3786 
        1.01859         284.351         57.5803 
        1.02471         279.707         56.7981 
        1.03085         278.194         56.0278 
        1.03698         277.268         55.2737 
        1.04314         274.415         54.5303 
        1.04929          272.43         53.8025 
        1.05541         273.113          53.091 
        1.06154         268.567         52.3907 
        1.06769         268.148         51.7022 
        1.07382         266.258         51.0284 
        1.07993         264.504         50.3682 
        1.08607          263.71         49.7171 
        1.09222         261.413          49.077 
        1.09836         259.617         48.4489 
        1.10449         257.104         47.8327 
        1.11063         254.931         47.2266 
        1.11677         254.729         46.6313 
         1.1229         252.821         46.0473 
        1.12903         251.309         45.4729 
        1.13518         249.461         44.9079 
        1.14131         247.718         44.3529 
        1.14745         247.283         43.8076 
        1.15359         245.085         43.2715 
        1.15973         243.516         42.7442 
        1.16584          241.73         42.2281 
        1.17197         241.775         41.7199 
        1.17811         238.801         41.2185 
        1.18424         237.482         40.7269 
        1.19038         236.773         40.2419 
        1.19652         234.829          39.765 
        1.20267         234.237          39.296 
        1.20881         232.291         38.8347 
        1.21495         230.768         38.3815 
        1.22108          229.47         37.9357 
         1.2272         227.904         37.4981 
        1.23334         226.852         37.0664 
        1.23949         225.288         36.6406 
        1.24562         224.342         36.2227 
        1.25174         222.614          35.812 
        1.25789         221.056         35.4065 
        1.26402          219.35          35.008 
        1.27014         218.124         34.6167 
        1.27628           217.1         34.2302 
        1.28244         216.932         33.8489 
        1.28858         214.442          33.474 
        1.29471         212.912         33.1057 
        1.30084         212.066         32.7433 
        1.30697         210.591         32.3858 
        1.31312         208.748         32.0332 
        1.31925         208.294          31.687 
        1.32537         207.381         31.3462 
        1.33151          205.34         31.0093 
        1.33765          204.07         30.6776 
        1.34378         203.395         30.3514 
        1.34992          202.31         30.0298 
        1.35606         202.225         29.7122 
         1.3622          200.13         29.3997 
        1.36833         198.223         29.0926 
        1.37445         197.597         28.7899 
        1.38059         195.931         28.4907 
        1.38675          195.27         28.1951 
        1.39288         194.099         27.9048 
        1.39901         193.701         27.6188 
        1.40515         191.706         27.3362 
         1.4113         190.799         27.0576 
        1.41742         189.431          26.784 
        1.42355         188.457         26.5137 
         1.4297         187.019         26.2464 
        1.43585         186.257         25.9828 
        1.44198         185.249          25.724 
        1.44809         184.405         25.4691 
        1.45423         183.311         25.2168 
        1.46036         182.179         24.9684 
        1.46649          180.87         24.7232 
        1.47263         179.715         24.4812 
        1.47877         178.758         24.2425 
        1.48491         177.235         24.0067 
        1.49104         176.931         23.7745 
        1.49718         175.172         23.5452 
        1.50333         174.574         23.3187 
        1.50947         173.732         23.0955 
         1.5156         172.334         22.8757 
        1.52172         171.683         22.6587 
        1.52787         170.103         22.4441 
          1.534         169.818         22.2326 
        1.54013         168.534         22.0241 
        1.54627         167.632         21.8178 
        1.55241         166.479         21.6142 
        1.55855         165.521         21.4135 
        1.56467         164.402         21.2159 
         1.5708         163.747         21.0203 
        1.57695         162.855         20.8268 
        1.58308         162.048         20.6362 
        1.58922         160.994         20.4479 
        1.59535         159.732         20.2621 
         1.6015         159.361         20.0782 
        1.60764         158.243         19.8968 
        1.61376         157.237         19.7181 
        1.61989          156.46         19.5415 
        1.62604         155.393         19.3667 
        1.63218         154.811         19.1941 
        1.63831         153.683          19.024 
        1.64444         153.059          18.856 
        1.65059         152.005         18.6896 
        1.65673         150.855         18.5253 
        1.66285         150.447         18.3636 
        1.66898         149.254         18.2037 
        1.67512         149.116         18.0454 
        1.68127         147.546         17.8889 
         1.6874         146.619         17.7345 
        1.69353         146.199         17.5821 
        1.69967         145.173         17.4312 
        1.70581         144.435         17.2821 
        1.71193         143.513         17.1353 
        1.71806         142.955         16.9899 
        1.72421         141.993         16.8459 
        1.73035         141.734         16.7037 
        1.73649         140.707         16.5633 
        1.74262         139.653         16.4245 
        1.74876         139.053         16.2873 
        1.75489         138.095         16.1519 
        1.76101         137.192         16.0181 
        1.76715         136.765         15.8857 
        1.77329         136.249         15.7546 
        1.77943         135.132         15.6249 
        1.78557         134.565         15.4969 
        1.79171         133.774         15.3703 
        1.79785         132.909         15.2451 
        1.80399         132.126         15.1214 
        1.81012         131.468         14.9991 
        1.81625         130.895         14.8783 
        1.82239         130.268         14.7587 
        1.82853         129.512         14.6404 
        1.83466         128.622         14.5235 
        1.84078         128.165         14.4081 
        1.84692         126.924         14.2937 
        1.85306         126.841         14.1804 
         1.8592          125.89         14.0686 
        1.86533         124.958          13.958 
        1.87147         124.255         13.8485 
        1.87761         123.691         13.7401 
        1.88375         122.739          13.633 
        1.88988         122.278         13.5271 
        1.89601         121.546         13.4224 
        1.90215         120.912         13.3186 
        1.90829         120.345         13.2161 
        1.91442         119.679         13.1146 
        1.92056          118.94         13.0142 
         1.9267         118.535         12.9148 
        1.93284          117.82         12.8164 
        1.93897         116.992         12.7193 
        1.94509         116.559         12.6233 
        1.95123         115.934         12.5281 
        1.95737         115.383         12.4338 
        1.96349         114.724         12.3407 
        1.96964         113.722         12.2483 
        1.97578         113.095         12.1568 
        1.98192         112.887         12.0665 
        1.98805          111.98          11.977 
        1.99419         111.598         11.8885 
        2.00033         110.776         11.8008 
        2.00647         110.423          11.714 
         2.0126         109.485         11.6283 
        2.01874         108.996         11.5432 
        2.02488         108.584          11.459 
        2.03101         107.736         11.3757 
        2.03714          107.19         11.2934 
        2.04328         106.728         11.2118 
        2.04941         106.123         11.1311 
        2.05554         105.408         11.0512 
        2.06167         105.121          10.972 
        2.06781          104.38         10.8936 
        2.07396         103.802         10.8158 
        2.08009          103.35         10.7389 
        2.08622         102.742         10.6629 
        2.09237         102.072         10.5875 
        2.09851         101.669         10.5127 
        2.10464         101.176         10.4389 
        2.11077          100.66         10.3658 
        2.11691         100.199         10.2933 
        2.12305         99.3197         10.2214 
        2.12918         98.8093         10.1504 
        2.13531         98.4433         10.0801 
        2.14145         97.6973         10.0103 
         2.1476         97.1307         9.94109 
        2.15372         96.8333         9.87287 
        2.15985         96.4146         9.80523 
        2.16599         95.7231         9.73803 
        2.17213          95.228         9.67153 
        2.17827         94.8487         9.60568 
         2.1844          94.088         9.54049 
        2.19054         93.8329          9.4759 
        2.19666         93.3741         9.41199 
         2.2028         92.7571         9.34862 
        2.20893         92.3263         9.28581 
        2.21508         91.7596          9.2235 
        2.22122         91.2795         9.16175 
        2.22736         90.8877         9.10069 
        2.23349         90.4722         9.04021 
        2.23962         89.8625         8.98025 
        2.24577         89.5167         8.92078 
         2.2519         89.1537         8.86193 
        2.25802         88.3643         8.80371 
        2.26417         88.0399         8.74586 
        2.27031         87.5932         8.68847 
        2.27644         87.0679         8.63176 
        2.28257         86.5531         8.57557 
        2.28872         86.2699         8.51977 
        2.29486         85.6448         8.46448 
        2.30099         85.2266          8.4098 
        2.30712           84.89         8.35558 
        2.31326         84.3555         8.30175 
         2.3194         83.8748         8.24842 
        2.32553         83.5698         8.19565 
        2.33166         83.1007         8.14337 
         2.3378         82.5526         8.09148 
        2.34394         82.1889         8.04002 
        2.35007         81.7455         7.98909 
        2.35619         81.4421         7.93866 
        2.36233         80.8864         7.88855 
        2.36848         80.4357         7.83877 
        2.37462         80.0105         7.78952 
        2.38075         79.6989         7.74075 
        2.38689         79.2164         7.69236 
        2.39303          78.696         7.64439 
        2.39916         78.4274         7.59688 
        2.40529         78.1309         7.54978 
        2.41143         77.5271         7.50304 
        2.41757         77.2722         7.45668 
         2.4237         76.9322          7.4108 
        2.42983         76.4013         7.36532 
        2.43598         76.0021         7.32009 
        2.44211         75.8053         7.27532 
        2.44823         75.3208         7.23103 
        2.45437         74.7406         7.18698 
        2.46052         74.4203         7.14327 
        2.46665         74.1917         7.09999 
        2.47279          73.713          7.0571 
        2.47892         73.3946         7.01452 
        2.48507         72.9105         6.97226 
         2.4912         72.6215         6.93044 
