# k  (h/Mpc)    Pcb(k)  (Mpc/h)^3    Pcb_linear(k)  (Mpc/h)^3
     0.00783031         7985.03         8085.62 
       0.013688          9521.2            9470 
       0.019231         9216.36         9193.25 
      0.0249154         8060.53          8163.3 
      0.0312784         6737.42         6763.91 
      0.0375637         5551.93         5526.83 
      0.0433917         4627.95         4655.59 
      0.0492413         4057.87         4052.28 
      0.0555754         3583.21          3633.3 
      0.0619321          3385.5         3353.67 
       0.067871         3097.74         3132.49 
      0.0738098         2861.56         2894.01 
      0.0800417         2559.47         2604.49 
      0.0862327         2276.74         2291.79 
      0.0921407         2015.49         2001.64 
      0.0982031         1749.48         1743.29 
       0.104506         1582.75         1536.18 
       0.110769         1437.17         1394.16 
       0.116806         1337.85         1305.72 
       0.122832         1281.46         1246.46 
       0.129052         1206.54         1195.11 
       0.135211          1149.9         1137.63 
       0.141259         1092.99         1066.92 
       0.147318         1017.46         983.127 
       0.153489         921.795          892.37 
       0.159709         848.925         805.787 
       0.165845          791.03         733.356 
       0.171974         731.769         677.696 
       0.178125         693.404         637.909 
       0.184229         664.319         610.401 
        0.19034         625.342         589.237 
       0.196428         614.689          569.04 
       0.202534         595.869         545.746 
       0.208729         563.426         517.467 
       0.214876         530.043         485.716 
       0.220989         505.699         453.013 
       0.227147         474.478         421.865 
        0.23329         449.853         394.841 
       0.239377         434.903         373.088 
       0.245482         405.143         356.058 
       0.251667         399.921         342.481 
       0.257832         386.482         330.956 
       0.263955         373.267         319.892 
       0.270079          358.78         308.072 
        0.27624         352.274         295.029 
       0.282372         337.789         281.143 
        0.28843         324.738         267.235 
       0.294538         308.705         253.835 
       0.300721         303.745          241.57 
        0.30691         288.882         230.948 
       0.313033         281.672         222.009 
       0.319153         270.431         214.326 
       0.325316         263.839         207.353 
        0.33145         254.829         200.713 
       0.337538         250.694         194.067 
       0.343633         241.943         187.221 
       0.349808         233.827         180.132 
       0.355968         229.545         173.085 
       0.362074         223.291          166.36 
       0.368217          216.73         160.037 
       0.374374         208.949         154.269 
       0.380519         205.401         149.068 
       0.386598         199.898         144.396 
       0.392688         196.881         140.055 
        0.39888         191.636         135.837 
       0.405048         186.816         131.732 
       0.411186         182.588         127.677 
       0.417313         178.555         123.653 
       0.423458         174.606         119.691 
       0.429607         170.463         115.852 
       0.435692         165.115          112.23 
       0.441815         163.641         108.805 
       0.447964          160.44         105.587 
       0.454126         153.649         102.562 
       0.460267         151.777         99.7157 
       0.466387         149.607         97.0039 
        0.47254         146.253         94.3597 
       0.478662         145.084         91.7923 
       0.484765         140.385         89.2922 
       0.490885         138.164         86.8455 
       0.497035         136.205         84.4582 
       0.503198         132.526         82.1566 
       0.509342         130.371         79.9635 
       0.515458         128.407         77.8801 
       0.521598         126.214          75.882 
       0.527764          124.44         73.9627 
       0.533884         122.497         72.1328 
           0.54         120.187         70.3657 
       0.546137         119.096         68.6428 
       0.552299         116.968         66.9591 
       0.558452         114.734         65.3266 
       0.564573         112.758         63.7516 
       0.570708         110.839         62.2235 
       0.576825          109.46         60.7511 
       0.582926         107.241         59.3342 
       0.589034         105.694         57.9673 
       0.595184         104.293         56.6408 
       0.601379         102.883         55.3505 
       0.607522         100.588         54.1112 
       0.613639         100.123         52.9128 
       0.619772         97.9776         51.7451 
       0.625918         96.7912         50.6082 
       0.632068         95.6801         49.5037 
       0.638161         94.6392         48.4418 
         0.6443         93.3798         47.4035 
       0.650464          92.282         46.3925 
       0.656582         90.8254          45.419 
       0.662703         89.3629         44.4742 
       0.668861          88.117          43.552 
       0.675024         87.1538         42.6562 
       0.681124         86.2529         41.7952 
       0.687237         84.6061         40.9563 
       0.693381         83.5802         40.1363 
       0.699536         82.7205         39.3366 
       0.705665         82.8401         38.5616 
       0.711789         80.6853         37.8078 
       0.717957         80.2386          37.069 
        0.72409         79.0049         36.3543 
       0.730186         77.7236         35.6631 
       0.736317          77.443         34.9867 
       0.742472         76.6293         34.3258 
       0.748622          75.758         33.6828 
        0.75476         74.9799         33.0579 
       0.760888         73.8694         32.4499 
       0.767043         73.2592         31.8547 
       0.773185         72.3749         31.2755 
       0.779291         71.6357          30.714 
       0.785407           71.07         30.1655 
       0.791564          70.343         29.6269 
       0.797719         69.1395         29.1017 
       0.803834         68.8329         28.5928 
       0.809972         67.7137         28.0943 
       0.816124         67.3171         27.6067 
       0.822261         66.7421         27.1321 
       0.828378         66.2198         26.6702 
       0.834502         65.5471         26.2188 
       0.840667         64.8266         25.7749 
       0.846816         63.9651         25.3426 
       0.852925         63.5013          24.923 
       0.859047         62.6462         24.5121 
       0.865192         62.2776         24.1091 
       0.871341         61.8968         23.7148 
       0.877463         60.8766         23.3312 
       0.883569         60.5017         22.9571 
       0.889708         60.0844         22.5893 
       0.895864          59.592         22.2286 
       0.902008         59.0058         21.8766 
       0.908149         58.6005         21.5324 
       0.914301           58.04         21.1951 
       0.920448         57.5916         20.8653 
       0.926574         56.9808         20.5437 
       0.932687          56.792         20.2296 
       0.938823         55.8669          19.921 
       0.944975         55.5205         19.6181 
       0.951105         55.0458         19.3226 
       0.957225         54.3918         19.0338 
       0.963368         54.2853         18.7498 
       0.969511         53.9062         18.4717 
       0.975621         53.5291         18.2007 
       0.981748         52.9227         17.9345 
       0.987916         52.5054          17.672 
        0.99406         52.1791         17.4157 
        1.00019          51.646          17.165 
        1.00632         51.3502         16.9195 
        1.01246          50.954         16.6785 
        1.01859         50.2642         16.4426 
        1.02471         50.2668         16.2115 
        1.03085         49.7762         15.9841 
        1.03698         49.3747         15.7616 
        1.04314         48.9447         15.5423 
        1.04929         48.6034         15.3278 
        1.05541         48.1147         15.1182 
        1.06154         48.0977          14.912 
        1.06769         47.6342         14.7093 
        1.07382         47.3929         14.5111 
        1.07993         47.0886          14.317 
        1.08607         46.6699         14.1257 
        1.09222         46.4183         13.9376 
        1.09836         46.0523         13.7533 
        1.10449          45.745         13.5724 
        1.11063         45.2895         13.3947 
        1.11677         45.0291         13.2201 
         1.1229         44.7279          13.049 
        1.12903         44.1476         12.8808 
        1.13518          44.343         12.7154 
        1.14131         43.9976          12.553 
        1.14745         43.4337         12.3935 
        1.15359         43.3702         12.2368 
        1.15973         42.8757         12.0827 
        1.16584         42.6627          11.932 
        1.17197         42.4115         11.7836 
        1.17811         42.2107         11.6373 
        1.18424         41.7897         11.4939 
        1.19038         41.5824         11.3525 
        1.19652          41.468         11.2135 
        1.20267         41.0883         11.0769 
        1.20881         40.8486         10.9426 
        1.21495         40.5066         10.8107 
        1.22108         40.3376          10.681 
         1.2272         39.8954         10.5538 
        1.23334         39.7711         10.4283 
        1.23949         39.7264         10.3046 
        1.24562         39.2797         10.1832 
        1.25174         39.1718          10.064 
        1.25789         38.9588         9.94631 
        1.26402         38.6099         9.83073 
        1.27014         38.2864         9.71727 
        1.27628           38.14         9.60526 
        1.28244         37.9081         9.49481 
        1.28858         37.7422         9.38624 
        1.29471         37.5984         9.27962 
        1.30084         37.3792         9.17476 
        1.30697         37.1084         9.07136 
        1.31312         36.8158         8.96941 
        1.31925          36.699         8.86935 
        1.32537         36.5232         8.77091 
        1.33151         36.1924         8.67362 
        1.33765         36.1254         8.57786 
        1.34378         35.8865         8.48374 
        1.34992         35.6066         8.39096 
        1.35606         35.4204         8.29938 
         1.3622         35.2345         8.20932 
        1.36833         35.0087         8.12081 
        1.37445         34.9451         8.03364 
        1.38059         34.6998         7.94749 
        1.38675         34.4029          7.8624 
        1.39288         34.3722         7.77889 
        1.39901         34.0921         7.69663 
        1.40515         33.9199         7.61537 
         1.4113         33.8009         7.53532 
        1.41742         33.5558         7.45672 
        1.42355         33.3859          7.3791 
         1.4297         33.2225         7.30234 
        1.43585         33.1228         7.22671 
        1.44198         32.8218         7.15244 
        1.44809         32.7306         7.07936 
        1.45423         32.5592         7.00702 
        1.46036         32.4674         6.93583 
        1.46649         32.2171          6.8656 
        1.47263         32.0461         6.79628 
        1.47877         31.9524         6.72795 
        1.48491         31.8856         6.66046 
        1.49104         31.5912         6.59403 
        1.49718         31.2871         6.52846 
        1.50333         31.2928         6.46368 
        1.50947          31.164          6.3999 
         1.5156         30.9601         6.33709 
        1.52172         30.8142         6.27512 
        1.52787         30.7538         6.21385 
          1.534         30.5425         6.15347 
        1.54013         30.3251         6.09396 
        1.54627         30.2543         6.03513 
        1.55241         30.0006         5.97706 
        1.55855         29.9349         5.91984 
        1.56467         29.6685         5.86353 
         1.5708          29.717         5.80779 
        1.57695         29.4396         5.75269 
        1.58308         29.3577         5.69843 
        1.58922         29.2891         5.64484 
        1.59535          29.108         5.59195 
         1.6015         28.8909         5.53966 
        1.60764         28.7713         5.48807 
        1.61376         28.6064         5.43728 
        1.61989         28.4437         5.38709 
        1.62604         28.4088         5.33741 
        1.63218         28.2915          5.2884 
        1.63831         28.1177         5.24011 
        1.64444         28.0043         5.19241 
        1.65059         27.8229         5.14519 
        1.65673         27.6652         5.09861 
        1.66285         27.5929         5.05273 
        1.66898         27.4391          5.0074 
        1.67512         27.3568         4.96254 
        1.68127         27.1674         4.91819 
         1.6874          27.066         4.87447 
        1.69353         26.9597         4.83132 
        1.69967         26.8069         4.78858 
        1.70581         26.7262         4.74637 
        1.71193         26.6346         4.70484 
        1.71806         26.4291         4.66371 
        1.72421         26.3036         4.62299 
        1.73035         26.1801         4.58281 
        1.73649         26.1008          4.5431 
        1.74262         25.9657         4.50391 
        1.74876         25.9459         4.46514 
        1.75489         25.7782         4.42691 
        1.76101         25.6345         4.38914 
        1.76715         25.5625         4.35176 
        1.77329         25.4771         4.31477 
        1.77943         25.3395         4.27819 
        1.78557         25.1744         4.24209 
        1.79171         25.0923          4.2064 
        1.79785         24.9657         4.17112 
        1.80399         24.8993         4.13624 
        1.81012         24.7818         4.10181 
        1.81625         24.6792         4.06778 
        1.82239         24.5977          4.0341 
        1.82853         24.4278          4.0008 
        1.83466         24.3544         3.96792 
        1.84078           24.17         3.93544 
        1.84692         24.1138         3.90327 
        1.85306          24.016         3.87141 
         1.8592         23.8916         3.83997 
        1.86533         23.7902         3.80889 
        1.87147         23.7095         3.77812 
        1.87761         23.6505         3.74767 
        1.88375         23.5695          3.7176 
        1.88988         23.4463         3.68789 
        1.89601         23.3006         3.65848 
        1.90215          23.239         3.62937 
        1.90829         23.2044          3.6006 
        1.91442         23.0359         3.57213 
        1.92056         22.9759         3.54399 
         1.9267         22.8349         3.51613 
        1.93284         22.7023         3.48855 
        1.93897         22.6776         3.46132 
        1.94509         22.5591         3.43444 
        1.95123         22.4786         3.40777 
        1.95737         22.3499         3.38137 
        1.96349         22.2864         3.35532 
        1.96964         22.1818         3.32946 
        1.97578         22.0994         3.30386 
        1.98192         21.9916         3.27859 
        1.98805         21.9437         3.25357 
        1.99419         21.8268         3.22881 
        2.00033         21.6881          3.2043 
        2.00647         21.6367         3.18005 
         2.0126         21.5559          3.1561 
        2.01874         21.4678         3.13235 
        2.02488         21.4251         3.10882 
        2.03101         21.2779         3.08558 
        2.03714          21.214          3.0626 
        2.04328         21.1087         3.03982 
        2.04941         21.0351          3.0173 
        2.05554         20.9681         2.99502 
        2.06167         20.8904         2.97293 
        2.06781         20.7934         2.95107 
        2.07396         20.7517         2.92939 
        2.08009         20.6803         2.90797 
        2.08622         20.5096         2.88678 
        2.09237         20.4601         2.86576 
        2.09851         20.3951         2.84495 
        2.10464         20.3327         2.82438 
        2.11077         20.1987         2.80404 
        2.11691         20.1466         2.78385 
        2.12305          20.085         2.76386 
        2.12918         20.0305         2.74411 
        2.13531         19.9227         2.72456 
        2.14145         19.8918         2.70515 
         2.1476         19.7647          2.6859 
        2.15372          19.686         2.66694 
        2.15985          19.562         2.64814 
        2.16599         19.5538         2.62947 
        2.17213          19.496           2.611 
        2.17827         19.3498         2.59271 
         2.1844         19.2634         2.57462 
        2.19054         19.2224         2.55668 
        2.19666          19.161         2.53895 
         2.2028         19.0925         2.52136 
        2.20893         19.0225         2.50394 
        2.21508          18.921         2.48666 
        2.22122         18.7998         2.46953 
        2.22736         18.8113         2.45261 
        2.23349         18.7015         2.43584 
        2.23962         18.6288         2.41922 
        2.24577         18.5391         2.40274 
         2.2519         18.5148         2.38644 
        2.25802         18.4145         2.37032 
        2.26417         18.3915          2.3543 
        2.27031         18.2916         2.33841 
        2.27644          18.218         2.32271 
        2.28257         18.1325         2.30716 
        2.28872         18.0458         2.29172 
        2.29486         18.0153         2.27643 
        2.30099         17.9281          2.2613 
        2.30712          17.882         2.24631 
        2.31326         17.8239         2.23143 
         2.3194         17.7636         2.21669 
        2.32553         17.6662         2.20211 
        2.33166          17.579         2.18766 
         2.3378         17.5254         2.17332 
        2.34394         17.4806         2.15911 
        2.35007         17.4023         2.14505 
        2.35619         17.3034         2.13112 
        2.36233         17.2818         2.11729 
        2.36848         17.1969         2.10355 
        2.37462         17.1337         2.08997 
        2.38075         17.0689         2.07651 
        2.38689         17.0416         2.06316 
        2.39303         16.9413         2.04993 
        2.39916         16.8782         2.03683 
        2.40529         16.8192         2.02385 
        2.41143         16.7564         2.01097 
        2.41757         16.7185         1.99819 
         2.4237         16.6282         1.98555 
        2.42983         16.5615         1.97302 
        2.43598         16.5354         1.96057 
        2.44211         16.4609         1.94824 
        2.44823         16.3912         1.93605 
        2.45437         16.3236         1.92392 
        2.46052         16.2809         1.91189 
        2.46665         16.2388         1.89998 
        2.47279         16.1338         1.88818 
        2.47892          16.109         1.87647 
        2.48507         16.0471         1.86485 
         2.4912         16.0084         1.85335 
