# k  (h/Mpc)    P(k)  (Mpc/h)^3    P_linear(k)  (Mpc/h)^3
     0.00783031         2974.47         3015.33 
       0.013688         3524.81         3525.49 
       0.019231         3423.12         3421.84 
      0.0249154         3014.12         3038.93 
      0.0312784         2514.59          2518.4 
      0.0375637         2065.97         2058.01 
      0.0433917         1730.03         1733.69 
      0.0492413         1512.42         1509.11 
      0.0555754         1343.83         1353.14 
      0.0619321         1258.34         1249.04 
       0.067871          1160.5         1166.69 
      0.0738098         1071.72         1077.89 
      0.0800417         960.927         970.072 
      0.0862327         851.355         853.615 
      0.0921407          748.28          745.55 
      0.0982031         649.703         649.329 
       0.104506         581.469         572.191 
       0.110769         527.506         519.295 
       0.116806         490.672         486.357 
       0.122832         470.484         464.284 
       0.129052         446.313          445.16 
       0.135211         424.885          423.75 
       0.141259         401.665         397.413 
       0.147318         372.573         366.202 
       0.153489         337.487         332.397 
       0.159709         307.416         300.146 
       0.165845         283.831         273.167 
       0.171974         260.763         252.434 
       0.178125         246.828         237.615 
       0.184229         236.639         227.369 
        0.19034         224.547         219.486 
       0.196428         219.418         211.963 
       0.202534         212.576         203.286 
       0.208729          200.62         192.753 
       0.214876         187.861         180.926 
       0.220989          177.95         168.744 
       0.227147         165.278         157.142 
        0.23329         155.679         147.075 
       0.239377         148.915         138.972 
       0.245482         140.045         132.629 
       0.251667         136.988         127.572 
       0.257832         132.441          123.28 
       0.263955         127.904         119.159 
       0.270079         123.134         114.755 
        0.27624         119.702         109.897 
       0.282372         114.593         104.725 
        0.28843         108.933         99.5437 
       0.294538           103.8         94.5521 
       0.300721         100.659         89.9839 
        0.30691         95.6799         86.0271 
       0.313033         92.5399          82.697 
       0.319153         88.2899         79.8356 
       0.325316          86.853         77.2381 
        0.33145         83.6484         74.7646 
       0.337538         81.6386         72.2889 
       0.343633         78.6397         69.7394 
       0.349808         76.1648         67.0986 
       0.355968         73.8478         64.4735 
       0.362074         71.2161         61.9685 
       0.368217         68.8715         59.6127 
       0.374374         66.6276         57.4644 
       0.380519         64.8871         55.5271 
       0.386598          63.072         53.7868 
       0.392688         61.7345           52.17 
        0.39888         59.9147         50.5989 
       0.405048         58.4118         49.0697 
       0.411186         56.9575         47.5594 
       0.417313         55.1364         46.0604 
       0.423458         53.6594         44.5846 
       0.429607         52.1766         43.1546 
       0.435692         50.4112         41.8053 
       0.441815         49.5816         40.5293 
       0.447964         48.6574         39.3307 
       0.454126          46.601         38.2038 
       0.460267         45.8751         37.1438 
       0.466387         44.5966         36.1336 
        0.47254         43.8433         35.1487 
       0.478662         43.1067         34.1923 
       0.484765         41.7382         33.2611 
       0.490885         40.8025         32.3496 
       0.497035         40.2597         31.4604 
       0.503198         39.1175          30.603 
       0.509342          38.087         29.7861 
       0.515458         37.3213         29.0101 
       0.521598          36.667         28.2658 
       0.527764         35.9077         27.5509 
       0.533884         35.2997         26.8692 
           0.54          34.474          26.211 
       0.546137          33.967         25.5692 
       0.552299         33.3992          24.942 
       0.558452         32.3764         24.3339 
       0.564573         31.8431         23.7473 
       0.570708          31.335          23.178 
       0.576825         30.6135         22.6296 
       0.582926         29.9734         22.1018 
       0.589034         29.2378         21.5926 
       0.595184         28.8585         21.0985 
       0.601379         28.3067         20.6178 
       0.607522         27.7334         20.1562 
       0.613639         27.4795         19.7098 
       0.619772         26.7688         19.2748 
       0.625918         26.5957         18.8514 
       0.632068         26.1647           18.44 
       0.638161         25.6238         18.0444 
         0.6443          25.125         17.6577 
       0.650464         24.6777         17.2811 
       0.656582         24.5004         16.9184 
       0.662703         24.0143         16.5665 
       0.668861          23.569          16.223 
       0.675024         23.1622         15.8893 
       0.681124         22.7532         15.5686 
       0.687237         22.3625         15.2561 
       0.693381          22.176         14.9506 
       0.699536         21.6036         14.6527 
       0.705665         21.5592         14.3641 
       0.711789         21.0451         14.0833 
       0.717957         20.7567         13.8081 
        0.72409         20.4604         13.5418 
       0.730186         20.1542         13.2844 
       0.736317         19.9415         13.0324 
       0.742472         19.5866         12.7862 
       0.748622          19.391         12.5467 
        0.75476         19.0542          12.314 
       0.760888         18.7524         12.0875 
       0.767043         18.5215         11.8658 
       0.773185          18.202           11.65 
       0.779291         18.1082         11.4409 
       0.785407         17.8959         11.2365 
       0.791564         17.5716         11.0359 
       0.797719         17.1653         10.8403 
       0.803834         17.1455         10.6507 
       0.809972         16.9696          10.465 
       0.816124         16.5973         10.2834 
       0.822261         16.4188         10.1066 
       0.828378         16.2624         9.93458 
       0.834502         16.1027         9.76641 
       0.840667         15.8705         9.60108 
       0.846816         15.5808         9.44006 
       0.852925         15.4292         9.28376 
       0.859047         15.2596         9.13068 
       0.865192         15.1049         8.98055 
       0.871341          14.988         8.83371 
       0.877463         14.7118         8.69082 
       0.883569         14.5345         8.55146 
       0.889708         14.3177         8.41445 
       0.895864         14.1858         8.28009 
       0.902008         14.0812         8.14896 
       0.908149         13.9253         8.02075 
       0.914301         13.8397          7.8951 
       0.920448         13.5763         7.77227 
       0.926574          13.449         7.65248 
       0.932687         13.2938         7.53548 
       0.938823           13.12         7.42052 
       0.944975         12.9835         7.30769 
       0.951105         12.8519         7.19763 
       0.957225         12.7327         7.09002 
       0.963368         12.6306         6.98426 
       0.969511         12.5017         6.88066 
       0.975621         12.3812         6.77972 
       0.981748         12.2044         6.68056 
       0.987916         12.1356         6.58276 
        0.99406         11.9639          6.4873 
        1.00019         11.7989         6.39392 
        1.00632         11.7558         6.30248 
        1.01246         11.6489         6.21269 
        1.01859         11.4526         6.12481 
        1.02471         11.4123         6.03874 
        1.03085         11.2919         5.95403 
        1.03698          11.112         5.87114 
        1.04314         11.0519         5.78947 
        1.04929         10.9152         5.70955 
        1.05541         10.7941         5.63147 
        1.06154         10.7271         5.55466 
        1.06769         10.6701         5.47918 
        1.07382         10.5208         5.40534 
        1.07993         10.4393         5.33304 
        1.08607         10.3363         5.26177 
        1.09222         10.2612         5.19173 
        1.09836         10.1349         5.12304 
        1.10449         10.0589         5.05569 
        1.11063         9.94169         4.98946 
        1.11677         9.90303         4.92445 
         1.1229          9.8386         4.86072 
        1.12903         9.70289         4.79805 
        1.13518         9.58796         4.73644 
        1.14131          9.5509         4.67595 
        1.14745         9.46107         4.61654 
        1.15359         9.39541         4.55816 
        1.15973         9.29899         4.50077 
        1.16584          9.1693         4.44462 
        1.17197         9.12932         4.38935 
        1.17811         9.06697         4.33486 
        1.18424         8.98419         4.28144 
        1.19038         8.94585         4.22877 
        1.19652         8.84506         4.17701 
        1.20267         8.76486         4.12612 
        1.20881         8.72906         4.07608 
        1.21495         8.66156         4.02695 
        1.22108         8.55465         3.97865 
         1.2272         8.49144         3.93125 
        1.23334         8.41933         3.88451 
        1.23949         8.34012         3.83842 
        1.24562          8.3045         3.79322 
        1.25174         8.24332          3.7488 
        1.25789         8.17523         3.70497 
        1.26402         8.13816         3.66192 
        1.27014         8.06183         3.61965 
        1.27628         7.96459         3.57793 
        1.28244         7.90594         3.53679 
        1.28858         7.89995         3.49635 
        1.29471         7.80675         3.45663 
        1.30084          7.7309         3.41757 
        1.30697         7.71035         3.37906 
        1.31312         7.60728         3.34108 
        1.31925          7.5489         3.30381 
        1.32537         7.51692         3.26714 
        1.33151         7.47269          3.2309 
        1.33765         7.40858         3.19523 
        1.34378         7.35333         3.16017 
        1.34992         7.29077         3.12561 
        1.35606         7.25431         3.09149 
         1.3622         7.21082         3.05795 
        1.36833         7.13506         3.02498 
        1.37445         7.10265         2.99251 
        1.38059         7.06618         2.96042 
        1.38675         6.99534         2.92872 
        1.39288         6.97489         2.89761 
        1.39901          6.8956         2.86697 
        1.40515         6.86647          2.8367 
         1.4113         6.81563         2.80688 
        1.41742         6.76602          2.7776 
        1.42355         6.71126         2.74869 
         1.4297         6.68387          2.7201 
        1.43585         6.64888         2.69193 
        1.44198         6.61075         2.66426 
        1.44809         6.55783         2.63704 
        1.45423         6.50878         2.61009 
        1.46036         6.45917         2.58357 
        1.46649          6.4336         2.55741 
        1.47263         6.37129         2.53159 
        1.47877         6.33314         2.50614 
        1.48491         6.30447           2.481 
        1.49104         6.26235         2.45625 
        1.49718         6.22566         2.43183 
        1.50333          6.1897          2.4077 
        1.50947         6.13831         2.38394 
         1.5156         6.10852         2.36054 
        1.52172         6.08052         2.33746 
        1.52787         6.03347         2.31464 
          1.534         5.98847         2.29215 
        1.54013          5.9582         2.26998 
        1.54627         5.91065         2.24806 
        1.55241          5.8829         2.22643 
        1.55855         5.85724         2.20512 
        1.56467         5.81012         2.18414 
         1.5708         5.79474         2.16338 
        1.57695         5.74513         2.14286 
        1.58308         5.69887         2.12265 
        1.58922         5.68607         2.10268 
        1.59535         5.65848         2.08298 
         1.6015         5.60514          2.0635 
        1.60764         5.56626         2.04429 
        1.61376         5.55326         2.02536 
        1.61989          5.5156         2.00667 
        1.62604           5.487         1.98817 
        1.63218         5.46881         1.96991 
        1.63831         5.42734         1.95192 
        1.64444         5.39822         1.93415 
        1.65059          5.3448         1.91656 
        1.65673         5.34962         1.89921 
        1.66285         5.29141         1.88212 
        1.66898         5.26648         1.86524 
        1.67512         5.24553         1.84853 
        1.68127         5.21143           1.832 
         1.6874         5.19078         1.81572 
        1.69353         5.14494         1.79965 
        1.69967         5.13183         1.78373 
        1.70581          5.1092         1.76801 
        1.71193         5.06787         1.75253 
        1.71806         5.05092         1.73721 
        1.72421         5.01874         1.72205 
        1.73035         5.00019         1.70708 
        1.73649         4.97156         1.69229 
        1.74262         4.94013         1.67769 
        1.74876         4.92522         1.66325 
        1.75489         4.89553         1.64901 
        1.76101         4.86032         1.63494 
        1.76715         4.84504         1.62101 
        1.77329         4.81035         1.60724 
        1.77943          4.7818         1.59361 
        1.78557         4.77236         1.58016 
        1.79171         4.74524         1.56687 
        1.79785         4.71437         1.55372 
        1.80399         4.69128         1.54073 
        1.81012         4.67024         1.52791 
        1.81625         4.64625         1.51523 
        1.82239         4.62657         1.50268 
        1.82853         4.59577         1.49028 
        1.83466          4.5749         1.47803 
        1.84078         4.55521         1.46593 
        1.84692         4.54401         1.45395 
        1.85306         4.50906         1.44209 
         1.8592         4.48183         1.43037 
        1.86533         4.46601          1.4188 
        1.87147         4.44451         1.40733 
        1.87761         4.42396         1.39599 
        1.88375         4.39301         1.38479 
        1.88988          4.3852         1.37372 
        1.89601         4.36066         1.36277 
        1.90215         4.33678         1.35193 
        1.90829         4.31399         1.34121 
        1.91442         4.29397          1.3306 
        1.92056         4.28146         1.32012 
         1.9267         4.25162         1.30975 
        1.93284         4.23305         1.29947 
        1.93897         4.21027         1.28933 
        1.94509           4.201         1.27932 
        1.95123         4.17798         1.26938 
        1.95737         4.15102         1.25955 
        1.96349         4.14057         1.24984 
        1.96964         4.11784         1.24021 
        1.97578         4.09298         1.23068 
        1.98192         4.08453         1.22126 
        1.98805         4.06443         1.21194 
        1.99419          4.0398         1.20272 
        2.00033         4.03283         1.19359 
        2.00647         4.00663         1.18456 
         2.0126         3.99458         1.17563 
        2.01874         3.97213         1.16679 
        2.02488         3.95867         1.15802 
        2.03101         3.93391         1.14937 
        2.03714         3.91077          1.1408 
        2.04328         3.89985         1.13232 
        2.04941         3.87641         1.12393 
        2.05554         3.86728         1.11563 
        2.06167         3.84487          1.1074 
        2.06781         3.83415         1.09926 
        2.07396         3.82301         1.09118 
        2.08009         3.80151          1.0832 
        2.08622         3.78092         1.07531 
        2.09237         3.76369         1.06748 
        2.09851         3.75698         1.05973 
        2.10464         3.73803         1.05207 
        2.11077          3.7129         1.04449 
        2.11691         3.69726         1.03697 
        2.12305          3.6884         1.02952 
        2.12918         3.67747         1.02217 
        2.13531          3.6602         1.01488 
        2.14145         3.64244         1.00765 
         2.1476         3.62616         1.00048 
        2.15372          3.6093        0.993422 
        2.15985         3.60882         0.98642 
        2.16599         3.57842        0.979465 
        2.17213         3.56695        0.972585 
        2.17827          3.5577        0.965772 
         2.1844         3.54099        0.959031 
        2.19054         3.51763        0.952351 
        2.19666         3.50737        0.945745 
         2.2028         3.49407        0.939195 
        2.20893         3.48123        0.932704 
        2.21508         3.46602        0.926266 
        2.22122         3.44861        0.919888 
        2.22736         3.43841        0.913582 
        2.23349         3.42973        0.907337 
        2.23962         3.41396        0.901147 
        2.24577         3.40023        0.895009 
         2.2519         3.39234        0.888937 
        2.25802         3.37118        0.882931 
        2.26417         3.36199        0.876963 
        2.27031         3.34508        0.871045 
        2.27644         3.32852        0.865198 
        2.28257         3.31312        0.859406 
        2.28872          3.3118        0.853655 
        2.29486         3.29519        0.847958 
        2.30099         3.27919        0.842324 
        2.30712         3.26673        0.836739 
        2.31326         3.24934        0.831195 
         2.3194         3.24059        0.825705 
        2.32553         3.23422        0.820273 
        2.33166         3.22126        0.814893 
         2.3378         3.20511        0.809553 
        2.34394         3.19463        0.804259 
        2.35007         3.17971         0.79902 
        2.35619         3.17119        0.793834 
        2.36233         3.15658        0.788681 
        2.36848         3.14398        0.783564 
        2.37462         3.13953        0.778502 
        2.38075         3.12354        0.773491 
        2.38689         3.11624        0.768518 
        2.39303         3.09686        0.763591 
        2.39916         3.08733        0.758712 
        2.40529         3.07641        0.753875 
        2.41143         3.06562        0.749077 
        2.41757         3.06276        0.744319 
         2.4237         3.04738         0.73961 
        2.42983         3.03015        0.734943 
        2.43598          3.0207        0.730303 
        2.44211         3.00837        0.725711 
        2.44823         2.99932        0.721169 
        2.45437         2.98883        0.716653 
        2.46052         2.98066        0.712172 
        2.46665         2.96971        0.707736 
        2.47279         2.95328        0.703341 
        2.47892         2.94498        0.698979 
        2.48507         2.93715         0.69465 
         2.4912         2.92275        0.690366 
