# k  (h/Mpc)    P(k)  (Mpc/h)^3    P_linear(k)  (Mpc/h)^3
     0.00783031         3462.97         3506.71 
       0.013688         4491.44         4486.25 
       0.019231          4700.1          4700.7 
      0.0249154         4464.87         4513.12 
      0.0312784         4063.54         4082.63 
      0.0375637            3621         3619.33 
      0.0433917         3219.19         3246.22 
      0.0492413         2943.54         2952.37 
      0.0555754         2674.89         2713.19 
      0.0619321          2529.7         2522.75 
       0.067871         2330.12         2358.64 
      0.0738098          2159.9          2188.5 
      0.0800417         1959.97         1998.34 
      0.0862327         1783.61         1805.98 
      0.0921407         1623.02         1632.91 
      0.0982031          1463.4         1478.41 
       0.104506         1357.72          1349.4 
       0.110769         1258.36         1252.08 
       0.116806         1176.86         1180.49 
       0.122832         1124.84         1121.33 
       0.129052         1054.89         1063.76 
       0.135211         996.789          1003.9 
       0.141259         943.825         940.554 
       0.147318         884.565         874.611 
       0.153489         814.278         809.198 
       0.159709         761.806         749.571 
       0.165845         723.479         699.771 
       0.171974         676.936          659.52 
       0.178125         645.611         627.147 
       0.184229         621.078          600.24 
        0.19034         584.273         575.543 
       0.196428         569.607         550.839 
       0.202534         549.876         524.806 
       0.208729         520.157         497.223 
       0.214876         489.822         469.742 
       0.220989         472.773         443.693 
       0.227147         443.849          419.93 
        0.23329         425.029         399.305 
       0.239377         412.676         381.841 
       0.245482         388.474          366.69 
       0.251667         382.309         352.876 
       0.257832         369.326         339.777 
       0.263955         355.974         326.816 
       0.270079         343.384         313.672 
        0.27624         336.115         300.382 
       0.282372         322.144         287.416 
        0.28843         309.993         275.253 
       0.294538         297.321         263.927 
       0.300721         292.615         253.562 
        0.30691         279.457         244.218 
       0.313033         272.306         235.797 
       0.319153          261.03          227.93 
       0.325316         255.601         220.327 
        0.33145         247.113         212.906 
       0.337538         242.937         205.641 
       0.343633         234.872         198.491 
       0.349808         227.824         191.474 
       0.355968         222.985         184.797 
       0.362074          216.58         178.574 
       0.368217         210.915         172.733 
       0.374374         204.766         167.274 
       0.380519         200.312         162.159 
       0.386598         195.254         157.347 
       0.392688         192.184         152.708 
        0.39888         187.157          148.13 
       0.405048         183.148         143.687 
       0.411186         179.172         139.393 
       0.417313          174.66         135.251 
       0.423458         171.038         131.263 
       0.429607         166.803         127.461 
       0.435692         161.592         123.883 
       0.441815         160.396         120.456 
       0.447964         157.859         117.174 
       0.454126         151.178         114.021 
       0.460267         149.355         110.988 
       0.466387         146.711         108.064 
        0.47254         144.247         105.215 
       0.478662         142.329         102.468 
       0.484765         138.647         99.8185 
       0.490885         136.195         97.2576 
       0.497035           134.5         94.7821 
       0.503198         130.934         92.3978 
       0.509342         128.358         90.1123 
       0.515458         126.546          87.923 
       0.521598         125.012         85.8026 
       0.527764          122.96         83.7435 
       0.533884         120.849         81.7631 
           0.54         118.849         79.8453 
       0.546137         117.709         77.9802 
       0.552299             116         76.1659 
       0.558452         113.135         74.4123 
       0.564573         111.143         72.7241 
       0.570708         110.004         71.0877 
       0.576825         108.116         69.5101 
       0.582926         106.265         67.9872 
       0.589034         104.084         66.5094 
       0.595184         103.051          65.066 
       0.601379         101.953         63.6554 
       0.607522         99.4486         62.2976 
       0.613639         99.3444          60.985 
       0.619772         96.9369          59.707 
       0.625918         96.3133         58.4633 
       0.632068         95.0521         57.2549 
       0.638161         93.7734         56.0921 
         0.6443         92.4368         54.9541 
       0.650464         91.1962         53.8447 
       0.656582         90.3228         52.7746 
       0.662703         88.5481         51.7339 
       0.668861         87.7059         50.7156 
       0.675024         86.5821          49.724 
       0.681124         85.3735          48.769 
       0.687237         83.9898         47.8372 
       0.693381         83.2732         46.9256 
       0.699536         81.9545         46.0364 
       0.705665         82.3529         45.1746 
       0.711789          80.183          44.336 
       0.717957         79.6527         43.5135 
        0.72409         78.5227         42.7167 
       0.730186          77.304          41.945 
       0.736317         77.0917         41.1884 
       0.742472         75.9296         40.4478 
       0.748622            75.4         39.7264 
        0.75476         74.4829         39.0242 
       0.760888         73.4826         38.3402 
       0.767043         72.7642         37.6701 
       0.773185         71.8729         37.0176 
       0.779291         71.4814         36.3845 
       0.785407         70.8051         35.7654 
       0.791564         69.7386         35.1571 
       0.797719         68.7715         34.5634 
       0.803834         68.6098         33.9874 
       0.809972         67.5222         33.4226 
       0.816124         66.6725         32.8695 
       0.822261         66.3473         32.3306 
       0.828378         65.7567         31.8055 
       0.834502          65.005         31.2917 
       0.840667         64.5229         30.7861 
       0.846816         63.7055         30.2932 
       0.852925         63.1446         29.8143 
       0.859047         62.3269         29.3449 
       0.865192         62.1017         28.8841 
       0.871341         61.7294          28.433 
       0.877463         60.5436         27.9937 
       0.883569         60.2032         27.5649 
       0.889708         59.8855          27.143 
       0.895864         59.3097         26.7289 
       0.902008         58.8367         26.3244 
       0.908149         58.3574         25.9286 
       0.914301         57.9902         25.5404 
       0.920448         57.1657         25.1605 
       0.926574         56.8851         24.7898 
       0.932687          56.364         24.4275 
       0.938823          55.588         24.0711 
       0.944975          55.461         23.7211 
       0.951105         54.9407         23.3794 
       0.957225         54.2916         23.0451 
       0.963368         54.1099         22.7163 
       0.969511         53.7275         22.3939 
       0.975621         53.2995         22.0796 
       0.981748         52.6611         21.7706 
       0.987916         52.4446         21.4656 
        0.99406         52.0937         21.1676 
        1.00019         51.3963          20.876 
        1.00632         51.2307         20.5901 
        1.01246         50.7842         20.3093 
        1.01859         50.2265         20.0342 
        1.02471         50.2835         19.7645 
        1.03085          49.742          19.499 
        1.03698         49.1503         19.2389 
        1.04314         48.7245         18.9825 
        1.04929         48.5592         18.7315 
        1.05541         48.0215          18.486 
        1.06154         47.9094         18.2443 
        1.06769         47.4948         18.0067 
        1.07382         47.1706          17.774 
        1.07993         47.0268         17.5461 
        1.08607         46.4597         17.3212 
        1.09222         46.3127         17.1001 
        1.09836         45.8375         16.8832 
        1.10449         45.6254         16.6702 
        1.11063         45.0294         16.4608 
        1.11677         44.8884         16.2551 
         1.1229         44.7539         16.0532 
        1.12903         44.1545         15.8547 
        1.13518         43.9923         15.6593 
        1.14131         43.9097         15.4674 
        1.14745          43.447         15.2788 
        1.15359         43.2836         15.0934 
        1.15973         42.7924          14.911 
        1.16584         42.4755         14.7324 
        1.17197         42.5021         14.5565 
        1.17811         42.0068          14.383 
        1.18424         41.6553         14.2129 
        1.19038         41.6275          14.045 
        1.19652         41.3439           13.88 
        1.20267         41.0582         13.7176 
        1.20881         40.7836         13.5578 
        1.21495         40.4865         13.4009 
        1.22108         40.2323         13.2465 
         1.2272         39.8219         13.0949 
        1.23334         39.7078         12.9454 
        1.23949         39.4784         12.7978 
        1.24562         39.3327          12.653 
        1.25174         39.1057         12.5107 
        1.25789         38.8641         12.3701 
        1.26402         38.6564          12.232 
        1.27014         38.2931         12.0963 
        1.27628         38.0876         11.9623 
        1.28244         37.9077         11.8301 
        1.28858         37.7534         11.7001 
        1.29471         37.4981         11.5723 
        1.30084         37.2825         11.4466 
        1.30697           37.01         11.3225 
        1.31312         36.7065         11.2001 
        1.31925          36.612           11.08 
        1.32537         36.4557         10.9617 
        1.33151         36.1769         10.8447 
        1.33765          36.107         10.7295 
        1.34378         35.9408         10.6163 
        1.34992         35.4144         10.5046 
        1.35606         35.3552         10.3942 
         1.3622         35.1585         10.2857 
        1.36833         34.9736          10.179 
        1.37445         34.9337         10.0739 
        1.38059         34.7438          9.9699 
        1.38675         34.4099         9.86717 
        1.39288         34.3116          9.7663 
        1.39901         34.0228         9.66689 
        1.40515         33.8871         9.56866 
         1.4113         33.7589         9.47184 
        1.41742         33.4147         9.37673 
        1.42355          33.393         9.28276 
         1.4297         33.1609         9.18981 
        1.43585         33.1125         9.09817 
        1.44198         32.7737         9.00815 
        1.44809         32.6801         8.91951 
        1.45423         32.5538         8.83176 
        1.46036         32.4324         8.74534 
        1.46649         32.2017         8.66006 
        1.47263         32.0184         8.57586 
        1.47877         31.8842         8.49282 
        1.48491         31.6969         8.41076 
        1.49104         31.6491         8.32996 
        1.49718         31.3491         8.25017 
        1.50333         31.2644          8.1713 
        1.50947         31.1307         8.09363 
         1.5156         30.9073         8.01709 
        1.52172         30.6768         7.94154 
        1.52787         30.6878         7.86683 
          1.534         30.4605         7.79316 
        1.54013         30.2439         7.72053 
        1.54627         30.1994         7.64869 
        1.55241         29.9853         7.57776 
        1.55855         29.8604         7.50783 
        1.56467         29.7568         7.43899 
         1.5708         29.6145         7.37082 
        1.57695         29.3281          7.3034 
        1.58308         29.3935         7.23699 
        1.58922         29.1793         7.17136 
        1.59535         28.9803         7.10658 
         1.6015         28.8755         7.04251 
        1.60764         28.8141         6.97926 
        1.61376         28.6492         6.91697 
        1.61989           28.39          6.8554 
        1.62604         28.3717         6.79443 
        1.63218         28.1671         6.73426 
        1.63831          28.108         6.67495 
        1.64444         27.9285         6.61634 
        1.65059         27.7894         6.55829 
        1.65673         27.6998         6.50101 
        1.66285          27.554         6.44458 
        1.66898         27.4314          6.3888 
        1.67512         27.3331         6.33358 
        1.68127          27.127         6.27897 
         1.6874         27.0415         6.22512 
        1.69353         27.0058         6.17194 
        1.69967         26.7687         6.11926 
        1.70581         26.6452         6.06722 
        1.71193         26.4969         6.01599 
        1.71806         26.4516         5.96524 
        1.72421         26.3216         5.91498 
        1.73035         26.2406         5.86535 
        1.73649         26.0479         5.81631 
        1.74262         25.9981         5.76788 
        1.74876         25.8517         5.71996 
        1.75489         25.7259         5.67269 
        1.76101         25.6388         5.62597 
        1.76715         25.5597         5.57972 
        1.77329         25.4537         5.53393 
        1.77943         25.3042         5.48863 
        1.78557         25.1866         5.44392 
        1.79171         25.1145         5.39969 
        1.79785         24.9735         5.35596 
        1.80399          24.876         5.31271 
        1.81012         24.7848         5.27001 
        1.81625         24.6648          5.2278 
        1.82239         24.6002         5.18598 
        1.82853         24.3992         5.14465 
        1.83466         24.3208         5.10381 
        1.84078         24.1502         5.06346 
        1.84692          24.149         5.02348 
        1.85306         23.9843         4.98389 
         1.8592         23.9295         4.94479 
        1.86533          23.811         4.90613 
        1.87147         23.7099         4.86784 
        1.87761         23.6714         4.82994 
        1.88375         23.4847          4.7925 
        1.88988         23.4615         4.75549 
        1.89601         23.3254         4.71886 
        1.90215         23.2118         4.68258 
        1.90829         23.1604          4.6467 
        1.91442         23.0281          4.6112 
        1.92056         22.9483         4.57611 
         1.9267         22.8715         4.54134 
        1.93284         22.7429         4.50692 
        1.93897         22.6659         4.47292 
        1.94509         22.5731         4.43934 
        1.95123         22.4612         4.40603 
        1.95737         22.3537         4.37304 
        1.96349         22.2849         4.34047 
        1.96964         22.1684         4.30814 
        1.97578         22.1145         4.27612 
        1.98192         21.9693          4.2445 
        1.98805         21.9249         4.21319 
        1.99419         21.8174         4.18221 
        2.00033         21.7248         4.15151 
        2.00647         21.6727         4.12114 
         2.0126         21.4868         4.09112 
        2.01874         21.4533         4.06136 
        2.02488         21.3751         4.03187 
        2.03101         21.3547         4.00272 
        2.03714          21.212         3.97389 
        2.04328         21.1002         3.94532 
        2.04941         21.0238         3.91705 
        2.05554         21.0071         3.88908 
        2.06167         20.9075         3.86134 
        2.06781         20.8074         3.83387 
        2.07396         20.7117         3.80664 
        2.08009         20.6437         3.77971 
        2.08622         20.5609         3.75308 
        2.09237          20.479         3.72665 
        2.09851         20.3718         3.70047 
        2.10464         20.3119         3.67459 
        2.11077         20.2167         3.64899 
        2.11691         20.1616         3.62358 
        2.12305         20.0438         3.59841 
        2.12918         19.9844         3.57354 
        2.13531         19.9122          3.5489 
        2.14145         19.8145         3.52444 
         2.1476         19.7407         3.50018 
        2.15372         19.6899         3.47628 
        2.15985         19.5595         3.45257 
        2.16599         19.5319         3.42902 
        2.17213         19.4728         3.40572 
        2.17827         19.3904         3.38263 
         2.1844         19.3105         3.35978 
        2.19054         19.2187         3.33714 
        2.19666         19.1578         3.31474 
         2.2028         19.0898         3.29252 
        2.20893          18.982          3.2705 
        2.21508         18.9493         3.24866 
        2.22122         18.8265           3.227 
        2.22736         18.7673          3.2056 
        2.23349         18.6914         3.18439 
        2.23962          18.642         3.16336 
        2.24577         18.5417         3.14251 
         2.2519         18.5019         3.12187 
        2.25802         18.4368         3.10145 
        2.26417         18.3632         3.08116 
        2.27031         18.2992         3.06103 
        2.27644         18.2288         3.04114 
        2.28257         18.1545         3.02143 
        2.28872         18.0711         3.00186 
        2.29486         18.0454         2.98247 
        2.30099         17.9533         2.96328 
        2.30712         17.9009         2.94426 
        2.31326         17.8284         2.92538 
         2.3194         17.7128         2.90667 
        2.32553          17.689         2.88815 
        2.33166         17.5815         2.86981 
         2.3378         17.5363          2.8516 
        2.34394         17.4528         2.83354 
        2.35007         17.3737         2.81567 
        2.35619         17.3387         2.79797 
        2.36233         17.2623         2.78039 
        2.36848         17.2401         2.76291 
        2.37462         17.1838         2.74563 
        2.38075         17.0926         2.72851 
        2.38689         17.0399         2.71152 
        2.39303         16.9771         2.69468 
        2.39916         16.8948         2.67801 
        2.40529         16.8518         2.66147 
        2.41143         16.7789         2.64506 
        2.41757          16.736         2.62879 
         2.4237         16.6347         2.61268 
        2.42983         16.6006         2.59671 
        2.43598         16.5344         2.58083 
        2.44211         16.4466         2.56511 
        2.44823          16.396         2.54956 
        2.45437         16.3698         2.53409 
        2.46052         16.3212         2.51874 
        2.46665         16.2288         2.50355 
        2.47279         16.1849         2.48848 
        2.47892         16.1168         2.47353 
        2.48507         16.0684         2.45869 
         2.4912         16.0187           2.444 
