# k  (h/Mpc)    P(k)  (Mpc/h)^3    P_linear(k)  (Mpc/h)^3
     0.00783031         7523.04          7624.9 
       0.013688         9796.27         9751.39 
       0.019231         10216.7         10215.6 
      0.0249154         9648.44         9806.81 
      0.0312784         8790.61         8870.61 
      0.0375637         7846.42          7863.5 
      0.0433917         6939.23         7052.59 
      0.0492413         6359.82            6414 
      0.0555754         5740.55         5894.25 
      0.0619321          5469.6         5480.43 
       0.067871         4999.61         5123.85 
      0.0738098         4634.18         4754.17 
      0.0800417         4189.87         4341.04 
      0.0862327         3825.24         3923.15 
      0.0921407         3498.35         3547.16 
      0.0982031         3152.34         3211.52 
       0.104506         2948.06         2931.26 
       0.110769         2731.72         2719.84 
       0.116806         2556.88         2564.32 
       0.122832         2441.78          2435.8 
       0.129052         2277.69         2310.75 
       0.135211         2157.65         2180.71 
       0.141259         2053.88          2043.1 
       0.147318         1930.98         1899.85 
       0.153489         1775.83         1757.76 
       0.159709         1674.72         1628.23 
       0.165845         1602.77         1520.05 
       0.171974         1505.99         1432.62 
       0.178125         1435.03         1362.29 
       0.184229         1380.75         1303.84 
        0.19034         1295.79          1250.2 
       0.196428         1271.65         1196.53 
       0.202534         1228.17         1139.98 
       0.208729         1167.45         1080.07 
       0.214876         1106.88         1020.37 
       0.220989         1072.68         963.787 
       0.227147         1015.49         912.169 
        0.23329         975.526         867.368 
       0.239377         955.815         829.432 
       0.245482         894.988         796.521 
       0.251667         887.438         766.513 
       0.257832         856.053         738.059 
       0.263955         827.965         709.906 
       0.270079         799.899         681.354 
        0.27624         790.017         652.486 
       0.282372         756.246         624.321 
        0.28843         739.669         597.901 
       0.294538         704.978         573.297 
       0.300721         701.442         550.783 
        0.30691         670.002         530.486 
       0.313033         657.074         512.193 
       0.319153         638.148         495.105 
       0.325316         619.492         478.589 
        0.33145         602.669         462.471 
       0.337538         595.657         446.689 
       0.343633         577.083         431.157 
       0.349808         558.898         415.917 
       0.355968         554.169         401.411 
       0.362074         543.324         387.894 
       0.368217          528.84         375.208 
       0.374374         508.835         363.348 
       0.380519         504.268         352.239 
       0.386598         492.686         341.784 
       0.392688         489.747         331.708 
        0.39888         475.817         321.765 
       0.405048         466.868         312.113 
       0.411186         458.076         302.786 
       0.417313         450.032         293.788 
       0.423458         442.472         285.127 
       0.429607         433.315         276.867 
       0.435692         423.152         269.096 
       0.441815          420.51         261.652 
       0.447964         412.488         254.523 
       0.454126         399.333         247.673 
       0.460267         394.752         241.086 
       0.466387         390.351         234.734 
        0.47254         382.313         228.546 
       0.478662         381.007         222.577 
       0.484765         370.262         216.823 
       0.490885         366.076          211.26 
       0.497035         360.335         205.883 
       0.503198          353.13         200.704 
       0.509342         350.415         195.739 
       0.515458         346.508         190.984 
       0.521598         340.639         186.378 
       0.527764         334.566         181.905 
       0.533884         331.675         177.603 
           0.54         327.228         173.438 
       0.546137         326.002         169.386 
       0.552299         319.547         165.445 
       0.558452         316.551         161.636 
       0.564573         311.489         157.969 
       0.570708         306.372         154.415 
       0.576825         302.169         150.988 
       0.582926         299.409          147.68 
       0.589034         295.916          144.47 
       0.595184         293.291         141.335 
       0.601379         290.533          138.27 
       0.607522         285.153         135.321 
       0.613639         284.043          132.47 
       0.619772         277.344         129.694 
       0.625918         275.987         126.992 
       0.632068         272.445         124.367 
       0.638161         271.324         121.842 
         0.6443          266.68          119.37 
       0.650464         264.494          116.96 
       0.656582          263.07         114.635 
       0.662703          260.17         112.375 
       0.668861         256.124         110.163 
       0.675024         253.551         108.009 
       0.681124         252.618         105.934 
       0.687237         248.965          103.91 
       0.693381         245.578          101.93 
       0.699536         243.903         99.9989 
       0.705665         243.019         98.1268 
       0.711789         239.204         96.3054 
       0.717957         237.946         94.5186 
        0.72409         235.284         92.7879 
       0.730186         232.352         91.1116 
       0.736317         230.611         89.4681 
       0.742472         229.536         87.8596 
       0.748622         227.756         86.2924 
        0.75476         225.837         84.7671 
       0.760888         222.763         83.2814 
       0.767043         222.043         81.8258 
       0.773185          219.61         80.4085 
       0.779291          216.06         79.0332 
       0.785407         215.407         77.6885 
       0.791564         213.505         76.3671 
       0.797719         211.103         75.0775 
       0.803834         210.177         73.8263 
       0.809972         208.011         72.5994 
       0.816124         208.201         71.3981 
       0.822261         205.017         70.2274 
       0.828378         203.475         69.0869 
       0.834502         203.277         67.9709 
       0.840667         200.037         66.8726 
       0.846816         198.983         65.8019 
       0.852925         197.571         64.7617 
       0.859047         195.776          63.742 
       0.865192         194.616         62.7412 
       0.871341         192.565         61.7613 
       0.877463         191.459         60.8071 
       0.883569         189.916         59.8756 
       0.889708         188.627         58.9591 
       0.895864         186.593         58.0596 
       0.902008          185.83          57.181 
       0.908149         184.915         56.3212 
       0.914301         182.896          55.478 
       0.920448         181.658         54.6529 
       0.926574         180.793         53.8477 
       0.932687         179.902         53.0606 
       0.938823         177.847         52.2865 
       0.944975         176.458         51.5263 
       0.951105         175.688         50.7841 
       0.957225          173.63         50.0579 
       0.963368         172.308         49.3436 
       0.969511         171.674         48.6434 
       0.975621         170.757         47.9606 
       0.981748         170.133         47.2894 
       0.987916         168.018         46.6269 
        0.99406         167.261         45.9796 
        1.00019         166.493         45.3461 
        1.00632         165.127         44.7252 
        1.01246         164.128         44.1152 
        1.01859         162.624         43.5176 
        1.02471         162.237         42.9319 
        1.03085         160.497         42.3551 
        1.03698         159.371         41.7902 
        1.04314         158.376         41.2333 
        1.04929         157.292         40.6879 
        1.05541         156.596         40.1546 
        1.06154         155.509         39.6297 
        1.06769         155.339         39.1135 
        1.07382         154.267         38.6082 
        1.07993         153.039         38.1131 
        1.08607         151.876         37.6246 
        1.09222         151.131         37.1443 
        1.09836          149.86          36.673 
        1.10449         148.916         36.2106 
        1.11063         148.067         35.7556 
        1.11677         147.583         35.3087 
         1.1229         145.937         34.8703 
        1.12903         145.208          34.439 
        1.13518         145.209         34.0146 
        1.14131         143.705         33.5977 
        1.14745         142.978         33.1881 
        1.15359         141.987         32.7853 
        1.15973         141.718         32.3891 
        1.16584         140.368         32.0013 
        1.17197         139.658         31.6193 
        1.17811         138.909         31.2424 
        1.18424         138.015         30.8728 
        1.19038         137.403         30.5081 
        1.19652         136.591         30.1496 
        1.20267         135.686         29.7968 
        1.20881         134.835         29.4499 
        1.21495             134          29.109 
        1.22108          133.39         28.7736 
         1.2272          132.43         28.4444 
        1.23334         131.739         28.1195 
        1.23949         130.329          27.799 
        1.24562         130.271         27.4845 
        1.25174         128.992         27.1753 
        1.25789         128.553           26.87 
        1.26402         128.045         26.5699 
        1.27014         127.009         26.2752 
        1.27628         126.542         25.9842 
        1.28244          125.73          25.697 
        1.28858         125.185         25.4145 
        1.29471         124.085          25.137 
        1.30084         123.516         24.8638 
        1.30697         122.868         24.5944 
        1.31312         122.557         24.3286 
        1.31925         121.534         24.0675 
        1.32537         121.143         23.8106 
        1.33151         119.877         23.5565 
        1.33765         119.448         23.3064 
        1.34378         118.641         23.0603 
        1.34992         118.536         22.8177 
        1.35606         117.691          22.578 
         1.3622         116.813         22.3423 
        1.36833         116.359         22.1105 
        1.37445         115.529         21.8821 
        1.38059         115.151         21.6563 
        1.38675         114.279         21.4331 
        1.39288         113.727          21.214 
        1.39901           113.4         20.9981 
        1.40515         112.786         20.7847 
         1.4113         111.584         20.5744 
        1.41742         111.549         20.3678 
        1.42355         110.639         20.1637 
         1.4297         110.055         19.9618 
        1.43585         109.327         19.7627 
        1.44198         109.088         19.5672 
        1.44809         108.219         19.3747 
        1.45423         107.551          19.184 
        1.46036         107.293         18.9963 
        1.46649         106.705         18.8111 
        1.47263         106.221         18.6282 
        1.47877         105.744         18.4478 
        1.48491         104.939         18.2696 
        1.49104          104.39         18.0941 
        1.49718         103.803         17.9207 
        1.50333         103.265         17.7494 
        1.50947          102.55         17.5807 
         1.5156         102.365         17.4144 
        1.52172         101.549         17.2504 
        1.52787         101.411         17.0881 
          1.534         100.815          16.928 
        1.54013         99.9988         16.7703 
        1.54627         99.4751         16.6142 
        1.55241         99.0179         16.4601 
        1.55855         98.6537         16.3083 
        1.56467         97.9933         16.1587 
         1.5708         97.4677         16.0106 
        1.57695         97.2508         15.8642 
        1.58308         96.2665         15.7199 
        1.58922         96.2108         15.5774 
        1.59535         95.7433         15.4367 
         1.6015         95.1283         15.2975 
        1.60764         94.6389         15.1601 
        1.61376         94.1396         15.0248 
        1.61989         93.6864         14.8911 
        1.62604         93.1214         14.7586 
        1.63218         92.9111         14.6279 
        1.63831         92.2398         14.4991 
        1.64444         91.7997         14.3718 
        1.65059         91.0991         14.2457 
        1.65673         90.7139         14.1213 
        1.66285         90.4194         13.9987 
        1.66898          89.843         13.8775 
        1.67512         89.2828         13.7576 
        1.68127         88.8373          13.639 
         1.6874         88.4531          13.522 
        1.69353         88.0427         13.4065 
        1.69967         87.4762          13.292 
        1.70581         87.2287          13.179 
        1.71193         86.9023         13.0677 
        1.71806          86.137         12.9575 
        1.72421         85.9462         12.8483 
        1.73035         85.3711         12.7405 
        1.73649         84.9518          12.634 
        1.74262         84.5818         12.5288 
        1.74876         84.1813         12.4247 
        1.75489         83.6084          12.322 
        1.76101         83.3233         12.2205 
        1.76715         82.8546         12.1201 
        1.77329         82.4999         12.0206 
        1.77943           82.07         11.9222 
        1.78557         81.7125         11.8251 
        1.79171         81.2365          11.729 
        1.79785         80.9486          11.634 
        1.80399         80.4578         11.5401 
        1.81012          80.178         11.4473 
        1.81625         79.5767         11.3556 
        1.82239          79.195         11.2648 
        1.82853         78.9043          11.175 
        1.83466         78.4432         11.0863 
        1.84078         78.0274         10.9987 
        1.84692         77.6144         10.9118 
        1.85306         77.3197         10.8258 
         1.8592         76.6938         10.7409 
        1.86533         76.4492         10.6569 
        1.87147         75.9499         10.5737 
        1.87761         75.6576         10.4914 
        1.88375         75.4446         10.4101 
        1.88988         75.0946         10.3297 
        1.89601         74.5613         10.2501 
        1.90215         74.2705         10.1713 
        1.90829           73.99         10.0934 
        1.91442          73.474         10.0163 
        1.92056         73.0961         9.94006 
         1.9267         72.7828         9.86454 
        1.93284         72.2403         9.78977 
        1.93897         71.9902         9.71591 
        1.94509          71.467         9.64298 
        1.95123         71.3062         9.57062 
        1.95737         71.1313         9.49896 
        1.96349         70.6641         9.42821 
        1.96964         70.2903         9.35798 
        1.97578          69.975         9.28844 
        1.98192         69.6875         9.21975 
        1.98805         69.4105         9.15175 
        1.99419         68.8869         9.08444 
        2.00033         68.6425         9.01777 
        2.00647         68.3558         8.95179 
         2.0126         67.8467         8.88659 
        2.01874         67.5097         8.82194 
        2.02488         67.3949         8.75788 
        2.03101         66.9934         8.69457 
        2.03714         66.5405         8.63195 
        2.04328         66.2969         8.56988 
        2.04941         65.8779         8.50847 
        2.05554         65.5192         8.44772 
        2.06167         65.4441         8.38747 
        2.06781         65.0337         8.32781 
        2.07396         64.6202         8.26864 
        2.08009         64.4343         8.21015 
        2.08622         64.0252          8.1523 
        2.09237         63.7752          8.0949 
        2.09851         63.5208         8.03804 
        2.10464         63.1321         7.98182 
        2.11077         62.8283         7.92621 
        2.11691         62.4926         7.87101 
        2.12305         62.1657         7.81633 
        2.12918         61.8449         7.76231 
        2.13531         61.5824          7.7088 
        2.14145         61.2909         7.65567 
         2.1476         61.1038         7.60298 
        2.15372         60.7491         7.55105 
        2.15985         60.4072         7.49956 
        2.16599         60.1474          7.4484 
        2.17213         59.9053         7.39777 
        2.17827         59.5616         7.34763 
         2.1844         59.1189           7.298 
        2.19054         58.9047         7.24882 
        2.19666         58.7458         7.20016 
         2.2028         58.5478          7.1519 
        2.20893         58.2309         7.10406 
        2.21508         57.9574         7.05661 
        2.22122         57.6749         7.00958 
        2.22736         57.3401         6.96308 
        2.23349         57.1144         6.91701 
        2.23962          56.743         6.87134 
        2.24577         56.4546         6.82604 
         2.2519         56.2499         6.78121 
        2.25802         56.0218         6.73686 
        2.26417         55.6787         6.69279 
        2.27031         55.4801         6.64906 
        2.27644         55.0828         6.60586 
        2.28257         54.9301         6.56305 
        2.28872         54.6029         6.52054 
        2.29486         54.3592         6.47841 
        2.30099         54.1621         6.43674 
        2.30712         53.8926         6.39542 
        2.31326         53.6081          6.3544 
         2.3194         53.3469         6.31376 
        2.32553         53.1152         6.27355 
        2.33166         52.8075          6.2337 
         2.3378         52.4909         6.19414 
        2.34394         52.1619         6.15492 
        2.35007         52.0073          6.1161 
        2.35619         51.8867         6.07765 
        2.36233         51.7011         6.03945 
        2.36848         51.2372          6.0015 
        2.37462         51.0914         5.96396 
        2.38075         50.8239         5.92677 
        2.38689         50.6515         5.88987 
        2.39303         50.4636          5.8533 
        2.39916         50.2449         5.81707 
        2.40529         49.9036         5.78115 
        2.41143         49.6485         5.74551 
        2.41757           49.46         5.71016 
         2.4237         49.2578         5.67517 
        2.42983         48.9702         5.64048 
        2.43598         48.7113         5.60599 
        2.44211         48.5259         5.57184 
        2.44823         48.2544         5.53806 
        2.45437         48.0307         5.50447 
        2.46052          47.734         5.47112 
        2.46665         47.5911         5.43811 
        2.47279          47.391         5.40539 
        2.47892         47.1445         5.37292 
        2.48507         46.9453         5.34068 
         2.4912         46.7807         5.30877 
