# k  (h/Mpc)    P(k)  (Mpc/h)^3    P_linear(k)  (Mpc/h)^3
     0.00783031         7276.06         7315.46 
       0.013688         9532.19         9733.31 
       0.019231         10331.9           10458 
      0.0249154         10191.7         10203.8 
      0.0312784         9206.57         9301.05 
      0.0375637         8096.48         8232.41 
      0.0433917         7282.45          7336.2 
      0.0492413         6524.71         6626.55 
      0.0555754         6018.62         6073.43 
      0.0619321         5480.06         5678.68 
       0.067871         5250.61         5375.75 
      0.0738098         4971.96         5070.87 
      0.0800417          4624.1         4709.25 
      0.0862327         4206.11          4305.1 
      0.0921407         3822.89         3903.18 
      0.0982031          3480.6         3511.65 
       0.104506         3104.13         3161.81 
       0.110769         2853.94         2890.48 
       0.116806         2716.07            2700 
       0.122832         2549.65         2564.38 
       0.129052         2444.12          2457.7 
       0.135211         2377.93         2360.48 
       0.141259         2238.81         2254.78 
       0.147318         2088.18         2130.49 
       0.153489         1973.23         1987.46 
       0.159709         1872.84          1837.3 
       0.165845         1702.61         1696.65 
       0.171974         1645.07          1574.6 
       0.178125          1570.9         1476.27 
       0.184229         1456.99         1402.34 
        0.19034         1430.21         1346.87 
       0.196428         1390.34         1302.33 
       0.202534         1312.22         1260.31 
       0.208729         1291.68         1213.92 
       0.214876         1244.31         1161.07 
       0.220989         1168.95         1102.35 
       0.227147         1140.28         1040.36 
        0.23329         1093.95         980.215 
       0.239377         1071.99         926.319 
       0.245482         1017.04         880.405 
       0.251667         978.086         842.638 
       0.257832         967.717         812.381 
       0.263955         920.439         787.134 
       0.270079         894.702         763.759 
        0.27624         859.114         739.733 
       0.282372         844.208         713.891 
        0.28843         837.606         686.264 
       0.294538         795.862         657.195 
       0.300721         772.562         627.943 
        0.30691         759.463         600.402 
       0.313033          727.79          575.92 
       0.319153         716.506         554.701 
       0.325316         704.295         536.323 
        0.33145         690.292         520.335 
       0.337538         666.958         505.731 
       0.343633         648.682         491.504 
       0.349808         633.769         476.792 
       0.355968         622.396          461.59 
       0.362074         604.348         446.101 
       0.368217         600.334         430.516 
       0.374374         589.242         415.411 
       0.380519         566.953         401.268 
       0.386598         560.803         388.497 
       0.392688         549.747          376.92 
        0.39888          535.31         366.242 
       0.405048         527.225          356.41 
       0.411186         524.446         347.058 
       0.417313         518.132         337.886 
       0.423458         503.091         328.693 
       0.429607         491.132         319.428 
       0.435692         483.357         310.314 
       0.441815         476.016         301.334 
       0.447964         466.209         292.653 
       0.454126         460.386         284.433 
       0.460267         453.671         276.786 
       0.466387         446.877         269.658 
        0.47254         440.649         262.921 
       0.478662         430.495          256.55 
       0.484765         426.462         250.406 
       0.490885         422.047         244.355 
       0.497035         414.933         238.361 
       0.503198         413.531         232.447 
       0.509342         403.044         226.655 
       0.515458         397.881         221.042 
       0.521598         391.061         215.616 
       0.527764         385.675         210.417 
       0.533884         384.909         205.498 
           0.54         378.601         200.803 
       0.546137         370.737          196.29 
       0.552299         370.137         191.927 
       0.558452          364.36         187.701 
       0.564573         360.774         183.589 
       0.570708          355.95         179.546 
       0.576825         350.014         175.604 
       0.582926         346.994         171.774 
       0.589034         342.693         168.051 
       0.595184         340.627          164.42 
       0.601379         334.609         160.886 
       0.607522          329.29         157.506 
       0.613639         327.396         154.263 
       0.619772         325.629         151.121 
       0.625918         321.465         148.069 
       0.632068         316.318         145.096 
       0.638161           313.6         142.217 
         0.6443         311.756         139.382 
       0.650464         306.925         136.607 
       0.656582          304.38         133.924 
       0.662703         302.372         131.314 
       0.668861         297.473         128.765 
       0.675024         296.292         126.287 
       0.681124         292.959         123.903 
       0.687237         290.103          121.58 
       0.693381         287.563         119.309 
       0.699536         284.241         117.094 
       0.705665         281.522         114.947 
       0.711789         279.544         112.856 
       0.717957         276.188         110.802 
        0.72409         274.001          108.81 
       0.730186         274.751         106.877 
       0.736317         269.935         104.979 
       0.742472         266.667          103.12 
       0.748622         263.435         101.308 
        0.75476         264.118          99.545 
       0.760888         260.934         97.8282 
       0.767043         257.984         96.1473 
       0.773185         256.349         94.5113 
       0.779291         252.666         92.9241 
       0.785407         251.753         91.3721 
       0.791564         249.279         89.8463 
       0.797719         245.951         88.3564 
       0.803834         247.139         86.9095 
       0.809972         244.891         85.4897 
       0.816124         241.702         84.0985 
       0.822261         239.186          82.742 
       0.828378         239.524         81.4198 
       0.834502         235.493         80.1256 
       0.840667         235.249         78.8516 
       0.846816          232.33         77.6094 
       0.852925         230.921         76.4025 
       0.859047         228.586         75.2191 
       0.865192         228.335         74.0575 
       0.871341         225.272           72.92 
       0.877463         223.488          71.812 
       0.883569         223.271         70.7303 
       0.889708         221.451         69.6656 
       0.895864         219.514         68.6203 
       0.902008         217.629          67.599 
       0.908149         215.539         66.5994 
       0.914301         215.137         65.6185 
       0.920448         213.837         64.6586 
       0.926574         211.546         63.7216 
       0.932687         210.645         62.8053 
       0.938823         209.123          61.904 
       0.944975         207.347         61.0185 
       0.951105         205.759         60.1537 
       0.957225         205.001         59.3074 
       0.963368         203.402         58.4747 
       0.969511         201.006         57.6582 
       0.975621         199.985         56.8619 
       0.981748         198.533         56.0788 
       0.987916         197.668         55.3056 
        0.99406          196.31         54.5501 
        1.00019         195.074         53.8105 
        1.00632         194.277         53.0853 
        1.01246          192.78         52.3726 
        1.01859         191.143         51.6743 
        1.02471         189.772         50.9898 
        1.03085         188.815         50.3154 
        1.03698         187.354         49.6548 
        1.04314         186.825         49.0034 
        1.04929         185.878         48.3654 
        1.05541           184.5         47.7414 
        1.06154         183.365          47.127 
        1.06769         181.654         46.5226 
        1.07382          181.04          45.931 
        1.07993         179.797         45.3511 
        1.08607         178.302         44.7789 
        1.09222         177.607         44.2161 
        1.09836         176.302         43.6638 
        1.10449          174.82         43.1216 
        1.11063         174.003         42.5882 
        1.11677         173.237         42.0641 
         1.1229         171.819         41.5498 
        1.12903         171.293         41.0437 
        1.13518         170.126         40.5458 
        1.14131         169.129         40.0565 
        1.14745          167.81         39.5756 
        1.15359         166.232         39.1027 
        1.15973         165.852         38.6373 
        1.16584         165.022         38.1818 
        1.17197         164.101         37.7329 
        1.17811         162.628           37.29 
        1.18424         161.897         36.8556 
        1.19038         161.149         36.4269 
        1.19652         159.812         36.0053 
        1.20267         159.029         35.5905 
        1.20881         157.994         35.1823 
        1.21495         157.641         34.7812 
        1.22108         156.322         34.3865 
         1.2272         155.261          33.999 
        1.23334          154.84         33.6166 
        1.23949          154.24         33.2392 
        1.24562         152.881         32.8687 
        1.25174         151.623         32.5045 
        1.25789         151.298         32.1447 
        1.26402         150.586         31.7911 
        1.27014          149.67         31.4437 
        1.27628         147.964         31.1005 
        1.28244         147.811         30.7618 
        1.28858         146.702         30.4287 
        1.29471         145.814         30.1013 
        1.30084         145.079         29.7791 
        1.30697         144.613         29.4611 
        1.31312         143.616         29.1474 
        1.31925         142.438         28.8393 
        1.32537         142.058          28.536 
        1.33151         141.406          28.236 
        1.33765         139.985         27.9405 
        1.34378         140.072         27.6499 
        1.34992         139.377         27.3633 
        1.35606         138.265         27.0801 
         1.3622           137.9         26.8015 
        1.36833         136.376         26.5275 
        1.37445         136.091         26.2575 
        1.38059         135.372         25.9905 
        1.38675         134.458         25.7266 
        1.39288         133.796         25.4674 
        1.39901         132.672          25.212 
        1.40515         132.445         24.9595 
         1.4113         131.753         24.7107 
        1.41742         130.723         24.4662 
        1.42355         130.325         24.2245 
         1.4297         129.418         23.9855 
        1.43585         128.563         23.7498 
        1.44198         127.795         23.5182 
        1.44809         126.967         23.2901 
        1.45423         126.604         23.0643 
        1.46036         125.678         22.8418 
        1.46649         124.958         22.6223 
        1.47263         124.692         22.4055 
        1.47877         123.706         22.1917 
        1.48491         122.989         21.9803 
        1.49104         121.864         21.7722 
        1.49718         121.951         21.5666 
        1.50333         121.165         21.3634 
        1.50947         120.656         21.1632 
         1.5156          119.96          20.966 
        1.52172         119.175         20.7712 
        1.52787         118.484         20.5786 
          1.534         118.126         20.3887 
        1.54013         117.469         20.2013 
        1.54627         116.533          20.016 
        1.55241         116.011         19.8331 
        1.55855         115.466         19.6526 
        1.56467         114.483          19.475 
         1.5708         114.195          19.299 
        1.57695         113.702          19.125 
        1.58308         113.064         18.9536 
        1.58922         112.741         18.7841 
        1.59535         112.194         18.6168 
         1.6015         111.417         18.4513 
        1.60764         110.707         18.2879 
        1.61376          110.05          18.127 
        1.61989          109.49         17.9679 
        1.62604         108.953         17.8104 
        1.63218         108.599         17.6548 
        1.63831         107.763         17.5015 
        1.64444         107.257           17.35 
        1.65059         106.631         17.1999 
        1.65673         106.021         17.0518 
        1.66285         105.467         16.9059 
        1.66898         104.813         16.7616 
        1.67512         104.554         16.6187 
        1.68127         103.923         16.4774 
         1.6874         103.324         16.3381 
        1.69353         102.691         16.2005 
        1.69967         102.483         16.0641 
        1.70581         101.915         15.9294 
        1.71193         101.335         15.7968 
        1.71806         100.539         15.6654 
        1.72421          100.18         15.5352 
        1.73035         99.9565         15.4067 
        1.73649         99.2023         15.2796 
        1.74262         98.5043         15.1542 
        1.74876         98.1321           15.03 
        1.75489         97.4758         14.9075 
        1.76101         96.9646         14.7865 
        1.76715         96.5655         14.6666 
        1.77329         95.9927         14.5479 
        1.77943         95.6004         14.4305 
        1.78557         95.2344         14.3145 
        1.79171         94.6439         14.1998 
        1.79785         94.0575         14.0864 
        1.80399         93.6431         13.9742 
        1.81012         93.0529         13.8634 
        1.81625           92.84         13.7539 
        1.82239         92.4817         13.6454 
        1.82853         91.6918         13.5381 
        1.83466         91.2032         13.4321 
        1.84078         90.8476         13.3274 
        1.84692         90.5594         13.2236 
        1.85306         90.0327         13.1208 
         1.8592         89.5972         13.0192 
        1.86533         89.0616         12.9188 
        1.87147         88.5355         12.8194 
        1.87761          88.032          12.721 
        1.88375         87.5005         12.6237 
        1.88988         87.0948         12.5275 
        1.89601         86.6763         12.4323 
        1.90215         86.1773          12.338 
        1.90829         85.8211         12.2448 
        1.91442         85.4718         12.1525 
        1.92056         84.9536         12.0613 
         1.9267         84.5885         11.9709 
        1.93284         84.2823         11.8814 
        1.93897         83.8597         11.7929 
        1.94509         83.3109         11.7056 
        1.95123         82.9902          11.619 
        1.95737         82.3244         11.5331 
        1.96349         82.0681         11.4484 
        1.96964         81.6734         11.3643 
        1.97578          81.118         11.2809 
        1.98192         80.7793         11.1986 
        1.98805         80.2845         11.1172 
        1.99419         79.8359         11.0365 
        2.00033         79.3896         10.9566 
        2.00647         79.2223         10.8775 
         2.0126         78.7354         10.7993 
        2.01874          78.433         10.7218 
        2.02488          78.084          10.645 
        2.03101         77.6359         10.5691 
        2.03714         77.4151          10.494 
        2.04328         76.8826         10.4195 
        2.04941         76.2911         10.3459 
        2.05554         76.1916          10.273 
        2.06167         75.8727         10.2007 
        2.06781          75.207         10.1291 
        2.07396         74.9336         10.0581 
        2.08009         74.6551         9.98792 
        2.08622         74.1787         9.91848 
        2.09237         73.7734         9.84957 
        2.09851         73.3578          9.7813 
        2.10464         73.1091          9.7138 
        2.11077         72.7539         9.64702 
        2.11691         72.4172         9.58073 
        2.12305         71.9346         9.51506 
        2.12918         71.5855         9.45017 
        2.13531          71.322         9.38588 
        2.14145         70.7928         9.32205 
         2.1476         70.5671         9.25874 
        2.15372           70.27         9.19634 
        2.15985         69.8396         9.13445 
        2.16599         69.4465         9.07297 
        2.17213         69.1807         9.01212 
        2.17827         68.7659         8.95184 
         2.1844          68.506         8.89217 
        2.19054         68.1373         8.83303 
        2.19666         67.7048         8.77452 
         2.2028         67.5282         8.71649 
        2.20893         67.0642         8.65895 
        2.21508         66.7026         8.60188 
        2.22122         66.3507          8.5453 
        2.22736         66.0315         8.48935 
        2.23349         65.8582         8.43392 
        2.23962         65.4917         8.37896 
        2.24577         65.1529         8.32445 
         2.2519         64.8196         8.27049 
        2.25802         64.5189         8.21711 
        2.26417         64.1526         8.16405 
        2.27031         63.8226         8.11141 
        2.27644         63.5705          8.0594 
        2.28257         63.2753         8.00784 
        2.28872         63.0447         7.95664 
        2.29486         62.7572         7.90591 
        2.30099         62.2556         7.85572 
        2.30712         62.1026         7.80595 
        2.31326         61.7694         7.75653 
         2.3194         61.4098         7.70757 
        2.32553         61.2521         7.65911 
        2.33166         60.7116          7.6111 
         2.3378         60.4788         7.56343 
        2.34394         60.1948         7.51616 
        2.35007         59.8836         7.46937 
        2.35619          59.695         7.42303 
        2.36233         59.2611         7.37698 
        2.36848         59.0054         7.33122 
        2.37462         58.7388         7.28596 
        2.38075         58.5099         7.24112 
        2.38689         58.2173         7.19662 
        2.39303         58.0255         7.15251 
        2.39916         57.7473         7.10881 
        2.40529         57.3719         7.06549 
        2.41143         57.0985         7.02249 
        2.41757          56.784         6.97984 
         2.4237         56.6668         6.93762 
        2.42983         56.2058         6.89576 
        2.43598         55.9411         6.85413 
        2.44211         55.7587         6.81292 
        2.44823         55.4621         6.77215 
        2.45437         55.2017         6.73159 
        2.46052           54.87         6.69134 
        2.46665         54.6113         6.65149 
        2.47279         54.4093         6.61198 
        2.47892         54.1101         6.57277 
        2.48507         53.8894         6.53384 
         2.4912         53.5785          6.4953 
