#  k  (h/Mpc)          P(k)  (Mpc/h)^3     P_linear(k) (Mpc/h)^3
     0.00783031         18055.7         18325.7 
       0.013688         21756.1         21534.4 
       0.019231         20834.7         20763.1 
      0.0249154         17817.7           18183 
      0.0312784         14697.5         14821.3 
      0.0375637         12077.3         12014.5 
      0.0433917           10055         10170.9 
      0.0492413         8976.65         8986.66 
      0.0555754         7998.21         8204.93 
      0.0619321         7692.95         7640.11 
       0.067871         6937.27         7093.83 
      0.0738098         6303.71         6432.84 
      0.0800417         5492.39         5637.11 
      0.0862327         4812.69         4844.33 
      0.0921407         4276.54         4187.25 
      0.0982031         3747.06         3674.99 
       0.104506         3503.95         3323.54 
       0.110769         3265.02         3117.36 
       0.116806          3111.4         2992.39 
       0.122832         2982.27         2878.45 
       0.129052         2760.99         2725.74 
       0.135211          2580.1         2523.73 
       0.141259         2422.34         2291.05 
       0.147318         2233.29         2055.32 
       0.153489          2015.5         1844.41 
       0.159709         1888.72         1681.35 
       0.165845         1811.39         1571.85 
       0.171974         1724.02          1502.5 
       0.178125         1649.93         1454.44 
       0.184229         1582.56         1408.72 
        0.19034         1491.46         1350.86 
       0.196428         1450.13          1276.3 
       0.202534          1384.5         1188.81 
       0.208729         1304.72         1097.18 
       0.214876         1239.64         1014.14 
       0.220989         1189.29         946.541 
       0.227147         1138.75         895.617 
        0.23329         1093.33         859.268 
       0.239377         1073.63         831.875 
       0.245482         1005.01         806.682 
       0.251667         998.066         778.263 
       0.257832         955.474         744.612 
       0.263955         921.062         706.674 
       0.270079         883.879         666.993 
        0.27624         870.834         628.924 
       0.282372         834.517         595.678 
        0.28843         821.694           568.6 
       0.294538         778.609          546.81 
       0.300721         773.818         528.696 
        0.30691         741.612         512.432 
       0.313033          726.17         496.177 
       0.319153         708.508         478.713 
       0.325316         686.459         459.653 
        0.33145         667.678         439.978 
       0.337538         654.726         420.767 
       0.343633         637.389         402.938 
       0.349808         613.525         386.928 
       0.355968         608.776         373.128 
       0.362074         600.993         361.245 
       0.368217          582.31         350.388 
       0.374374         557.489         339.968 
       0.380519         556.859         329.471 
       0.386598         540.278         318.791 
       0.392688         537.316         307.915 
        0.39888         521.197         296.921 
       0.405048         511.903         286.433 
       0.411186         504.236         276.745 
       0.417313         493.742         267.892 
       0.423458         482.882         259.838 
       0.429607         476.782         252.412 
       0.435692         464.636         245.434 
       0.441815          459.77         238.596 
       0.447964         449.899         231.805 
       0.454126         442.712         225.009 
       0.460267         432.674          218.31 
       0.466387         427.324         211.835 
        0.47254         421.454         205.617 
       0.478662         418.571         199.765 
       0.484765         403.593         194.291 
       0.490885         400.146         189.146 
       0.497035         392.297         184.235 
       0.503198         388.066         179.487 
       0.509342         385.206          174.87 
       0.515458         380.937         170.378 
       0.521598         370.404         165.964 
       0.527764         365.301         161.634 
       0.533884         362.254         157.466 
           0.54         357.259         153.464 
       0.546137         355.144         149.637 
       0.552299         348.488         145.972 
       0.558452         346.385         142.465 
       0.564573         341.707         139.099 
       0.570708         335.583         135.827 
       0.576825         328.395         132.659 
       0.582926         326.948         129.588 
       0.589034         323.581         126.595 
       0.595184         320.967         123.664 
       0.601379         315.175         120.799 
       0.607522          311.24         118.049 
       0.613639         309.439         115.406 
       0.619772         303.382         112.853 
       0.625918         301.969         110.386 
       0.632068         296.695         107.997 
       0.638161         295.364         105.701 
         0.6443         290.699         103.449 
       0.650464         287.989         101.245 
       0.656582         284.758         99.1155 
       0.662703         284.476         97.0431 
       0.668861         279.807         95.0182 
       0.675024         276.536         93.0528 
       0.681124         274.145         91.1674 
       0.687237         271.465         89.3346 
       0.693381         267.295         87.5464 
       0.699536         264.444         85.8051 
       0.705665         262.267         84.1185 
       0.711789         261.049         82.4774 
       0.717957          258.99         80.8669 
        0.72409         256.663         79.3069 
       0.730186         253.155         77.7967 
       0.736317         250.777         76.3173 
       0.742472         248.799         74.8712 
       0.748622         246.743         73.4646 
        0.75476         243.853         72.0982 
       0.760888           241.3         70.7695 
       0.767043           241.1         69.4698 
       0.773185         238.575         68.2059 
       0.779291         234.536         66.9811 
       0.785407         234.054         65.7847 
       0.791564          231.28         64.6099 
       0.797719         228.811         63.4643 
       0.803834         226.735         62.3536 
       0.809972         226.162         61.2653 
       0.816124         224.982         60.2007 
       0.822261         222.923         59.1642 
       0.828378          220.54         58.1552 
       0.834502         218.907          57.169 
       0.840667         216.979         56.1995 
       0.846816         215.468         55.2553 
       0.852925         214.234         54.3388 
       0.859047         212.437         53.4414 
       0.865192         209.569         52.5614 
       0.871341         207.968         51.7008 
       0.877463         207.313         50.8635 
       0.883569         206.139         50.0469 
       0.889708         203.559         49.2441 
       0.895864         202.285         48.4569 
       0.902008         200.651         47.6887 
       0.908149         199.524         46.9376 
       0.914301         197.014         46.2016 
       0.920448         196.065          45.482 
       0.926574         194.154         44.7803 
       0.932687         194.186          44.095 
       0.938823         191.671         43.4216 
       0.944975         190.922         42.7607 
       0.951105         189.604          42.116 
       0.957225         188.354         41.4857 
       0.963368         185.555         40.8662 
       0.969511          184.95         40.2593 
       0.975621         183.214         39.6681 
       0.981748         182.889         39.0872 
       0.987916         181.372         38.5143 
        0.99406         179.653         37.9551 
        1.00019          179.08         37.4081 
        1.00632         177.629         36.8724 
        1.01246         176.292         36.3464 
        1.01859         176.278         35.8316 
        1.02471         173.501         35.3274 
        1.03085          172.38         34.8311 
        1.03698         171.397         34.3454 
        1.04314         169.822          33.867 
        1.04929         169.179         33.3988 
        1.05541         168.787         32.9414 
        1.06154         166.726         32.4914 
        1.06769         166.469         32.0492 
        1.07382         164.896         31.6167 
        1.07993         163.685         31.1932 
        1.08607         163.323         30.7757 
        1.09222         162.027         30.3654 
        1.09836         160.766         29.9631 
        1.10449         159.138         29.5686 
        1.11063         158.049         29.1808 
        1.11677          157.47            28.8 
         1.1229         156.127         28.4268 
        1.12903         155.609         28.0598 
        1.13518         154.574         27.6991 
        1.14131         153.138         27.3448 
        1.14745          153.14          26.997 
        1.15359         151.649         26.6552 
        1.15973         150.457         26.3192 
        1.16584         149.576         25.9904 
        1.17197         149.187         25.6668 
        1.17811         147.589         25.3478 
        1.18424         147.059          25.035 
        1.19038         146.633         24.7267 
        1.19652         145.263         24.4236 
        1.20267         144.702         24.1257 
        1.20881         143.616         23.8327 
        1.21495         142.577         23.5451 
        1.22108         141.717         23.2623 
         1.2272         140.685         22.9848 
        1.23334         140.413         22.7112 
        1.23949         139.083         22.4414 
        1.24562         138.366         22.1767 
        1.25174         137.738         21.9167 
        1.25789         136.813         21.6601 
        1.26402         135.311          21.408 
        1.27014         134.488         21.1606 
        1.27628         134.165         20.9163 
        1.28244         133.944         20.6754 
        1.28858         132.621         20.4387 
        1.29471         131.588         20.2062 
        1.30084         131.305         19.9775 
        1.30697         129.803          19.752 
        1.31312         129.259         19.5297 
        1.31925         128.413         19.3115 
        1.32537         128.177         19.0968 
        1.33151         127.038         18.8847 
        1.33765         126.103         18.6758 
        1.34378         125.669         18.4706 
        1.34992          125.15         18.2683 
        1.35606         124.823         18.0686 
         1.3622          123.44         17.8723 
        1.36833         122.605         17.6793 
        1.37445         122.188         17.4893 
        1.38059          121.19         17.3014 
        1.38675          120.69         17.1159 
        1.39288         120.124         16.9339 
        1.39901         119.745         16.7546 
        1.40515         118.449         16.5774 
         1.4113          118.13         16.4029 
        1.41742         117.091         16.2316 
        1.42355         116.642         16.0624 
         1.4297         115.981         15.8951 
        1.43585         115.187         15.7302 
        1.44198         114.702         15.5684 
        1.44809         114.206         15.4091 
        1.45423         113.703         15.2514 
        1.46036         112.684         15.0962 
        1.46649         111.974         14.9431 
        1.47263         111.286          14.792 
        1.47877         110.656         14.6431 
        1.48491         109.783          14.496 
        1.49104         109.686         14.3512 
        1.49718         108.833         14.2083 
        1.50333         108.186         14.0671 
        1.50947         107.631         13.9281 
         1.5156         107.141         13.7912 
        1.52172         106.496         13.6561 
        1.52787         105.739         13.5226 
          1.534         105.361          13.391 
        1.54013         104.818         13.2613 
        1.54627         104.247          13.133 
        1.55241         103.517         13.0065 
        1.55855         102.891         12.8818 
        1.56467         102.393         12.7591 
         1.5708         101.602         12.6376 
        1.57695         101.388         12.5175 
        1.58308          100.89         12.3993 
        1.58922         100.427         12.2825 
        1.59535         99.7101         12.1672 
         1.6015          99.422         12.0533 
        1.60764          98.721         11.9408 
        1.61376         98.1833         11.8302 
        1.61989         97.5889         11.7208 
        1.62604         96.9442         11.6126 
        1.63218          96.866         11.5058 
        1.63831         96.0088         11.4005 
        1.64444         95.5021         11.2966 
        1.65059         94.9317         11.1937 
        1.65673         94.3942         11.0922 
        1.66285           94.07         10.9922 
        1.66898         93.5591         10.8935 
        1.67512          92.841         10.7957 
        1.68127         92.5152         10.6991 
         1.6874         91.8598         10.6039 
        1.69353         91.5539         10.5098 
        1.69967         91.1864         10.4167 
        1.70581         90.4415         10.3248 
        1.71193         89.9558         10.2343 
        1.71806         89.6791         10.1447 
        1.72421         89.0573          10.056 
        1.73035         88.7575         9.96845 
        1.73649         88.2782         9.88196 
        1.74262         87.6604         9.79656 
        1.74876         87.3464         9.71212 
        1.75489         86.6991         9.62884 
        1.76101         86.1682         9.54657 
        1.76715         85.7462         9.46514 
        1.77329         85.4614         9.38456 
        1.77943         84.7779         9.30488 
        1.78557         84.6388         9.22624 
        1.79171         83.7678         9.14849 
        1.79785         83.4171         9.07163 
        1.80399         82.9789         8.99566 
        1.81012          82.608         8.92066 
        1.81625         82.2632         8.84655 
        1.82239         81.7772         8.77317 
        1.82853         81.3215         8.70065 
        1.83466         80.8984         8.62902 
        1.84078         80.4666         8.55827 
        1.84692         80.0182          8.4882 
        1.85306         79.6674         8.41883 
         1.8592         79.3309         8.35034 
        1.86533         78.7955         8.28265 
        1.87147         78.2843         8.21562 
        1.87761         77.9355         8.14931 
        1.88375         77.5052         8.08381 
        1.88988         77.1693          8.0191 
        1.89601         76.6985         7.95506 
        1.90215         76.1601         7.89167 
        1.90829         75.9558           7.829 
        1.91442         75.5634           7.767 
        1.92056         75.0475         7.70572 
         1.9267         74.7974         7.64505 
        1.93284         74.3584         7.58499 
        1.93897         73.9415         7.52568 
        1.94509         73.6781         7.46714 
        1.95123         73.2437         7.40907 
        1.95737          72.784         7.35157 
        1.96349         72.3989         7.29484 
        1.96964         71.9232         7.23853 
        1.97578         71.6315         7.18279 
        1.98192         71.5392         7.12775 
        1.98805         70.9125         7.07328 
        1.99419         70.6224         7.01937 
        2.00033         70.3323           6.966 
        2.00647         69.9103          6.9132 
         2.0126         69.5917         6.86103 
        2.01874         69.0371         6.80932 
        2.02488         68.9094          6.7581 
        2.03101         68.3903          6.7075 
        2.03714         67.9199         6.65746 
        2.04328         67.7092         6.60787 
        2.04941         67.3565         6.55883 
        2.05554          67.088         6.51032 
        2.06167         66.7261         6.46223 
        2.06781         66.2272         6.41463 
        2.07396         65.9477         6.36743 
        2.08009         65.7174         6.32079 
        2.08622          65.351         6.27466 
        2.09237         65.0691         6.22891 
        2.09851         64.7614          6.1836 
        2.10464         64.3842         6.13882 
        2.11077         64.0656         6.09453 
        2.11691         63.7424         6.05058 
        2.12305         63.3688         6.00706 
        2.12918         63.0338         5.96407 
        2.13531         62.6686          5.9215 
        2.14145          62.392         5.87924 
         2.1476         61.9846         5.83735 
        2.15372         61.8368         5.79607 
        2.15985         61.4201         5.75515 
        2.16599         61.1011         5.71451 
        2.17213         60.7874          5.6743 
        2.17827         60.4641         5.63449 
         2.1844         60.1858          5.5951 
        2.19054         59.9691         5.55606 
        2.19666         59.6673         5.51746 
         2.2028         59.4285         5.47918 
        2.20893         58.9805         5.44125 
        2.21508         58.8138         5.40364 
        2.22122         58.4061         5.36636 
        2.22736         58.2011         5.32952 
        2.23349         57.8458         5.29303 
        2.23962          57.568         5.25686 
        2.24577         57.2678         5.22099 
         2.2519         57.0144         5.18551 
        2.25802         56.7326         5.15041 
        2.26417         56.4376         5.11554 
        2.27031         56.1735         5.08096 
        2.27644         55.8131          5.0468 
        2.28257         55.6136         5.01296 
        2.28872         55.3147         4.97936 
        2.29486         54.9391         4.94607 
        2.30099         54.5682         4.91316 
        2.30712         54.4527         4.88053 
        2.31326         54.1169         4.84814 
         2.3194         53.9197         4.81606 
        2.32553         53.6343         4.78432 
        2.33166         53.3345         4.75289 
         2.3378         53.0862         4.72169 
        2.34394         52.7483         4.69076 
        2.35007         52.5059         4.66015 
        2.35619         52.3133         4.62986 
        2.36233         52.0449         4.59976 
        2.36848         51.8043         4.56986 
        2.37462         51.4794         4.54029 
        2.38075         51.3087         4.51101 
        2.38689         51.0316         4.48197 
        2.39303         50.7307         4.45318 
        2.39916          50.467         4.42468 
        2.40529         50.3421         4.39642 
        2.41143         49.9762          4.3684 
        2.41757           49.78          4.3406 
         2.4237         49.5301          4.3131 
        2.42983         49.3103         4.28583 
        2.43598         48.9888         4.25873 
        2.44211         48.7644         4.23191 
        2.44823         48.5632         4.20537 
        2.45437         48.3297           4.179 
        2.46052         48.1487         4.15282 
        2.46665         47.9001         4.12691 
        2.47279         47.5413         4.10124 
        2.47892         47.4346         4.07576 
        2.48507         47.1064         4.05048 
         2.4912         46.8842         4.02546 
