# k  (h/Mpc)    P(k)  (Mpc/h)^3    P_linear(k)  (Mpc/h)^3
     0.00783031         1269.42         1280.84 
       0.013688         1552.26         1570.64 
       0.019231          1564.1         1572.18 
      0.0249154         1429.03         1428.33 
      0.0312784         1206.54         1207.07 
      0.0375637         1001.56         1003.36 
      0.0433917         860.961         858.529 
      0.0492413         758.567         758.822 
      0.0555754         692.959         690.151 
      0.0619321         638.435         643.251 
       0.067871         602.604         603.308 
      0.0738098         557.256         557.444 
      0.0800417         501.862         500.646 
      0.0862327          440.11         439.959 
      0.0921407         385.657         385.102 
      0.0982031         340.286         337.956 
       0.104506           301.9         301.826 
       0.110769         278.794         278.309 
       0.116806         266.341         264.169 
       0.122832         254.561         254.182 
       0.129052         245.069         243.947 
       0.135211         232.932             231 
       0.141259         215.783         214.832 
       0.147318         196.505         196.377 
       0.153489         178.743         177.522 
       0.159709         162.967         160.738 
       0.165845         148.443         147.741 
       0.171974         141.302         138.542 
       0.178125         134.872         132.408 
       0.184229         129.582         128.125 
        0.19034         126.497         124.243 
       0.196428         121.715         119.679 
       0.202534         114.602         113.884 
       0.208729         108.905         106.896 
       0.214876          102.22         99.4909 
       0.220989         94.1787         92.4497 
       0.227147         89.3897         86.3273 
        0.23329         84.7426         81.5021 
       0.239377         81.4098         77.9431 
       0.245482         78.3262         75.2815 
       0.251667         75.4756         73.0412 
       0.257832         74.0304          70.807 
       0.263955         70.6924         68.2812 
       0.270079         67.7506         65.3467 
        0.27624         64.2726         62.0986 
       0.282372         61.2212         58.8066 
        0.28843         59.0383          55.747 
       0.294538         56.1537         53.0484 
       0.300721         53.4912          50.784 
        0.30691         52.1913         48.9549 
       0.313033         50.3634         47.4418 
       0.319153         49.4631         46.0698 
       0.325316         47.3712         44.6771 
        0.33145         45.7692         43.1978 
       0.337538         44.2884          41.612 
       0.343633         42.8522         39.9601 
       0.349808         41.0947         38.2978 
       0.355968         39.5425         36.7371 
       0.362074         38.5185         35.3474 
       0.368217         37.2035         34.1219 
       0.374374          36.348         33.0551 
       0.380519         34.9578         32.0992 
       0.386598         33.9392         31.2094 
       0.392688         32.9444         30.3282 
        0.39888         32.2295         29.4087 
       0.405048          31.366         28.4719 
       0.411186          30.392         27.5312 
       0.417313         29.4442         26.6101 
       0.423458         28.4486          25.735 
       0.429607         27.8861         24.9243 
       0.435692         27.2969         24.1895 
       0.441815         26.2934         23.5153 
       0.447964         25.5039         22.8855 
       0.454126         25.0553         22.2814 
       0.460267         24.6963         21.6924 
       0.466387         23.9649         21.1104 
        0.47254         23.5112         20.5247 
       0.478662         22.7798         19.9478 
       0.484765          22.235         19.3887 
       0.490885         21.5588         18.8521 
       0.497035         21.0722         18.3403 
       0.503198         20.6486         17.8577 
       0.509342         20.0503         17.4065 
       0.515458         19.7496         16.9803 
       0.521598         19.2982         16.5682 
       0.527764         18.9819         16.1641 
       0.533884         18.4374         15.7713 
           0.54         18.1027         15.3867 
       0.546137         17.5553         15.0085 
       0.552299         17.2258         14.6382 
       0.558452         16.8333         14.2807 
       0.564573         16.5894         13.9398 
       0.570708         16.2006         13.6141 
       0.576825         15.9097         13.3034 
       0.582926         15.5801         13.0052 
       0.589034         15.2757         12.7159 
       0.595184         15.0722         12.4326 
       0.601379         14.6638         12.1548 
       0.607522         14.3895         11.8866 
       0.613639         14.0957         11.6263 
       0.619772         13.8669         11.3722 
       0.625918         13.5776         11.1247 
       0.632068          13.405         10.8846 
       0.638161          13.132         10.6545 
         0.6443         12.8824         10.4309 
       0.650464         12.5736          10.214 
       0.656582           12.47         10.0056 
       0.662703         12.2811         9.80302 
       0.668861         11.9504         9.60457 
       0.675024         11.7557         9.41066 
       0.681124         11.7214         9.22336 
       0.687237         11.4506         9.04039 
       0.693381         11.1624         8.86139 
       0.699536         11.0935         8.68707 
       0.705665         10.8801          8.5186 
       0.711789         10.6604         8.35523 
       0.717957         10.4431         8.19537 
        0.72409          10.338          8.0408 
       0.730186         10.2618         7.89124 
       0.736317         10.0223         7.74463 
       0.742472         9.89812         7.60106 
       0.748622         9.74425         7.46107 
        0.75476          9.4934         7.32478 
       0.760888         9.42949         7.19202 
       0.767043          9.2314           7.062 
       0.773185         9.11703         6.93548 
       0.779291         9.05569         6.81285 
       0.785407         8.87611         6.69311 
       0.791564         8.76673         6.57559 
       0.797719         8.59636         6.46104 
       0.803834           8.524         6.35001 
       0.809972         8.36214         6.24124 
       0.816124         8.26157         6.13481 
       0.822261         8.15315         6.03116 
       0.828378         8.03889         5.93021 
       0.834502         7.93926         5.83148 
       0.840667         7.85265         5.73435 
       0.846816         7.68593         5.63971 
       0.852925          7.6198         5.54779 
       0.859047         7.51447         5.45774 
       0.865192         7.40901          5.3694 
       0.871341         7.30721         5.28296 
       0.877463           7.207         5.19884 
       0.883569         7.14237         5.11677 
       0.889708         7.03132         5.03607 
       0.895864         6.94212         4.95692 
       0.902008         6.84448         4.87965 
       0.908149         6.75091         4.80409 
       0.914301         6.68834         4.73001 
       0.920448         6.60453         4.65758 
       0.926574         6.56108         4.58692 
       0.932687         6.44763         4.51789 
       0.938823          6.3454         4.45004 
       0.944975         6.30555         4.38343 
       0.951105         6.19582         4.31843 
       0.957225           6.159         4.25487 
       0.963368         6.07819         4.19238 
       0.969511         6.00651         4.13114 
       0.975621         5.93155         4.07146 
       0.981748         5.83613         4.01282 
       0.987916         5.78578         3.95497 
        0.99406         5.74166         3.89847 
        1.00019         5.67946          3.8432 
        1.00632         5.62296         3.78906 
        1.01246           5.543         3.73588 
        1.01859         5.48233         3.68381 
        1.02471         5.39983          3.6328 
        1.03085         5.37105         3.58259 
        1.03698         5.31202         3.53344 
        1.04314         5.25502         3.48501 
        1.04929         5.18202          3.4376 
        1.05541         5.13176         3.39126 
        1.06154         5.08749         3.34568 
        1.06769         5.05975         3.30086 
        1.07382         4.96997         3.25702 
        1.07993         4.91416         3.21408 
        1.08607         4.88693         3.17173 
        1.09222         4.82002         3.13011 
        1.09836         4.80662         3.08929 
        1.10449         4.70749         3.04925 
        1.11063         4.68511         3.00988 
        1.11677         4.64457         2.97122 
         1.1229         4.59331         2.93331 
        1.12903         4.56011         2.89603 
        1.13518         4.49297         2.85937 
        1.14131          4.4512         2.82336 
        1.14745         4.39808           2.788 
        1.15359         4.35977         2.75325 
        1.15973         4.31421         2.71907 
        1.16584         4.28117         2.68562 
        1.17197         4.23527          2.6527 
        1.17811         4.19419         2.62022 
        1.18424         4.15469         2.58839 
        1.19038         4.12215         2.55699 
        1.19652         4.08907         2.52613 
        1.20267         4.05364         2.49578 
        1.20881         4.01004         2.46594 
        1.21495          3.9748         2.43663 
        1.22108         3.93908          2.4078 
         1.2272         3.89119         2.37951 
        1.23334         3.88257         2.35161 
        1.23949          3.8306          2.3241 
        1.24562         3.80403          2.2971 
        1.25174         3.77848         2.27057 
        1.25789         3.72173         2.24437 
        1.26402         3.69772         2.21864 
        1.27014         3.66757         2.19338 
        1.27628         3.63058         2.16844 
        1.28244          3.6088         2.14383 
        1.28858         3.58274         2.11965 
        1.29471         3.53437         2.09589 
        1.30084         3.50479         2.07252 
        1.30697         3.48965         2.04947 
        1.31312         3.45517         2.02674 
        1.31925         3.42447         2.00442 
        1.32537         3.40239         1.98247 
        1.33151         3.36726         1.96076 
        1.33765         3.34209          1.9394 
        1.34378         3.32572          1.9184 
        1.34992          3.2933         1.89769 
        1.35606         3.26855         1.87725 
         1.3622         3.24212         1.85714 
        1.36833         3.20828         1.83738 
        1.37445          3.1786         1.81792 
        1.38059         3.15535         1.79868 
        1.38675          3.1315         1.77967 
        1.39288         3.11726         1.76101 
        1.39901         3.07975         1.74263 
        1.40515         3.06292         1.72447 
         1.4113         3.04028         1.70658 
        1.41742         3.01177         1.68901 
        1.42355         2.98851         1.67166 
         1.4297         2.97059         1.65449 
        1.43585         2.95012         1.63758 
        1.44198         2.92328         1.62096 
        1.44809         2.90754         1.60461 
        1.45423         2.88356         1.58842 
        1.46036         2.86378         1.57249 
        1.46649         2.83348         1.55677 
        1.47263         2.82564         1.54125 
        1.47877         2.80523         1.52595 
        1.48491         2.77816         1.51084 
        1.49104         2.75896         1.49596 
        1.49718         2.74321         1.48127 
        1.50333         2.71784         1.46676 
        1.50947         2.69766         1.45247 
         1.5156         2.68166         1.43839 
        1.52172         2.66376          1.4245 
        1.52787          2.6454         1.41076 
          1.534         2.62935         1.39722 
        1.54013         2.60897         1.38388 
        1.54627          2.5886         1.37068 
        1.55241         2.56645         1.35766 
        1.55855         2.55538         1.34482 
        1.56467         2.53813         1.33219 
         1.5708         2.51988         1.31968 
        1.57695         2.49646         1.30731 
        1.58308         2.47817         1.29513 
        1.58922         2.47058          1.2831 
        1.59535         2.44858         1.27123 
         1.6015         2.42962         1.25949 
        1.60764         2.42045          1.2479 
        1.61376         2.39701         1.23649 
        1.61989         2.38082         1.22521 
        1.62604         2.36309         1.21406 
        1.63218         2.35623         1.20304 
        1.63831          2.3432         1.19219 
        1.64444         2.32316         1.18147 
        1.65059          2.3138         1.17085 
        1.65673         2.28999         1.16038 
        1.66285         2.27764         1.15006 
        1.66898         2.26437         1.13987 
        1.67512         2.24547         1.12978 
        1.68127         2.23214          1.1198 
         1.6874         2.22548         1.10997 
        1.69353         2.20296         1.10026 
        1.69967         2.19031         1.09064 
        1.70581         2.18311         1.08114 
        1.71193         2.15696          1.0718 
        1.71806         2.15069         1.06254 
        1.72421         2.14047         1.05337 
        1.73035         2.12233         1.04432 
        1.73649         2.11369         1.03538 
        1.74262          2.0998         1.02656 
        1.74876         2.08702         1.01783 
        1.75489         2.07281         1.00921 
        1.76101         2.05766         1.00071 
        1.76715         2.05147        0.992284 
        1.77329         2.03521        0.983948 
        1.77943           2.024        0.975705 
        1.78557         2.01315        0.967568 
        1.79171         2.00251        0.959522 
        1.79785          1.9913        0.951567 
        1.80399         1.97731        0.943704 
        1.81012         1.96628         0.93594 
        1.81625          1.9501        0.928266 
        1.82239         1.94407        0.920668 
        1.82853         1.93171        0.913158 
        1.83466         1.91521        0.905739 
        1.84078         1.90612        0.898411 
        1.84692         1.89623        0.891152 
        1.85306          1.8878        0.883964 
         1.8592         1.87424        0.876867 
        1.86533         1.86579        0.869852 
        1.87147         1.85545        0.862906 
        1.87761         1.84698        0.856032 
        1.88375         1.83362        0.849241 
        1.88988         1.82387        0.842532 
        1.89601         1.81081        0.835891 
        1.90215         1.80132        0.829316 
        1.90829         1.79613        0.822815 
        1.91442         1.78173        0.816383 
        1.92056         1.77658        0.810026 
         1.9267         1.76658         0.80373 
        1.93284         1.75456        0.797497 
        1.93897         1.74286        0.791342 
        1.94509          1.7357        0.785265 
        1.95123         1.72577        0.779237 
        1.95737         1.71948        0.773267 
        1.96349         1.70762        0.767376 
        1.96964         1.70187        0.761528 
        1.97578         1.68914         0.75574 
        1.98192         1.67654        0.750023 
        1.98805         1.67197        0.744364 
        1.99419          1.6613        0.738764 
        2.00033         1.65135        0.733219 
        2.00647         1.64802        0.727732 
         2.0126          1.6397         0.72231 
        2.01874          1.6294        0.716936 
        2.02488         1.61989        0.711611 
        2.03101         1.61102         0.70635 
        2.03714         1.60548        0.701148 
        2.04328         1.59629        0.695992 
        2.04941          1.5881        0.690892 
        2.05554         1.57921        0.685846 
        2.06167          1.5701        0.680845 
        2.06781         1.56294        0.675892 
        2.07396         1.55563        0.670982 
        2.08009         1.55012        0.666128 
        2.08622         1.54001        0.661329 
        2.09237         1.53534        0.656567 
        2.09851         1.52343        0.651852 
        2.10464         1.51851         0.64719 
        2.11077         1.51196         0.64258 
        2.11691         1.50153        0.638004 
        2.12305         1.49494        0.633473 
        2.12918         1.48575        0.628997 
        2.13531         1.48076        0.624563 
        2.14145          1.4738        0.620162 
         2.1476         1.46288        0.615799 
        2.15372         1.45823        0.611499 
        2.15985         1.45035        0.607236 
        2.16599         1.44625        0.603001 
        2.17213         1.43904        0.598812 
        2.17827         1.43007        0.594663 
         2.1844         1.42351        0.590557 
        2.19054          1.4164        0.586488 
        2.19666         1.41092        0.582464 
         2.2028         1.40293        0.578473 
        2.20893         1.39747        0.574518 
        2.21508         1.39059        0.570596 
        2.22122         1.38439        0.566709 
        2.22736         1.37567        0.562866 
        2.23349          1.3694        0.559059 
        2.23962         1.36714        0.555286 
        2.24577         1.35853        0.551545 
         2.2519          1.3515        0.547843 
        2.25802         1.34765         0.54418 
        2.26417         1.34054        0.540542 
        2.27031         1.33409        0.536933 
        2.27644         1.32803        0.533367 
        2.28257         1.32015        0.529834 
        2.28872         1.31749        0.526327 
        2.29486         1.30972        0.522851 
        2.30099         1.30257        0.519415 
        2.30712         1.30036        0.516007 
        2.31326         1.29305        0.512625 
         2.3194          1.2855        0.509275 
        2.32553         1.28132         0.50596 
        2.33166         1.27722        0.502676 
         2.3378         1.27095        0.499417 
        2.34394         1.26393        0.496186 
        2.35007         1.25588        0.492987 
        2.35619          1.2538        0.489821 
        2.36233         1.24833        0.486675 
        2.36848         1.24303         0.48355 
        2.37462         1.23709         0.48046 
        2.38075         1.23175        0.477399 
        2.38689         1.22851        0.474362 
        2.39303         1.22226        0.471352 
        2.39916         1.21601        0.468372 
        2.40529         1.21149        0.465417 
        2.41143         1.20425        0.462486 
        2.41757         1.20129        0.459578 
         2.4237         1.19534        0.456701 
        2.42983          1.1896        0.453849 
        2.43598         1.18627        0.451014 
        2.44211         1.18031        0.448208 
        2.44823         1.17618        0.445431 
        2.45437         1.17103        0.442671 
        2.46052         1.16696        0.439932 
        2.46665         1.16227         0.43722 
        2.47279         1.15684        0.434533 
        2.47892         1.15171        0.431866 
        2.48507         1.14761        0.429219 
         2.4912         1.14255        0.426599 
