# k  (h/Mpc)    Pcb(k)  (Mpc/h)^3    Pcb_linear(k)  (Mpc/h)^3
     0.00783031         636.508         642.631 
       0.013688         794.904         796.913 
       0.019231         805.283         805.555 
      0.0249154         738.957         742.265 
      0.0312784         641.068         641.233 
      0.0375637         548.605         547.206 
      0.0433917         479.359         479.563 
      0.0492413         432.281         431.684 
      0.0555754         395.019         396.254 
      0.0619321         369.989         368.735 
       0.067871          342.37         343.263 
      0.0738098         313.695         314.634 
      0.0800417         280.213         281.535 
      0.0862327         248.319         248.625 
      0.0921407         220.752          220.57 
      0.0982031         197.271         197.464 
       0.104506         181.032         180.083 
       0.110769         169.019         168.342 
       0.116806         159.998          160.17 
       0.122832          153.24         152.923 
       0.129052         144.351         144.684 
       0.135211         134.732         135.064 
       0.141259         124.803         124.545 
       0.147318         114.633         113.915 
       0.153489         104.546         104.086 
       0.159709         96.5318         95.9596 
       0.165845          91.039         89.8875 
       0.171974         85.9413         85.4434 
       0.178125          82.574         81.9914 
       0.184229         79.5918         78.8824 
        0.19034         75.6664         75.5561 
       0.196428         72.3245         71.7912 
       0.202534         68.6451         67.6321 
       0.208729         64.0895           63.31 
       0.214876         59.8411         59.2702 
       0.220989         56.8226         55.7651 
       0.227147         53.4791         52.8624 
        0.23329          51.171          50.541 
       0.239377          49.383           48.64 
       0.245482         47.3689         46.9245 
       0.251667         45.9908         45.1949 
       0.257832         44.0899         43.3704 
       0.263955         42.2211         41.4502 
       0.270079         40.2999         39.4857 
        0.27624         38.6513         37.5677 
       0.282372         36.8986         35.8106 
        0.28843         35.2081         34.2744 
       0.294538         33.8535         32.9334 
       0.300721         32.8627         31.7478 
        0.30691          31.563         30.6733 
       0.313033         30.5666         29.6562 
       0.319153         29.2596         28.6432 
       0.325316         28.6199         27.6071 
        0.33145         27.5109         26.5708 
       0.337538         26.5366           25.56 
       0.343633         25.4969         24.5965 
       0.349808         24.6778         23.6902 
       0.355968         23.8623         22.8657 
       0.362074         23.0752         22.1209 
       0.368217         22.3957         21.4285 
       0.374374         21.6462          20.773 
       0.380519         21.0934         20.1388 
       0.386598         20.5078          19.522 
       0.392688         19.9649         18.9123 
        0.39888         19.3138         18.3042 
       0.405048         18.7688         17.7193 
       0.411186         18.2412         17.1647 
       0.417313         17.6291         16.6422 
       0.423458         17.1721         16.1512 
       0.429607         16.6616         15.6886 
       0.435692          16.197         15.2537 
       0.441815         15.8102         14.8338 
       0.447964         15.4908         14.4253 
       0.454126         14.9601          14.026 
       0.460267         14.6072         13.6385 
       0.466387         14.1634         13.2642 
        0.47254         13.8678         12.9009 
       0.478662         13.5619         12.5541 
       0.484765         13.1646          12.224 
       0.490885         12.8449         11.9081 
       0.497035         12.6484          11.604 
       0.503198         12.2999          11.311 
       0.509342         12.0107         11.0291 
       0.515458         11.7122         10.7574 
       0.521598         11.4681         10.4924 
       0.527764         11.1755         10.2339 
       0.533884         10.9772          9.9854 
           0.54         10.7175         9.74554 
       0.546137         10.5012         9.51341 
       0.552299         10.2859         9.28862 
       0.558452          9.9894         9.07216 
       0.564573         9.83272         8.86427 
       0.570708         9.62817         8.66286 
       0.576825         9.38594         8.46841 
       0.582926          9.2224         8.28023 
       0.589034         8.96314         8.09716 
       0.595184         8.81455         7.91812 
       0.601379         8.62227          7.7432 
       0.607522         8.49216         7.57509 
       0.613639         8.36563         7.41294 
       0.619772         8.13853         7.25542 
       0.625918         8.03595         7.10237 
       0.632068         7.90481         6.95378 
       0.638161         7.71429         6.81082 
         0.6443         7.55739         6.67087 
       0.650464         7.39701         6.53437 
       0.656582         7.31478         6.40269 
       0.662703         7.17667         6.27463 
       0.668861         7.05635         6.14937 
       0.675024         6.90695         6.02746 
       0.681124          6.7767         5.91012 
       0.687237         6.67865         5.79572 
       0.693381         6.57044         5.68386 
       0.699536          6.3964         5.57482 
       0.705665         6.31061         5.46916 
       0.711789         6.21092         5.36639 
       0.717957         6.09699          5.2656 
        0.72409         5.99411           5.168 
       0.730186         5.90074          5.0735 
       0.736317         5.84014         4.98087 
       0.742472          5.7416         4.89023 
       0.748622         5.63398         4.80196 
        0.75476         5.51762         4.71608 
       0.760888         5.44272         4.63245 
       0.767043         5.37935         4.55053 
       0.773185           5.267          4.4708 
       0.779291         5.20934         4.39345 
       0.785407         5.12175         4.31784 
       0.791564         5.04571         4.24355 
       0.797719          4.9695         4.17108 
       0.803834         4.91227         4.10077 
       0.809972          4.8451         4.03186 
       0.816124         4.75063          3.9644 
       0.822261         4.66908         3.89868 
       0.828378         4.61335         3.83467 
       0.834502         4.56812         3.77206 
       0.840667          4.4723         3.71046 
       0.846816         4.40445         3.65042 
       0.852925           4.366         3.59211 
       0.859047         4.30323         3.53496 
       0.865192         4.24928         3.47888 
       0.871341         4.19615           3.424 
       0.877463         4.13981         3.37056 
       0.883569          4.0656         3.31841 
       0.889708         4.00418         3.26711 
       0.895864         3.95932         3.21677 
       0.902008         3.90037         3.16761 
       0.908149         3.85803         3.11952 
       0.914301         3.78751         3.07236 
       0.920448         3.74168         3.02623 
       0.926574         3.68912         2.98122 
       0.932687         3.64975         2.93723 
       0.938823         3.60962         2.89398 
       0.944975         3.55985         2.85151 
       0.951105         3.52041         2.81006 
       0.957225         3.49577         2.76951 
       0.963368         3.44328         2.72963 
       0.969511         3.39375         2.69054 
       0.975621         3.34329         2.65243 
       0.981748         3.31383         2.61498 
       0.987916         3.27144         2.57802 
        0.99406         3.21828         2.54191 
        1.00019         3.18709         2.50658 
        1.00632         3.15048         2.47196 
        1.01246         3.11483         2.43794 
        1.01859         3.07911         2.40463 
        1.02471         3.03934         2.37199 
        1.03085         3.00742         2.33984 
        1.03698         2.96647         2.30837 
        1.04314         2.93944         2.27734 
        1.04929         2.90092         2.24696 
        1.05541         2.86966         2.21727 
        1.06154         2.83819         2.18804 
        1.06769         2.81246          2.1593 
        1.07382         2.77418         2.13118 
        1.07993          2.7354         2.10362 
        1.08607         2.72156         2.07644 
        1.09222         2.68518         2.04972 
        1.09836          2.6646         2.02351 
        1.10449         2.63341         1.99779 
        1.11063         2.59849         1.97249 
        1.11677         2.57164         1.94764 
         1.1229         2.54456         1.92327 
        1.12903         2.51424          1.8993 
        1.13518         2.49464         1.87572 
        1.14131         2.45915         1.85255 
        1.14745         2.42168          1.8298 
        1.15359         2.41079         1.80742 
        1.15973         2.37509         1.78542 
        1.16584         2.36517         1.76388 
        1.17197         2.33717         1.74267 
        1.17811          2.3156         1.72175 
        1.18424         2.29793         1.70124 
        1.19038         2.26984           1.681 
        1.19652         2.24598          1.6611 
        1.20267         2.22845         1.64153 
        1.20881         2.19939         1.62228 
        1.21495          2.1837         1.60337 
        1.22108         2.16228         1.58477 
         1.2272         2.14767         1.56651 
        1.23334         2.11956         1.54849 
        1.23949         2.09688         1.53072 
        1.24562         2.08356         1.51328 
        1.25174         2.05905         1.49614 
        1.25789         2.04213         1.47921 
        1.26402         2.01628         1.46258 
        1.27014         1.99813         1.44625 
        1.27628         1.99005         1.43012 
        1.28244         1.96136         1.41421 
        1.28858         1.94744         1.39856 
        1.29471         1.92804         1.38318 
        1.30084         1.90842         1.36806 
        1.30697         1.89653         1.35313 
        1.31312         1.86737         1.33841 
        1.31925         1.85946         1.32396 
        1.32537         1.84277         1.30973 
        1.33151         1.82852         1.29567 
        1.33765         1.80728         1.28182 
        1.34378         1.78937         1.26821 
        1.34992         1.78235         1.25478 
        1.35606         1.75771         1.24152 
         1.3622         1.74855         1.22847 
        1.36833         1.73186         1.21565 
        1.37445         1.71337         1.20302 
        1.38059         1.70131         1.19053 
        1.38675          1.6956         1.17819 
        1.39288         1.67267         1.16607 
        1.39901         1.65772         1.15413 
        1.40515          1.6456         1.14233 
         1.4113          1.6316         1.13071 
        1.41742         1.61819         1.11929 
        1.42355         1.61194         1.10801 
         1.4297         1.59019         1.09685 
        1.43585         1.58053         1.08585 
        1.44198          1.5724         1.07504 
        1.44809         1.55123          1.0644 
        1.45423         1.54038         1.05387 
        1.46036         1.52844          1.0435 
        1.46649         1.51545         1.03327 
        1.47263         1.50237         1.02317 
        1.47877         1.48825          1.0132 
        1.48491         1.47723         1.00336 
        1.49104         1.46711        0.993667 
        1.49718         1.45853        0.984096 
        1.50333         1.44368        0.974638 
        1.50947         1.43578        0.965323 
         1.5156         1.42268        0.956145 
        1.52172         1.41134        0.947087 
        1.52787         1.39895        0.938129 
          1.534         1.39171        0.929298 
        1.54013         1.37693         0.92059 
        1.54627         1.36557        0.911979 
        1.55241         1.35512        0.903477 
        1.55855          1.3465        0.895096 
        1.56467         1.33828        0.886845 
         1.5708         1.32312        0.878676 
        1.57695         1.31824        0.870597 
        1.58308         1.30798         0.86264 
        1.58922         1.29791        0.854777 
        1.59535         1.28842        0.847016 
         1.6015         1.27895        0.839341 
        1.60764         1.27137        0.831765 
        1.61376         1.26019        0.824305 
        1.61989         1.25154         0.81693 
        1.62604         1.24118         0.80963 
        1.63218         1.23659        0.802424 
        1.63831         1.22313        0.795323 
        1.64444         1.21432        0.788305 
        1.65059         1.20836        0.781357 
        1.65673         1.19766          0.7745 
        1.66285         1.18877        0.767745 
        1.66898         1.18412        0.761069 
        1.67512         1.17147         0.75446 
        1.68127         1.16394        0.747923 
         1.6874         1.15905         0.74148 
        1.69353         1.14713        0.735116 
        1.69967          1.1392        0.728813 
        1.70581         1.13505        0.722587 
        1.71193         1.12508        0.716457 
        1.71806          1.1197        0.710386 
        1.72421          1.1106        0.704374 
        1.73035         1.10172        0.698438 
        1.73649         1.09651        0.692573 
        1.74262         1.08886        0.686779 
        1.74876         1.08102        0.681049 
        1.75489          1.0715        0.675396 
        1.76101          1.0654        0.669809 
        1.76715         1.05908        0.664278 
        1.77329         1.05264        0.658803 
        1.77943         1.04386        0.653388 
        1.78557          1.0368        0.648042 
        1.79171          1.0329        0.642755 
        1.79785          1.0247        0.637526 
        1.80399         1.01839        0.632357 
        1.81012         1.01331        0.627252 
        1.81625         1.00467        0.622206 
        1.82239         0.99927        0.617209 
        1.82853         0.98872        0.612269 
        1.83466        0.985236        0.607388 
        1.84078        0.977983        0.602566 
        1.84692        0.974428        0.597789 
        1.85306        0.967107        0.593058 
         1.8592        0.962195        0.588386 
        1.86533        0.954857        0.583767 
        1.87147        0.949589        0.579193 
        1.87761        0.943559        0.574666 
        1.88375        0.934921        0.570193 
        1.88988        0.932447        0.565772 
        1.89601        0.924874        0.561396 
        1.90215        0.919608        0.557064 
        1.90829        0.913053        0.552779 
        1.91442        0.907441        0.548539 
        1.92056        0.903121        0.544348 
         1.9267        0.896791        0.540196 
        1.93284        0.893471        0.536086 
        1.93897        0.887071        0.532026 
        1.94509        0.881444        0.528018 
        1.95123          0.8752         0.52404 
        1.95737         0.87091        0.520102 
        1.96349        0.864353        0.516213 
        1.96964        0.860433        0.512354 
        1.97578        0.854927        0.508533 
        1.98192        0.851948        0.504758 
        1.98805        0.844293        0.501022 
        1.99419        0.841211        0.497323 
        2.00033        0.837908        0.493661 
        2.00647         0.83023        0.490036 
         2.0126        0.826664        0.486454 
        2.01874        0.821794        0.482902 
        2.02488        0.817881        0.479383 
        2.03101        0.810818        0.475906 
        2.03714        0.805349        0.472466 
        2.04328        0.803737        0.469057 
        2.04941        0.798077        0.465684 
        2.05554        0.793305        0.462347 
        2.06167        0.788493        0.459039 
        2.06781        0.783537        0.455762 
        2.07396        0.778421        0.452513 
        2.08009        0.775263        0.449302 
        2.08622        0.770049        0.446125 
        2.09237        0.768737        0.442973 
        2.09851        0.764086        0.439851 
        2.10464        0.760151        0.436764 
        2.11077        0.754672        0.433711 
        2.11691        0.749917        0.430681 
        2.12305        0.746523        0.427679 
        2.12918        0.742314        0.424714 
        2.13531        0.738276        0.421776 
        2.14145        0.734176         0.41886 
         2.1476        0.729515        0.415968 
        2.15372        0.727326        0.413118 
        2.15985        0.721647        0.410291 
        2.16599        0.717446        0.407484 
        2.17213        0.714244        0.404705 
        2.17827         0.71217        0.401954 
         2.1844        0.708231         0.39923 
        2.19054         0.70493        0.396531 
        2.19666        0.699857        0.393861 
         2.2028        0.696312        0.391213 
        2.20893        0.692541        0.388588 
        2.21508        0.690148        0.385985 
        2.22122        0.683875        0.383404 
        2.22736        0.680843        0.380853 
        2.23349        0.680261        0.378325 
        2.23962        0.675188         0.37582 
        2.24577         0.67045        0.373335 
         2.2519        0.667554        0.370875 
        2.25802        0.664466        0.368443 
        2.26417        0.659775        0.366025 
        2.27031        0.657159        0.363627 
        2.27644        0.654257        0.361257 
        2.28257        0.651293        0.358909 
        2.28872        0.647397        0.356577 
        2.29486        0.644238        0.354267 
        2.30099         0.64056        0.351982 
        2.30712        0.638071        0.349716 
        2.31326         0.63491        0.347466 
         2.3194        0.633195        0.345238 
        2.32553        0.629621        0.343032 
        2.33166         0.62601        0.340848 
         2.3378        0.622633        0.338679 
        2.34394        0.618148        0.336528 
        2.35007        0.616049          0.3344 
        2.35619        0.613651        0.332292 
        2.36233        0.609047        0.330198 
        2.36848         0.60743        0.328117 
        2.37462         0.60365        0.326059 
        2.38075        0.602527         0.32402 
        2.38689        0.598586        0.321998 
        2.39303         0.59674        0.319993 
        2.39916          0.5917        0.318007 
        2.40529        0.590515        0.316038 
        2.41143        0.587854        0.314085 
        2.41757         0.58469        0.312147 
         2.4237         0.58212         0.31023 
        2.42983        0.579701        0.308328 
        2.43598         0.57674        0.306438 
        2.44211        0.574569        0.304567 
        2.44823        0.571735        0.302715 
        2.45437        0.568577        0.300874 
        2.46052        0.567572        0.299047 
        2.46665        0.563725        0.297239 
        2.47279        0.560808        0.295446 
        2.47892        0.557618        0.293666 
        2.48507        0.555787          0.2919 
         2.4912        0.553276        0.290151 
