# k  (h/Mpc)    P(k)  (Mpc/h)^3    P_linear(k)  (Mpc/h)^3
     0.00783031         4108.58         4165.01 
       0.013688         4893.16         4888.07 
       0.019231         4707.77         4702.97 
      0.0249154         4081.59         4118.52 
      0.0312784         3368.91         3373.18 
      0.0375637         2775.95         2762.84 
      0.0433917          2361.3         2368.28 
      0.0492413         2118.43         2115.76 
      0.0555754         1923.53         1942.59 
      0.0619321         1815.73         1804.04 
       0.067871         1649.53         1661.58 
      0.0738098          1482.3         1492.41 
      0.0800417         1286.05         1298.91 
      0.0862327         1115.76         1116.92 
      0.0921407         981.159         974.081 
      0.0982031         870.352         868.055 
       0.104506         812.285         797.742 
       0.110769         765.669         755.083 
       0.116806         727.723         723.989 
       0.122832          696.71         689.689 
       0.129052         644.016         643.715 
       0.135211         591.102         588.319 
       0.141259         541.113         530.729 
       0.147318         492.164         477.571 
       0.153489         445.863         433.797 
       0.159709         416.417         402.156 
       0.165845         399.083          381.41 
       0.171974         379.509         366.995 
       0.178125          366.48         354.173 
       0.184229         352.105         339.442 
        0.19034         327.987         321.141 
       0.196428         312.808         300.036 
       0.202534         295.471         278.107 
       0.208729         274.048         257.544 
       0.214876          255.85         240.539 
       0.220989         245.484         227.505 
       0.227147         232.876         217.702 
        0.23329         224.479         209.963 
       0.239377         218.649         202.869 
       0.245482         206.171         195.223 
       0.251667         201.147         186.467 
       0.257832         192.314         176.918 
       0.263955         183.011         167.263 
       0.270079         174.266         158.183 
        0.27624         168.974         150.169 
       0.282372         162.224         143.513 
        0.28843         155.678         138.071 
       0.294538         149.601         133.347 
       0.300721         146.962         128.892 
        0.30691         140.389         124.387 
       0.313033         136.094         119.718 
       0.319153         129.555         114.862 
       0.325316         126.644         109.968 
        0.33145         121.347         105.311 
       0.337538         118.393         101.075 
       0.343633         113.972         97.3002 
       0.349808         110.464         93.9126 
       0.355968         107.844          90.868 
       0.362074         104.533         88.0305 
       0.368217         101.422         85.2451 
       0.374374         98.3165          82.449 
       0.380519         95.9286          79.647 
       0.386598         93.1469         76.9121 
       0.392688         91.1584         74.2638 
        0.39888         88.4499         71.7251 
       0.405048         86.1389         69.3856 
       0.411186         84.1015         67.2326 
       0.417313         81.6619         65.2353 
       0.423458         79.6561         63.3415 
       0.429607          77.632           61.51 
       0.435692         74.9972          59.737 
       0.441815         74.0779         57.9871 
       0.447964         72.7291         56.2652 
       0.454126         69.4852         54.5927 
       0.460267         68.5323          52.999 
       0.466387          66.895         51.4928 
        0.47254         65.6506         50.0573 
       0.478662         64.6843         48.7031 
       0.484765         62.7062         47.4162 
       0.490885         61.4184         46.1744 
       0.497035          60.632         44.9619 
       0.503198         58.8897          43.779 
       0.509342         57.4502         42.6334 
       0.515458         56.4075         41.5288 
       0.521598         55.5107         40.4577 
       0.527764         54.4621         39.4224 
       0.533884         53.5745         38.4366 
           0.54         52.3484         37.4933 
       0.546137         51.6901         36.5835 
       0.552299         50.8762         35.7017 
       0.558452         49.4098         34.8484 
       0.564573         48.5448          34.024 
       0.570708         47.8478         33.2224 
       0.576825         46.9214         32.4477 
       0.582926         45.9025         31.6995 
       0.589034         44.8797         30.9743 
       0.595184         44.3102         30.2679 
       0.601379          43.574         29.5799 
       0.607522         42.5831         28.9202 
       0.613639         42.3386         28.2848 
       0.619772         41.2906         27.6677 
       0.625918         40.9677          27.068 
       0.632068         40.3697         26.4854 
       0.638161         39.6514         25.9243 
         0.6443         38.9494         25.3748 
       0.650464         38.3321          24.839 
       0.656582          37.991         24.3225 
       0.662703         37.2157          23.821 
       0.668861         36.6413         23.3314 
       0.675024         36.0852         22.8558 
       0.681124         35.4625         22.3988 
       0.687237         34.8406         21.9535 
       0.693381         34.5703         21.5184 
       0.699536         33.7916         21.0943 
       0.705665         33.8541         20.6833 
       0.711789         32.9703         20.2835 
       0.717957         32.5719         19.8914 
        0.72409         32.1449          19.512 
       0.730186         31.6357         19.1448 
       0.736317         31.3953         18.7852 
       0.742472         30.8444         18.4336 
       0.748622         30.5646         18.0915 
        0.75476         30.1094          17.759 
       0.760888         29.6253         17.4354 
       0.767043         29.2767         17.1187 
       0.773185         28.8436         16.8106 
       0.779291         28.7029         16.5118 
       0.785407         28.4043         16.2199 
       0.791564         27.9095         15.9333 
       0.797719          27.305         15.6538 
       0.803834         27.2687         15.3828 
       0.809972         26.9314         15.1173 
       0.816124         26.4212         14.8575 
       0.822261         26.1898         14.6046 
       0.828378         26.0031         14.3583 
       0.834502         25.6991         14.1176 
       0.840667         25.3867         13.8809 
       0.846816         24.9611         13.6503 
       0.852925          24.742         13.4264 
       0.859047         24.4519         13.2072 
       0.865192         24.2068         12.9921 
       0.871341         24.0819         12.7818 
       0.877463         23.6107         12.5771 
       0.883569         23.3736         12.3774 
       0.889708         23.1153          12.181 
       0.895864         22.8935         11.9885 
       0.902008         22.7082         11.8005 
       0.908149         22.4669         11.6168 
       0.914301         22.3922         11.4366 
       0.920448          21.984         11.2605 
       0.926574         21.7895         11.0887 
       0.932687         21.5566         10.9209 
       0.938823         21.2636          10.756 
       0.944975         21.1169         10.5941 
       0.951105         20.9094         10.4362 
       0.957225         20.6648         10.2818 
       0.963368         20.5918         10.1299 
       0.969511         20.3711         9.98121 
       0.975621         20.2069         9.83628 
       0.981748         19.9009         9.69386 
       0.987916         19.7979         9.55339 
        0.99406           19.58         9.41624 
        1.00019          19.345         9.28206 
        1.00632         19.2338         9.15064 
        1.01246         19.1217         9.02157 
        1.01859         18.7982         8.89521 
        1.02471         18.7606         8.77144 
        1.03085         18.5827         8.64961 
        1.03698         18.2792         8.53036 
        1.04314         18.1789         8.41287 
        1.04929         17.9891         8.29787 
        1.05541         17.8008          8.1855 
        1.06154         17.7189         8.07495 
        1.06769           17.61         7.96628 
        1.07382         17.4036         7.85998 
        1.07993         17.3042         7.75587 
        1.08607         17.0859         7.65323 
        1.09222         17.0085         7.55236 
        1.09836         16.8025         7.45343 
        1.10449         16.6957         7.35639 
        1.11063         16.4916         7.26099 
        1.11677         16.4431         7.16733 
         1.1229         16.3463         7.07548 
        1.12903         16.1322         6.98518 
        1.13518          15.977         6.89638 
        1.14131         15.9381         6.80919 
        1.14745         15.7861         6.72356 
        1.15359         15.7081         6.63939 
        1.15973         15.5305         6.55663 
        1.16584         15.3424         6.47566 
        1.17197         15.3401         6.39595 
        1.17811         15.1521         6.31734 
        1.18424         15.0347         6.24028 
        1.19038         14.9801          6.1643 
        1.19652         14.8616         6.08961 
        1.20267         14.7385         6.01616 
        1.20881         14.6375         5.94394 
        1.21495         14.5488         5.87303 
        1.22108         14.4112         5.80329 
         1.2272         14.2818         5.73485 
        1.23334         14.2123         5.66736 
        1.23949         14.0724          5.6008 
        1.24562         14.0159          5.5355 
        1.25174         13.9272         5.47134 
        1.25789         13.8042           5.408 
        1.26402          13.758         5.34578 
        1.27014         13.6041         5.28469 
        1.27628         13.4785         5.22438 
        1.28244         13.4275          5.1649 
        1.28858         13.3835         5.10642 
        1.29471         13.2551         5.04899 
        1.30084         13.1431          4.9925 
        1.30697         13.0706         4.93678 
        1.31312         12.9343         4.88185 
        1.31925         12.8539         4.82792 
        1.32537         12.8177         4.77487 
        1.33151          12.711         4.72242 
        1.33765         12.6424          4.6708 
        1.34378          12.564         4.62005 
        1.34992         12.4215         4.57003 
        1.35606         12.4072         4.52064 
         1.3622         12.3266         4.47207 
        1.36833         12.2063         4.42434 
        1.37445           12.18         4.37733 
        1.38059         12.0783         4.33086 
        1.38675         11.9443         4.28495 
        1.39288          11.931          4.2399 
        1.39901         11.8322         4.19552 
        1.40515         11.7829         4.15167 
         1.4113         11.6924         4.10847 
        1.41742         11.6017         4.06605 
        1.42355         11.5491         4.02415 
         1.4297         11.5093         3.98272 
        1.43585         11.4482         3.94188 
        1.44198         11.3553         3.90178 
        1.44809         11.2868         3.86231 
        1.45423         11.2197         3.82324 
        1.46036         11.1552         3.78478 
        1.46649         11.1077         3.74684 
        1.47263         11.0052         3.70939 
        1.47877         10.9497         3.67247 
        1.48491         10.9153           3.636 
        1.49104          10.857          3.6001 
        1.49718         10.7718         3.56465 
        1.50333         10.7251         3.52963 
        1.50947         10.6574         3.49516 
         1.5156         10.5793         3.46119 
        1.52172         10.5397         3.42768 
        1.52787         10.4825         3.39455 
          1.534         10.4011         3.36189 
        1.54013         10.3284          3.3297 
        1.54627         10.2742         3.29788 
        1.55241          10.231         3.26646 
        1.55855         10.1699          3.2355 
        1.56467         10.1125         3.20503 
         1.5708         10.1051         3.17487 
        1.57695         10.0116         3.14505 
        1.58308         9.96797         3.11568 
        1.58922          9.9201         3.08667 
        1.59535         9.86309         3.05804 
         1.6015         9.79109         3.02973 
        1.60764         9.74664         3.00179 
        1.61376         9.71045         2.97429 
        1.61989         9.63456         2.94711 
        1.62604         9.62241         2.92021 
        1.63218         9.55875         2.89366 
        1.63831         9.51875         2.86751 
        1.64444         9.43622         2.84166 
        1.65059         9.38818         2.81608 
        1.65673         9.37927         2.79084 
        1.66285         9.28263         2.76598 
        1.66898         9.27087         2.74141 
        1.67512         9.22343          2.7171 
        1.68127         9.17467         2.69305 
         1.6874          9.1206         2.66936 
        1.69353         9.05523         2.64596 
        1.69967         9.03224         2.62278 
        1.70581         8.99715          2.5999 
        1.71193         8.93088         2.57738 
        1.71806         8.90016         2.55507 
        1.72421         8.84735         2.53298 
        1.73035         8.80628         2.51119 
        1.73649         8.77389         2.48965 
        1.74262          8.7414         2.46838 
        1.74876         8.70365         2.44735 
        1.75489          8.6514         2.42661 
        1.76101         8.58737         2.40611 
        1.76715         8.58254         2.38583 
        1.77329         8.50547         2.36575 
        1.77943          8.4711         2.34589 
        1.78557         8.45696          2.3263 
        1.79171         8.42065         2.30692 
        1.79785          8.3484         2.28776 
        1.80399         8.32407         2.26882 
        1.81012         8.30106         2.25013 
        1.81625         8.24713         2.23165 
        1.82239         8.20962         2.21335 
        1.82853         8.15832         2.19527 
        1.83466         8.12213          2.1774 
        1.84078         8.08024         2.15976 
        1.84692         8.06416         2.14228 
        1.85306         8.01709         2.12497 
         1.8592         7.98051         2.10789 
        1.86533         7.95893           2.091 
        1.87147         7.91787         2.07427 
        1.87761         7.89166         2.05773 
        1.88375         7.82174         2.04138 
        1.88988          7.8238         2.02523 
        1.89601         7.78247         2.00924 
        1.90215         7.73888         1.99341 
        1.90829         7.70322         1.97777 
        1.91442         7.67199         1.96229 
        1.92056         7.64393         1.94699 
         1.9267         7.60955         1.93183 
        1.93284          7.5635         1.91683 
        1.93897         7.53027         1.90202 
        1.94509         7.50057         1.88739 
        1.95123          7.4803         1.87288 
        1.95737         7.44762         1.85852 
        1.96349         7.41667         1.84434 
        1.96964         7.36913         1.83027 
        1.97578         7.34222         1.81634 
        1.98192         7.31115         1.80258 
        1.98805         7.29226         1.78896 
        1.99419         7.25013         1.77549 
        2.00033         7.22941         1.76214 
        2.00647         7.19696         1.74894 
         2.0126         7.16235          1.7359 
        2.01874         7.13455         1.72297 
        2.02488         7.09162         1.71015 
        2.03101         7.08295          1.6975 
        2.03714         7.04107         1.68498 
        2.04328         7.02226         1.67258 
        2.04941         6.97074         1.66031 
        2.05554          6.9669         1.64817 
        2.06167         6.92183         1.63614 
        2.06781         6.91171         1.62422 
        2.07396         6.88849         1.61241 
        2.08009         6.85981         1.60073 
        2.08622         6.80223         1.58919 
        2.09237         6.80439         1.57773 
        2.09851          6.7757         1.56639 
        2.10464         6.73869         1.55518 
        2.11077         6.70087         1.54409 
        2.11691         6.67909         1.53308 
        2.12305         6.65969         1.52218 
        2.12918         6.63593         1.51142 
        2.13531         6.60919         1.50075 
        2.14145          6.5821         1.49017 
         2.1476         6.56416         1.47967 
        2.15372         6.53592         1.46933 
        2.15985         6.50967         1.45908 
        2.16599         6.48785          1.4489 
        2.17213         6.45913         1.43882 
        2.17827         6.44086         1.42884 
         2.1844         6.41185         1.41897 
        2.19054         6.37246         1.40919 
        2.19666         6.36424         1.39951 
         2.2028          6.3371         1.38991 
        2.20893         6.32174          1.3804 
        2.21508         6.28487         1.37097 
        2.22122         6.25781         1.36162 
        2.22736         6.24288         1.35238 
        2.23349          6.2082         1.34323 
        2.23962         6.20082         1.33416 
        2.24577         6.16889         1.32516 
         2.2519         6.15364         1.31626 
        2.25802         6.12298         1.30746 
        2.26417         6.10517         1.29871 
        2.27031         6.07005         1.29003 
        2.27644         6.05521         1.28146 
        2.28257         6.03133         1.27296 
        2.28872         6.01328         1.26453 
        2.29486         5.99302         1.25618 
        2.30099         5.98264         1.24792 
        2.30712         5.95031         1.23972 
        2.31326         5.92261         1.23159 
         2.3194         5.90265         1.22354 
        2.32553          5.8858         1.21557 
        2.33166         5.86067         1.20768 
         2.3378         5.84041         1.19984 
        2.34394         5.82213         1.19207 
        2.35007         5.79652         1.18439 
        2.35619         5.77211         1.17678 
        2.36233         5.75292         1.16921 
        2.36848         5.74277          1.1617 
        2.37462         5.72148         1.15428 
        2.38075          5.6957         1.14692 
        2.38689         5.67609         1.13962 
        2.39303         5.65324         1.13239 
        2.39916         5.63944         1.12522 
        2.40529         5.62024         1.11812 
        2.41143         5.59615         1.11107 
        2.41757         5.59027         1.10409 
         2.4237         5.56472         1.09717 
        2.42983         5.54007         1.09032 
        2.43598          5.5341          1.0835 
        2.44211          5.5038         1.07676 
        2.44823         5.48701         1.07009 
        2.45437         5.47477         1.06345 
        2.46052         5.44645         1.05687 
        2.46665         5.43092         1.05035 
        2.47279         5.40544         1.04389 
        2.47892         5.38933         1.03749 
        2.48507         5.37103         1.03113 
         2.4912          5.3533         1.02483 
