# k  (h/Mpc)    P(k)  (Mpc/h)^3    P_linear(k)  (Mpc/h)^3
     0.00783031         146.079         147.468 
       0.013688          162.16         162.646 
       0.019231         148.551         148.399 
      0.0249154         123.506         123.427 
      0.0312784         96.5885         96.1375 
      0.0375637         76.5296         76.0898 
      0.0433917         64.5631         64.2865 
      0.0492413         57.5258         57.3185 
      0.0555754         52.7095         52.6639 
      0.0619321         48.6767         48.5502 
       0.067871          43.935         43.9182 
      0.0738098         38.4496         38.4213 
      0.0800417         32.5115         32.4711 
      0.0862327         27.4141          27.325 
      0.0921407         23.7641         23.6685 
      0.0982031         21.3073         21.2482 
       0.104506         19.9103         19.8247 
       0.110769         19.0122         18.9666 
       0.116806         18.1571         18.1551 
       0.122832         17.0653         17.0426 
       0.129052          15.529         15.5248 
       0.135211         13.8467          13.836 
       0.141259         12.3042         12.2658 
       0.147318         11.0406         10.9871 
       0.153489         10.1084         10.0686 
       0.159709         9.51921         9.48807 
       0.165845          9.1695         9.12547 
       0.171974         8.82667         8.81869 
       0.178125         8.45723         8.44451 
       0.184229         7.97711         7.95648 
        0.19034         7.37803         7.37565 
       0.196428         6.79345         6.77593 
       0.202534         6.26925         6.22984 
       0.208729         5.80803         5.78336 
       0.214876         5.47132         5.45779 
       0.220989         5.25245          5.2259 
       0.227147         5.05041         5.04166 
        0.23329         4.87018         4.86312 
       0.239377         4.66912         4.66201 
       0.245482          4.4316         4.42831 
       0.251667         4.18637         4.17175 
       0.257832         3.92941         3.91901 
       0.263955         3.70602         3.69224 
       0.270079         3.51716         3.50202 
        0.27624         3.36826         3.34758 
       0.282372         3.24086         3.22173 
        0.28843         3.12315         3.11139 
       0.294538         3.01214         3.00179 
       0.300721         2.90108         2.88507 
        0.30691         2.77141         2.76105 
       0.313033         2.64593         2.63594 
       0.319153         2.51595         2.51488 
       0.325316         2.41869         2.40305 
        0.33145         2.31814         2.30471 
       0.337538         2.23218         2.21953 
       0.343633         2.15194         2.14369 
       0.349808         2.08323         2.07221 
       0.355968         2.01506         2.00282 
       0.362074         1.94307         1.93354 
       0.368217         1.87264         1.86349 
       0.374374         1.79965         1.79403 
       0.380519          1.7367         1.72729 
       0.386598         1.67677         1.66559 
       0.392688          1.6221         1.60862 
        0.39888          1.5661          1.5555 
       0.405048         1.51759         1.50654 
       0.411186         1.47122         1.46032 
       0.417313          1.4248         1.41561 
       0.423458         1.38311         1.37175 
       0.429607           1.337         1.32856 
       0.435692          1.2954         1.28689 
       0.441815         1.25496         1.24659 
       0.447964         1.21957         1.20816 
       0.454126         1.17985         1.17175 
       0.460267         1.14547         1.13757 
       0.466387         1.11207         1.10535 
        0.47254         1.08132         1.07433 
       0.478662           1.053         1.04448 
       0.484765         1.02191         1.01558 
       0.490885        0.995394        0.987465 
       0.497035        0.970116         0.96006 
       0.503198        0.941755        0.933546 
       0.509342        0.917943        0.908159 
       0.515458        0.891665        0.884013 
       0.521598         0.86858        0.860852 
       0.527764        0.844484        0.838538 
       0.533884         0.82615        0.817194 
           0.54        0.804703         0.79657 
       0.546137        0.784929        0.776538 
       0.552299        0.765294        0.757068 
       0.558452        0.744988        0.738248 
       0.564573        0.727914        0.720125 
       0.570708        0.710094        0.702567 
       0.576825         0.69276        0.685669 
       0.582926        0.677684        0.669422 
       0.589034        0.659275        0.653732 
       0.595184        0.644341        0.638473 
       0.601379        0.629825        0.623604 
       0.607522        0.616612        0.609311 
       0.613639        0.603621        0.595497 
       0.619772         0.58835        0.582058 
       0.625918        0.575852        0.568999 
       0.632068        0.563877        0.556336 
       0.638161        0.550892        0.544185 
         0.6443        0.539034        0.532326 
       0.650464         0.52623         0.52079 
       0.656582        0.516114        0.509685 
       0.662703        0.505361        0.498903 
       0.668861        0.495952        0.488371 
       0.675024        0.484813        0.478128 
       0.681124        0.473957        0.468279 
       0.687237         0.46527        0.458686 
       0.693381        0.456045        0.449316 
       0.699536        0.445363        0.440193 
       0.705665        0.436697        0.431366 
       0.711789         0.42918        0.422792 
       0.717957         0.41974        0.414395 
        0.72409        0.412003        0.406276 
       0.730186        0.403711        0.398425 
       0.736317        0.397313        0.390739 
       0.742472        0.389389        0.383229 
       0.748622        0.381555        0.375922 
        0.75476        0.373932        0.368821 
       0.760888        0.366835        0.361914 
       0.767043        0.361789        0.355156 
       0.773185        0.354032        0.348585 
       0.779291        0.347619        0.342218 
       0.785407        0.341422        0.336001 
       0.791564        0.335591          0.3299 
       0.797719        0.329861        0.323954 
       0.803834        0.324303        0.318192 
       0.809972         0.31808        0.312551 
       0.816124        0.312392        0.307035 
       0.822261        0.306688        0.301668 
       0.828378        0.301853        0.296445 
       0.834502        0.297087        0.291342 
       0.840667        0.291329        0.286327 
       0.846816        0.286545        0.281444 
       0.852925        0.282494        0.276706 
       0.859047        0.277718        0.272068 
       0.865192        0.272515        0.267521 
       0.871341         0.26806        0.263075 
       0.877463         0.26445        0.258751 
       0.883569        0.259726        0.254535 
       0.889708        0.255787        0.250392 
       0.895864        0.251418        0.246331 
       0.902008        0.247411        0.242368 
       0.908149        0.243418        0.238496 
       0.914301        0.239001        0.234701 
       0.920448        0.235554        0.230993 
       0.926574        0.231814        0.227378 
       0.932687        0.227983        0.223849 
       0.938823        0.225197        0.220381 
       0.944975        0.221813         0.21698 
       0.951105        0.218412        0.213662 
       0.957225        0.215615        0.210419 
       0.963368        0.212097        0.207233 
       0.969511         0.20858        0.204112 
       0.975621        0.205559        0.201073 
       0.981748        0.203156        0.198087 
       0.987916        0.199872        0.195144 
        0.99406        0.196831        0.192271 
        1.00019        0.194335        0.189462 
        1.00632        0.191064        0.186712 
        1.01246        0.188215        0.184012 
        1.01859         0.18591         0.18137 
        1.02471        0.183257        0.178783 
        1.03085        0.181136        0.176237 
        1.03698        0.178177        0.173747 
        1.04314        0.175779        0.171294 
        1.04929        0.173168        0.168895 
        1.05541         0.17114        0.166551 
        1.06154        0.168591        0.164245 
        1.06769        0.166129         0.16198 
        1.07382        0.163992        0.159765 
        1.07993        0.161636        0.157597 
        1.08607        0.159998         0.15546 
        1.09222        0.157507        0.153361 
        1.09836        0.155854        0.151302 
        1.10449        0.153829        0.149284 
        1.11063        0.151347        0.147301 
        1.11677        0.149347        0.145355 
         1.1229        0.147567        0.143447 
        1.12903        0.145601        0.141571 
        1.13518        0.143912        0.139728 
        1.14131        0.141981        0.137918 
        1.14745        0.139694        0.136142 
        1.15359        0.138279        0.134396 
        1.15973        0.136278        0.132681 
        1.16584        0.134973        0.131003 
        1.17197        0.133177        0.129352 
        1.17811        0.131855        0.127724 
        1.18424        0.130331        0.126128 
        1.19038        0.128423        0.124556 
        1.19652        0.126635         0.12301 
        1.20267        0.125471        0.121491 
        1.20881        0.123868        0.119998 
        1.21495        0.122586        0.118532 
        1.22108        0.120903        0.117091 
         1.2272        0.119667        0.115677 
        1.23334        0.118039        0.114283 
        1.23949        0.116771        0.112909 
        1.24562        0.115374        0.111561 
        1.25174        0.114125        0.110238 
        1.25789        0.112985        0.108931 
        1.26402        0.111272        0.107649 
        1.27014        0.110147         0.10639 
        1.27628        0.108982        0.105147 
        1.28244        0.107486        0.103922 
        1.28858        0.106426        0.102718 
        1.29471        0.105511        0.101535 
        1.30084        0.104102        0.100373 
        1.30697        0.102873       0.0992265 
        1.31312        0.101502       0.0980966 
        1.31925        0.100511       0.0969878 
        1.32537       0.0995443       0.0958972 
        1.33151       0.0985409       0.0948195 
        1.33765       0.0974524        0.093759 
        1.34378       0.0961838       0.0927168 
        1.34992       0.0951942       0.0916897 
        1.35606       0.0942054       0.0906759 
         1.3622       0.0932912       0.0896793 
        1.36833       0.0921866          0.0887 
        1.37445       0.0909879       0.0877358 
        1.38059       0.0901849       0.0867829 
        1.38675        0.089468       0.0858419 
        1.39288       0.0884477       0.0849185 
        1.39901       0.0874779       0.0840092 
        1.40515       0.0867035       0.0831111 
         1.4113       0.0855875       0.0822264 
        1.41742       0.0847476        0.081358 
        1.42355       0.0840297       0.0805004 
         1.4297       0.0829974       0.0796527 
        1.43585       0.0822333       0.0788174 
        1.44198       0.0814854       0.0779973 
        1.44809       0.0805458       0.0771904 
        1.45423       0.0797976       0.0763919 
        1.46036       0.0789649       0.0756061 
        1.46649       0.0783552       0.0748311 
        1.47263       0.0774397       0.0740663 
        1.47877       0.0765582       0.0733125 
        1.48491       0.0759013        0.072568 
        1.49104       0.0750419       0.0718353 
        1.49718       0.0742639       0.0711122 
        1.50333       0.0737809       0.0703979 
        1.50947       0.0729322       0.0696948 
         1.5156       0.0721841       0.0690023 
        1.52172       0.0715446       0.0683193 
        1.52787       0.0708312       0.0676441 
          1.534       0.0700743       0.0669788 
        1.54013       0.0694387       0.0663232 
        1.54627       0.0689409       0.0656751 
        1.55241       0.0681166       0.0650356 
        1.55855       0.0674555       0.0644054 
        1.56467       0.0670848       0.0637854 
         1.5708       0.0663137       0.0631717 
        1.57695       0.0656819       0.0625652 
        1.58308       0.0650208        0.061968 
        1.58922       0.0644684       0.0613782 
        1.59535       0.0638886       0.0607962 
         1.6015       0.0632483        0.060221 
        1.60764       0.0627009       0.0596535 
        1.61376       0.0620698       0.0590948 
        1.61989       0.0615992       0.0585428 
        1.62604       0.0610568       0.0579966 
        1.63218       0.0604863       0.0574578 
        1.63831       0.0599788       0.0569269 
        1.64444       0.0593908       0.0564026 
        1.65059       0.0588972       0.0558837 
        1.65673       0.0584054       0.0553718 
        1.66285       0.0579502       0.0548677 
        1.66898       0.0573988       0.0543697 
        1.67512       0.0568227        0.053877 
        1.68127       0.0563129       0.0533899 
         1.6874       0.0559311       0.0529098 
        1.69353       0.0552927        0.052436 
        1.69967       0.0549913       0.0519668 
        1.70581       0.0543354       0.0515035 
        1.71193       0.0539368       0.0510476 
        1.71806        0.053422       0.0505962 
        1.72421       0.0531439       0.0501494 
        1.73035        0.052554       0.0497085 
        1.73649       0.0522127        0.049273 
        1.74262       0.0517398        0.048843 
        1.74876       0.0512795       0.0484178 
        1.75489       0.0509072       0.0479986 
        1.76101       0.0504256       0.0475844 
        1.76715       0.0500007       0.0471745 
        1.77329       0.0495156        0.046769 
        1.77943       0.0491628        0.046368 
        1.78557       0.0488097       0.0459724 
        1.79171       0.0484201       0.0455812 
        1.79785       0.0480159       0.0451945 
        1.80399       0.0475996       0.0448124 
        1.81012       0.0472433       0.0444352 
        1.81625       0.0468534       0.0440625 
        1.82239       0.0464632       0.0436935 
        1.82853       0.0460948       0.0433288 
        1.83466       0.0457096       0.0429687 
        1.84078       0.0453395        0.042613 
        1.84692       0.0449326       0.0422608 
        1.85306       0.0446938       0.0419121 
         1.8592       0.0442543       0.0415679 
        1.86533       0.0439864       0.0412277 
        1.87147       0.0435582        0.040891 
        1.87761       0.0433045       0.0405578 
        1.88375        0.042975       0.0402287 
        1.88988       0.0425892       0.0399037 
        1.89601       0.0422757        0.039582 
        1.90215        0.041928       0.0392636 
        1.90829       0.0415419       0.0389489 
        1.91442         0.04135       0.0386375 
        1.92056        0.040988       0.0383299 
         1.9267        0.040657       0.0380252 
        1.93284       0.0403391       0.0377237 
        1.93897       0.0400589        0.037426 
        1.94509       0.0398088       0.0371322 
        1.95123       0.0394626       0.0368408 
        1.95737       0.0391749       0.0365522 
        1.96349       0.0388362       0.0362675 
        1.96964       0.0385566        0.035985 
        1.97578       0.0382665       0.0357054 
        1.98192       0.0380266       0.0354293 
        1.98805       0.0377534       0.0351561 
        1.99419       0.0374272       0.0348857 
        2.00033       0.0371266        0.034618 
        2.00647       0.0369769       0.0343532 
         2.0126       0.0365828       0.0340916 
        2.01874       0.0364137       0.0338324 
        2.02488       0.0361536       0.0335755 
        2.03101       0.0358974       0.0333219 
        2.03714       0.0355592        0.033071 
        2.04328        0.035388       0.0328225 
        2.04941       0.0350474       0.0325767 
        2.05554       0.0348722       0.0323336 
        2.06167       0.0346649       0.0320927 
        2.06781       0.0343597       0.0318541 
        2.07396       0.0341226       0.0316177 
        2.08009       0.0338925        0.031384 
        2.08622       0.0336589       0.0311529 
        2.09237       0.0334239       0.0309238 
        2.09851       0.0331909       0.0306968 
        2.10464       0.0329791       0.0304726 
        2.11077       0.0327385       0.0302508 
        2.11691       0.0324938       0.0300307 
        2.12305       0.0322929       0.0298128 
        2.12918        0.032109       0.0295976 
        2.13531       0.0318074       0.0293845 
        2.14145       0.0315644        0.029173 
         2.1476       0.0313996       0.0289633 
        2.15372        0.031236       0.0287567 
        2.15985        0.030955       0.0285519 
        2.16599       0.0307671       0.0283485 
        2.17213       0.0305757       0.0281473 
        2.17827         0.03034       0.0279481 
         2.1844        0.030193        0.027751 
        2.19054       0.0299707       0.0275557 
        2.19666       0.0297575       0.0273626 
         2.2028       0.0295386       0.0271711 
        2.20893       0.0294042       0.0269814 
        2.21508       0.0291965       0.0267933 
        2.22122       0.0289587       0.0266069 
        2.22736       0.0288102       0.0264226 
        2.23349        0.028607       0.0262402 
        2.23962       0.0284829       0.0260593 
        2.24577       0.0282605         0.02588 
         2.2519       0.0280762       0.0257027 
        2.25802       0.0278912       0.0255272 
        2.26417       0.0277111       0.0253529 
        2.27031       0.0275215       0.0251801 
        2.27644       0.0273365       0.0250094 
        2.28257       0.0271876       0.0248402 
        2.28872       0.0270196       0.0246723 
        2.29486       0.0268886        0.024506 
        2.30099       0.0266727       0.0243416 
        2.30712       0.0264617       0.0241786 
        2.31326       0.0263189       0.0240167 
         2.3194       0.0262123       0.0238565 
        2.32553       0.0260109        0.023698 
        2.33166       0.0259072        0.023541 
         2.3378        0.025715       0.0233852 
        2.34394       0.0255327       0.0232307 
        2.35007       0.0253642       0.0230779 
        2.35619       0.0251711       0.0229266 
        2.36233       0.0250869       0.0227763 
        2.36848       0.0249869        0.022627 
        2.37462       0.0247776       0.0224794 
        2.38075       0.0246215       0.0223333 
        2.38689       0.0244778       0.0221883 
        2.39303       0.0243519       0.0220446 
        2.39916       0.0241769       0.0219023 
        2.40529       0.0240586       0.0217614 
        2.41143       0.0238822       0.0216215 
        2.41757       0.0237524       0.0214828 
         2.4237       0.0236407       0.0213455 
        2.42983       0.0235093       0.0212095 
        2.43598       0.0233786       0.0210743 
        2.44211       0.0231886       0.0209405 
        2.44823       0.0230792       0.0208081 
        2.45437       0.0229347       0.0206766 
        2.46052       0.0228052        0.020546 
        2.46665       0.0226451       0.0204168 
        2.47279       0.0225322       0.0202888 
        2.47892        0.022364       0.0201617 
        2.48507       0.0222515       0.0200356 
         2.4912       0.0221382       0.0199109 
