# k  (h/Mpc)    Pcb(k)  (Mpc/h)^3    Pcb_linear(k)  (Mpc/h)^3
     0.00783031         3121.45         3158.26 
       0.013688         3486.77         3482.67 
       0.019231         3183.64         3177.35 
      0.0249154         2627.34         2642.56 
      0.0312784         2061.66         2058.24 
      0.0375637          1639.5            1629 
      0.0433917         1376.56          1376.3 
      0.0492413         1230.02         1227.12 
      0.0555754         1120.04         1127.47 
      0.0619321         1045.78          1039.4 
       0.067871         936.302         940.231 
      0.0738098         819.821         822.544 
      0.0800417         691.978         695.153 
      0.0862327         586.654         584.981 
      0.0921407         511.279         506.701 
      0.0982031         456.568         454.886 
       0.104506         430.867         424.413 
       0.110769         410.173         406.044 
       0.116806          389.91         388.671 
       0.122832         367.925         364.855 
       0.129052         333.074          332.36 
       0.135211         298.096         296.206 
       0.141259         267.516         262.589 
       0.147318         241.538         235.214 
       0.153489         220.574         215.549 
       0.159709         208.328         203.122 
       0.165845         201.562          195.36 
       0.171974         192.515         188.793 
       0.178125         184.876         180.782 
       0.184229         174.856         170.335 
        0.19034         160.449         157.899 
       0.196428         149.895         145.061 
       0.202534         140.076         133.369 
       0.208729          129.73         123.811 
       0.214876         121.958         116.842 
       0.220989         117.697         111.877 
       0.227147         112.482         107.933 
        0.23329         108.409         104.111 
       0.239377         104.617         99.8051 
       0.245482         98.1745         94.8023 
       0.251667         94.2027         89.3099 
       0.257832          89.048          83.899 
       0.263955         84.3104         79.0446 
       0.270079         80.1931         74.9718 
        0.27624         77.6181         71.6653 
       0.282372         74.8737         68.9713 
        0.28843         71.8711         66.6093 
       0.294538         69.0859          64.263 
       0.300721         67.2447         61.7641 
        0.30691         64.0029         59.1091 
       0.313033         61.4256         56.4306 
       0.319153         58.1645         53.8389 
       0.325316         56.7729         51.4449 
        0.33145         54.3029         49.3396 
       0.337538         52.7256          47.516 
       0.343633         50.7203         45.8925 
       0.349808         49.2375         44.3621 
       0.355968         47.8399         42.8766 
       0.362074         46.2025         41.3938 
       0.368217         44.5972         39.8938 
       0.374374         43.0411         38.4069 
       0.380519         41.8048         36.9781 
       0.386598         40.5057         35.6572 
       0.392688         39.4948         34.4378 
        0.39888         38.1838         33.3003 
       0.405048          37.144         32.2523 
       0.411186         36.1642         31.2627 
       0.417313          35.005         30.3057 
       0.423458         34.0219         29.3667 
       0.429607         33.0491         28.4421 
       0.435692          31.926           27.55 
       0.441815         31.2667         26.6873 
       0.447964         30.6204         25.8644 
       0.454126          29.328         25.0849 
       0.460267          28.805         24.3534 
       0.466387          27.922         23.6635 
        0.47254         27.3813         22.9995 
       0.478662         26.8914         22.3604 
       0.484765         25.9921         21.7418 
       0.490885         25.3825         21.1398 
       0.497035         25.0113         20.5532 
       0.503198          24.264         19.9855 
       0.509342         23.6199         19.4421 
       0.515458         23.0653         18.9251 
       0.521598         22.6258         18.4293 
       0.527764         22.0875         17.9516 
       0.533884         21.7117         17.4946 
           0.54         21.1567         17.0531 
       0.546137         20.8033         16.6243 
       0.552299         20.4215         16.2074 
       0.558452         19.7735         15.8045 
       0.564573         19.4393         15.4166 
       0.570708         19.0718         15.0407 
       0.576825         18.6014         14.6789 
       0.582926         18.1903         14.3311 
       0.589034         17.7144         13.9952 
       0.595184         17.4701         13.6685 
       0.601379         17.0741         13.3502 
       0.607522         16.7534         13.0442 
       0.613639          16.548         12.7485 
       0.619772         16.1054         12.4608 
       0.625918         15.9786         12.1812 
       0.632068          15.716         11.9101 
       0.638161          15.334           11.65 
         0.6443         15.0168         11.3961 
       0.650464         14.7157         11.1491 
       0.656582         14.6063         10.9114 
       0.662703         14.3053         10.6806 
       0.668861         14.0155         10.4551 
       0.675024         13.7463         10.2358 
       0.681124         13.5046          10.025 
       0.687237         13.2619         9.81962 
       0.693381         13.1103         9.61903 
       0.699536         12.7553         9.42373 
       0.705665          12.675         9.23474 
       0.711789          12.387         9.05119 
       0.717957         12.1834         8.87144 
        0.72409          11.995         8.69762 
       0.730186         11.8186         8.52954 
       0.736317          11.674         8.36501 
       0.742472         11.4632         8.20422 
       0.748622         11.3201          8.0478 
        0.75476         11.0985         7.89578 
       0.760888         10.9147         7.74791 
       0.767043         10.7668         7.60324 
       0.773185         10.5671         7.46257 
       0.779291         10.4867         7.32625 
       0.785407         10.3555         7.19316 
       0.791564         10.1661         7.06254 
       0.797719         9.92106         6.93525 
       0.803834         9.89626         6.81191 
       0.809972         9.78846         6.69115 
       0.816124         9.56784         6.57306 
       0.822261          9.4309         6.45815 
       0.828378         9.33055         6.34634 
       0.834502         9.23906         6.23709 
       0.840667         9.07619         6.12973 
       0.846816         8.90306         6.02519 
       0.852925         8.81519         5.92377 
       0.859047         8.70195         5.82447 
       0.865192         8.61827         5.72713 
       0.871341         8.52165         5.63195 
       0.877463         8.37898         5.53938 
       0.883569         8.25431         5.44913 
       0.889708         8.10922         5.36043 
       0.895864         8.01962         5.27349 
       0.902008         7.95845         5.18866 
       0.908149         7.86745         5.10575 
       0.914301         7.78851         5.02452 
       0.920448          7.6496         4.94514 
       0.926574         7.55942         4.86775 
       0.932687         7.46196         4.79219 
       0.938823          7.3678         4.71796 
       0.944975         7.27306         4.64513 
       0.951105         7.19254          4.5741 
       0.957225         7.13706         4.50468 
       0.963368         7.05967         4.43647 
       0.969511         6.97397         4.36967 
       0.975621         6.89634         4.30459 
       0.981748         6.79756         4.24068 
       0.987916          6.7489         4.17767 
        0.99406         6.64047         4.11617 
        1.00019         6.54047         4.05603 
        1.00632          6.5142         3.99715 
        1.01246         6.43686         3.93935 
        1.01859         6.32919         3.88279 
        1.02471         6.29362         3.82741 
        1.03085         6.21773         3.77292 
        1.03698         6.12177          3.7196 
        1.04314         6.07802         3.66709 
        1.04929         6.00229         3.61572 
        1.05541         5.92593         3.56554 
        1.06154         5.88231         3.51619 
        1.06769         5.85111          3.4677 
        1.07382         5.76033         3.42028 
        1.07993         5.69403         3.37386 
        1.08607         5.65102         3.32811 
        1.09222         5.59527         3.28317 
        1.09836         5.52236          3.2391 
        1.10449         5.47929          3.1959 
        1.11063         5.40785         3.15344 
        1.11677         5.37659         3.11177 
         1.1229         5.33612         3.07092 
        1.12903         5.26043         3.03078 
        1.13518         5.19367         2.99131 
        1.14131         5.15752         2.95258 
        1.14745         5.10049         2.91454 
        1.15359         5.06525         2.87718 
        1.15973         5.00405         2.84045 
        1.16584         4.94027         2.80453 
        1.17197         4.90108         2.76918 
        1.17811         4.87574         2.73432 
        1.18424         4.82225         2.70017 
        1.19038         4.79725          2.6665 
        1.19652         4.73607         2.63342 
        1.20267          4.6888          2.6009 
        1.20881         4.66963         2.56893 
        1.21495         4.62126         2.53755 
        1.22108         4.56298          2.5067 
         1.2272         4.52751         2.47643 
        1.23334          4.4803         2.44659 
        1.23949         4.43489         2.41717 
        1.24562         4.40986         2.38832 
        1.25174         4.37199         2.35998 
        1.25789         4.33303         2.33202 
        1.26402         4.30812         2.30456 
        1.27014         4.26418          2.2776 
        1.27628         4.21664           2.251 
        1.28244         4.17137         2.22477 
        1.28858         4.16707         2.19899 
        1.29471         4.11105         2.17368 
        1.30084         4.06808         2.14879 
        1.30697         4.06141         2.12425 
        1.31312         3.99492         2.10006 
        1.31925         3.96158         2.07633 
        1.32537         3.93518         2.05298 
        1.33151         3.91899         2.02991 
        1.33765         3.87111          2.0072 
        1.34378         3.84546         1.98489 
        1.34992         3.81473         1.96291 
        1.35606          3.7781          1.9412 
         1.3622         3.75865         1.91987 
        1.36833          3.7159          1.8989 
        1.37445         3.69032         1.87826 
        1.38059         3.67727         1.85786 
        1.38675          3.6423         1.83771 
        1.39288         3.62438         1.81795 
        1.39901         3.57474         1.79848 
        1.40515         3.55536         1.77925 
         1.4113          3.5277         1.76031 
        1.41742         3.49964         1.74172 
        1.42355         3.46609         1.72336 
         1.4297         3.45113         1.70521 
        1.43585         3.42821         1.68733 
        1.44198         3.40847         1.66978 
        1.44809         3.37518          1.6525 
        1.45423         3.34807         1.63541 
        1.46036         3.31711         1.61859 
        1.46649          3.3019         1.60199 
        1.47263         3.26801         1.58562 
        1.47877         3.24617         1.56948 
        1.48491         3.22573         1.55354 
        1.49104         3.20354         1.53786 
        1.49718            3.18         1.52238 
        1.50333          3.1614         1.50709 
        1.50947         3.12919         1.49203 
         1.5156         3.11299         1.47721 
        1.52172         3.09462         1.46259 
        1.52787         3.07117         1.44813 
          1.534         3.04436         1.43389 
        1.54013         3.02796         1.41985 
        1.54627         3.00229         1.40598 
        1.55241         2.97887         1.39229 
        1.55855          2.9653          1.3788 
        1.56467         2.94401         1.36552 
         1.5708         2.92664         1.35239 
        1.57695         2.90263          1.3394 
        1.58308         2.87487         1.32662 
        1.58922         2.87028         1.31399 
        1.59535         2.85187         1.30153 
         1.6015         2.82262         1.28922 
        1.60764         2.80348         1.27707 
        1.61376         2.79076         1.26511 
        1.61989         2.76928         1.25329 
        1.62604         2.75305          1.2416 
        1.63218         2.74341         1.23006 
        1.63831         2.71525          1.2187 
        1.64444         2.70436         1.20747 
        1.65059         2.67324         1.19636 
        1.65673         2.67298         1.18541 
        1.66285         2.64532         1.17461 
        1.66898         2.62954         1.16395 
        1.67512         2.61503          1.1534 
        1.68127         2.59688         1.14298 
         1.6874         2.58466          1.1327 
        1.69353         2.56006         1.12256 
        1.69967         2.55373         1.11251 
        1.70581         2.53818         1.10259 
        1.71193         2.51679         1.09283 
        1.71806         2.50436         1.08317 
        1.72421         2.48927          1.0736 
        1.73035         2.47575         1.06417 
        1.73649         2.45949         1.05484 
        1.74262         2.44174         1.04564 
        1.74876         2.43175         1.03653 
        1.75489         2.41643         1.02756 
        1.76101         2.39768         1.01869 
        1.76715         2.38965         1.00992 
        1.77329         2.37381         1.00124 
        1.77943         2.35295        0.992652 
        1.78557         2.34196        0.984181 
        1.79171         2.33168        0.975807 
        1.79785         2.31646        0.967529 
        1.80399         2.30313        0.959348 
        1.81012         2.28665        0.951273 
        1.81625          2.2788        0.943294 
        1.82239         2.26537        0.935394 
        1.82853         2.24656        0.927588 
        1.83466         2.23644        0.919879 
        1.84078         2.22985        0.912264 
        1.84692         2.21788        0.904724 
        1.85306         2.20032        0.897259 
         1.8592         2.18564         0.88989 
        1.86533         2.17355        0.882608 
        1.87147         2.16363        0.875398 
        1.87761         2.15067        0.868266 
        1.88375         2.13719        0.861221 
        1.88988         2.12952        0.854262 
        1.89601         2.11334        0.847375 
        1.90215         2.10095        0.840559 
        1.90829         2.08871        0.833821 
        1.91442         2.07943        0.827156 
        1.92056         2.06954         0.82057 
         1.9267         2.05506        0.814048 
        1.93284          2.0468        0.807593 
        1.93897         2.03531         0.80122 
        1.94509         2.02807         0.79493 
        1.95123         2.01392        0.788691 
        1.95737          1.9981        0.782514 
        1.96349         1.99471        0.776419 
        1.96964         1.98583        0.770371 
        1.97578         1.96793        0.764384 
        1.98192         1.96256        0.758474 
        1.98805         1.95077        0.752624 
        1.99419         1.94018        0.746836 
        2.00033         1.93316        0.741106 
        2.00647         1.92173        0.735437 
         2.0126         1.91587        0.729837 
        2.01874         1.89959        0.724286 
        2.02488         1.89069        0.718788 
        2.03101         1.88053        0.713358 
        2.03714         1.86998        0.707988 
        2.04328         1.85983        0.702667 
        2.04941         1.84912        0.697405 
        2.05554         1.84279        0.692201 
        2.06167         1.83287        0.687043 
        2.06781         1.82716        0.681936 
        2.07396          1.8185        0.676874 
        2.08009         1.80861        0.671871 
        2.08622         1.79864        0.666925 
        2.09237         1.78429        0.662019 
        2.09851         1.78348        0.657161 
        2.10464         1.77501        0.652359 
        2.11077         1.76086        0.647611 
        2.11691         1.75311          0.6429 
        2.12305         1.74738        0.638235 
        2.12918         1.74029        0.633628 
        2.13531         1.73078        0.629065 
        2.14145         1.72265        0.624537 
         2.1476         1.71191        0.620048 
        2.15372         1.70255        0.615625 
        2.15985         1.70076        0.611241 
        2.16599         1.68583        0.606887 
        2.17213         1.67764         0.60258 
        2.17827         1.67455        0.598315 
         2.1844         1.66646        0.594095 
        2.19054         1.65645        0.589915 
        2.19666          1.6482        0.585781 
         2.2028         1.64024        0.581682 
        2.20893         1.63268         0.57762 
        2.21508         1.62635        0.573593 
        2.22122         1.61706        0.569602 
        2.22736         1.61086        0.565658 
        2.23349         1.60403        0.561752 
        2.23962         1.59496         0.55788 
        2.24577         1.59069        0.554042 
         2.2519         1.58567        0.550245 
        2.25802         1.57689        0.546489 
        2.26417         1.57129        0.542758 
        2.27031         1.56153        0.539058 
        2.27644          1.5535        0.535403 
        2.28257         1.54159        0.531782 
        2.28872         1.54302        0.528187 
        2.29486         1.53268        0.524627 
        2.30099          1.5246        0.521106 
        2.30712         1.51828        0.517616 
        2.31326         1.51067        0.514152 
         2.3194         1.50572        0.510722 
        2.32553         1.50227        0.507328 
        2.33166         1.49412        0.503967 
         2.3378         1.48631        0.500631 
        2.34394          1.4791        0.497325 
        2.35007         1.47311        0.494053 
        2.35619         1.46732        0.490814 
        2.36233         1.46038        0.487597 
        2.36848         1.45368        0.484401 
        2.37462         1.45064        0.481241 
        2.38075         1.44155        0.478112 
        2.38689         1.43865        0.475008 
        2.39303         1.43014        0.471932 
        2.39916         1.42464        0.468887 
        2.40529         1.41805        0.465868 
        2.41143         1.41135        0.462874 
        2.41757         1.40775        0.459905 
         2.4237         1.40233        0.456967 
        2.42983           1.394        0.454055 
        2.43598         1.38785         0.45116 
        2.44211         1.38151        0.448296 
        2.44823         1.37704        0.445462 
        2.45437         1.37089        0.442645 
        2.46052          1.3678         0.43985 
        2.46665         1.36083        0.437084 
        2.47279         1.35373        0.434343 
        2.47892         1.34857        0.431623 
        2.48507         1.34531        0.428924 
         2.4912         1.33517        0.426253 
