# k  (h/Mpc)    Pcb(k)  (Mpc/h)^3    Pcb_linear(k)  (Mpc/h)^3
     0.00783031         10990.4         11142.5 
       0.013688         12501.6         12413.5 
       0.019231           11517         11473.7 
      0.0249154         9588.29         9713.48 
      0.0312784         7718.49         7737.38 
      0.0375637         6286.57         6242.24 
      0.0433917         5299.28         5327.13 
      0.0492413          4760.9         4756.13 
      0.0555754         4279.15         4349.29 
      0.0619321         4026.78         3989.77 
       0.067871         3568.72         3607.94 
      0.0738098         3148.81         3174.11 
      0.0800417         2684.24         2713.33 
      0.0862327         2323.09         2314.33 
      0.0921407         2066.05         2025.29 
      0.0982031         1847.27         1825.59 
       0.104506         1755.96         1697.75 
       0.110769         1653.83         1612.17 
       0.116806         1560.79            1533 
       0.122832         1470.62         1435.33 
       0.129052         1329.13         1311.48 
       0.135211         1209.33         1178.21 
       0.141259          1112.4         1055.01 
       0.147318         1020.96         953.108 
       0.153489         933.385         876.852 
       0.159709         886.186          824.74 
       0.165845         854.777         788.642 
       0.171974         812.292         757.293 
       0.178125         775.464         722.358 
       0.184229         735.638         680.868 
        0.19034         676.771         634.043 
       0.196428         648.366         586.653 
       0.202534         615.851         543.265 
       0.208729         576.919         506.737 
       0.214876         545.761          478.59 
       0.220989         526.312         457.003 
       0.227147         503.077          438.91 
        0.23329         482.946         421.688 
       0.239377         469.803         403.572 
       0.245482         436.028         383.839 
       0.251667         427.696          362.99 
       0.257832         408.895          342.69 
       0.263955         391.582         324.267 
       0.270079         374.187         308.298 
        0.27624          367.21         294.703 
       0.282372         353.621         283.092 
        0.28843         341.988           272.7 
       0.294538         325.475         262.575 
       0.300721         321.538         252.234 
        0.30691         305.911         241.697 
       0.313033         297.948         231.323 
       0.319153         286.184         221.349 
       0.325316         278.228         212.023 
        0.33145         268.161          203.61 
       0.337538         263.342         196.086 
       0.343633         254.079         189.217 
       0.349808          245.22         182.694 
       0.355968         241.495         176.432 
       0.362074         235.657         170.337 
       0.368217         228.628         164.309 
       0.374374         219.473         158.421 
       0.380519         216.416         152.783 
       0.386598         210.502         147.521 
       0.392688         207.152         142.589 
        0.39888         201.615         137.906 
       0.405048         196.154         133.529 
       0.411186         191.916         129.386 
       0.417313         187.783         125.405 
       0.423458         183.515          121.54 
       0.429607         179.497         117.784 
       0.435692         173.898          114.19 
       0.441815         172.114         110.716 
       0.447964         168.568         107.386 
       0.454126         161.768         104.208 
       0.460267          159.66         101.198 
       0.466387         157.549         98.3379 
        0.47254         153.596         95.5804 
       0.478662         152.786         92.9359 
       0.484765         147.473         90.3896 
       0.490885         145.256         87.9225 
       0.497035         143.047         85.5272 
       0.503198         139.265          83.213 
       0.509342         137.299         80.9938 
       0.515458         135.143         78.8734 
       0.521598         132.464         76.8288 
       0.527764         130.732         74.8532 
       0.533884         128.756         72.9626 
           0.54         126.345         71.1384 
       0.546137          125.14         69.3692 
       0.552299         122.691         67.6518 
       0.558452         120.878         65.9934 
       0.564573         118.837         64.3975 
       0.570708           116.4         62.8511 
       0.576825         114.983         61.3614 
       0.582926         112.651         59.9264 
       0.589034         111.231         58.5376 
       0.595184         109.759         57.1849 
       0.601379         108.097         55.8662 
       0.607522         105.936         54.5991 
       0.613639         105.143         53.3759 
       0.619772         103.015         52.1869 
       0.625918         101.662          51.032 
       0.632068         100.478         49.9118 
       0.638161         99.4484         48.8359 
         0.6443         98.0936         47.7846 
       0.650464         97.0754         46.7609 
       0.656582         95.3264         45.7749 
       0.662703         94.1138         44.8171 
       0.668861         92.6055         43.8814 
       0.675024         91.4864         42.9718 
       0.681124         90.7097         42.0972 
       0.687237         88.9862         41.2454 
       0.693381          87.745         40.4134 
       0.699536         87.0503          39.603 
       0.705665         86.8063         38.8187 
       0.711789         84.8157         38.0565 
       0.717957         84.4634         37.3097 
        0.72409         82.9933         36.5873 
       0.730186         81.7326         35.8885 
       0.736317         81.2903         35.2043 
       0.742472         80.5189         34.5354 
       0.748622         79.5605         33.8846 
        0.75476         78.7253         33.2521 
       0.760888         77.6562         32.6367 
       0.767043         77.1084         32.0345 
       0.773185         76.2019         31.4489 
       0.779291         75.0982         30.8813 
       0.785407         74.5923          30.327 
       0.791564         74.0023         29.7829 
       0.797719         72.5296         29.2525 
       0.803834          72.198         28.7384 
       0.809972         71.1824          28.235 
       0.816124          70.777         27.7425 
       0.822261         70.1524         27.2632 
       0.828378         69.5765         26.7968 
       0.834502         68.9411         26.3409 
       0.840667         68.0401         25.8927 
       0.846816         67.1587         25.4562 
       0.852925         66.6976         25.0327 
       0.859047         65.8082         24.6179 
       0.865192         65.4001         24.2112 
       0.871341         64.8665         23.8135 
       0.877463         63.9087         23.4265 
       0.883569         63.6273         23.0492 
       0.889708         63.0502         22.6783 
       0.895864         62.5669         22.3147 
       0.902008         61.9667         21.9598 
       0.908149         61.5086          21.613 
       0.914301         60.8831          21.273 
       0.920448         60.4323         20.9408 
       0.926574         59.7845         20.6168 
       0.932687         59.7127         20.3005 
       0.938823         58.7289         19.9896 
       0.944975         58.1747         19.6846 
       0.951105          57.723         19.3871 
       0.957225          57.119         19.0962 
       0.963368         56.8334         18.8104 
       0.969511         56.5473         18.5304 
       0.975621         56.1851         18.2576 
       0.981748         55.5636         17.9897 
       0.987916         55.0265         17.7255 
        0.99406         54.6973         17.4676 
        1.00019         54.2296         17.2153 
        1.00632          53.835         16.9683 
        1.01246         53.4929         16.7257 
        1.01859         52.7234         16.4883 
        1.02471         52.5854         16.2559 
        1.03085         52.1214         16.0271 
        1.03698         51.7726         15.8032 
        1.04314         51.2962         15.5826 
        1.04929         50.9325         15.3668 
        1.05541         50.4156          15.156 
        1.06154         50.3926         14.9486 
        1.06769         49.9188         14.7448 
        1.07382         49.6468         14.5454 
        1.07993         49.2878         14.3502 
        1.08607         48.9091         14.1578 
        1.09222         48.6381         13.9688 
        1.09836         48.1824         13.7834 
        1.10449         47.9796         13.6017 
        1.11063         47.4588          13.423 
        1.11677         47.1975         13.2476 
         1.1229         46.7802         13.0756 
        1.12903         46.2482         12.9066 
        1.13518          46.401         12.7404 
        1.14131         46.0569         12.5773 
        1.14745         45.5064         12.4171 
        1.15359         45.3735         12.2596 
        1.15973         44.8922         12.1049 
        1.16584         44.6553         11.9535 
        1.17197         44.3754         11.8045 
        1.17811         44.1918         11.6576 
        1.18424         43.7676         11.5136 
        1.19038          43.446         11.3717 
        1.19652         43.3332         11.2322 
        1.20267          42.883         11.0951 
        1.20881         42.7298         10.9602 
        1.21495         42.3288         10.8279 
        1.22108         42.2402         10.6977 
         1.2272         41.7033           10.57 
        1.23334          41.542         10.4441 
        1.23949         41.4841         10.3199 
        1.24562         41.0006         10.1981 
        1.25174         40.8701         10.0785 
        1.25789         40.7208         9.96041 
        1.26402         40.3476         9.84443 
        1.27014         40.0019         9.73058 
        1.27628         39.7819         9.61819 
        1.28244         39.5928         9.50736 
        1.28858          39.432         9.39842 
        1.29471         39.2352         9.29144 
        1.30084         39.0002         9.18623 
        1.30697         38.7104         9.08249 
        1.31312         38.4443          8.9802 
        1.31925         38.2631         8.87982 
        1.32537         38.0999         8.78107 
        1.33151         37.7436         8.68347 
        1.33765         37.6161         8.58742 
        1.34378         37.3646         8.49302 
        1.34992         37.1587         8.39997 
        1.35606          36.963         8.30811 
         1.3622         36.7216          8.2178 
        1.36833         36.4785         8.12905 
        1.37445         36.3327         8.04166 
        1.38059         36.0934         7.95529 
        1.38675         35.8419         7.86998 
        1.39288          35.728         7.78627 
        1.39901         35.5303         7.70381 
        1.40515         35.3142         7.62237 
         1.4113         35.1545         7.54214 
        1.41742         35.0007         7.46336 
        1.42355         34.7047         7.38557 
         1.4297          34.599         7.30866 
        1.43585         34.4561         7.23287 
        1.44198         34.1177         7.15844 
        1.44809         34.0556          7.0852 
        1.45423         33.8513         7.01272 
        1.46036         33.7339         6.94138 
        1.46649         33.5328         6.87101 
        1.47263         33.2959         6.80155 
        1.47877         33.1389         6.73309 
        1.48491          33.157         6.66546 
        1.49104         32.8104         6.59891 
        1.49718         32.4836         6.53321 
        1.50333         32.5188          6.4683 
        1.50947         32.3649         6.40441 
         1.5156         32.1271         6.34148 
        1.52172          32.044          6.2794 
        1.52787         31.9057         6.21802 
          1.534         31.7135         6.15753 
        1.54013          31.491         6.09792 
        1.54627         31.4123         6.03899 
        1.55241         31.0875         5.98082 
        1.55855         31.0561         5.92351 
        1.56467          30.735         5.86711 
         1.5708         30.8348         5.81128 
        1.57695         30.5639         5.75609 
        1.58308         30.3913         5.70175 
        1.58922         30.3451         5.64807 
        1.59535         30.2002         5.59511 
         1.6015         29.9543         5.54275 
        1.60764         29.7541         5.49108 
        1.61376         29.6651         5.44022 
        1.61989         29.4964         5.38996 
        1.62604         29.3785         5.34023 
        1.63218         29.3457         5.29115 
        1.63831         29.1177          5.2428 
        1.64444         28.9749         5.19504 
        1.65059          28.858         5.14776 
        1.65673         28.6672         5.10113 
        1.66285          28.542         5.05519 
        1.66898         28.4121         5.00981 
        1.67512         28.2543          4.9649 
        1.68127         28.1102          4.9205 
         1.6874         27.9773         4.87674 
        1.69353         27.8603         4.83354 
        1.69967         27.7239         4.79076 
        1.70581          27.667         4.74851 
        1.71193         27.5368         4.70693 
        1.71806         27.2744         4.66576 
        1.72421         27.1875         4.62501 
        1.73035         27.0613         4.58479 
        1.73649         26.8816         4.54505 
        1.74262         26.8103         4.50582 
        1.74876         26.7527         4.46702 
        1.75489         26.5959         4.42876 
        1.76101         26.4526         4.39096 
        1.76715         26.3702         4.35355 
        1.77329         26.2821         4.31653 
        1.77943         26.1651         4.27993 
        1.78557         25.9518          4.2438 
        1.79171         25.8554         4.20808 
        1.79785         25.7206         4.17277 
        1.80399          25.699         4.13787 
        1.81012         25.5151         4.10342 
        1.81625         25.4165         4.06937 
        1.82239          25.294         4.03566 
        1.82853         25.1869         4.00234 
        1.83466         25.0667         3.96944 
        1.84078         24.8603         3.93694 
        1.84692         24.8073         3.90475 
        1.85306         24.6754         3.87288 
         1.8592         24.5639         3.84142 
        1.86533         24.4732         3.81032 
        1.87147         24.4194         3.77954 
        1.87761         24.2909         3.74908 
        1.88375         24.1749         3.71899 
        1.88988          24.101         3.68926 
        1.89601         23.9806         3.65985 
        1.90215         23.8599         3.63073 
        1.90829         23.7929         3.60194 
        1.91442         23.6729         3.57346 
        1.92056         23.5633         3.54531 
         1.9267         23.4665         3.51744 
        1.93284         23.2904         3.48985 
        1.93897          23.281          3.4626 
        1.94509         23.1428         3.43571 
        1.95123         23.0502         3.40904 
        1.95737         22.9173         3.38262 
        1.96349         22.8563         3.35656 
        1.96964         22.7641         3.33069 
        1.97578          22.598         3.30509 
        1.98192         22.5395          3.2798 
        1.98805          22.479         3.25478 
        1.99419         22.3606         3.23002 
        2.00033         22.2644          3.2055 
        2.00647         22.1607         3.18125 
         2.0126         22.0667         3.15728 
        2.01874         21.9858         3.13353 
        2.02488         21.9059            3.11 
        2.03101         21.8102         3.08675 
        2.03714         21.7022         3.06376 
        2.04328         21.5987         3.04099 
        2.04941         21.5045         3.01846 
        2.05554         21.4394         2.99617 
        2.06167         21.3417         2.97408 
        2.06781         21.2324         2.95221 
        2.07396         21.1781         2.93053 
        2.08009         21.1111         2.90911 
        2.08622         20.9556         2.88792 
        2.09237         20.8977          2.8669 
        2.09851         20.8214         2.84609 
        2.10464           20.71         2.82552 
        2.11077         20.6303         2.80517 
        2.11691         20.5665         2.78498 
        2.12305         20.5091         2.76499 
        2.12918         20.3896         2.74524 
        2.13531         20.3457         2.72569 
        2.14145         20.2691         2.70628 
         2.1476         20.1649         2.68703 
        2.15372         20.0576         2.66807 
        2.15985         19.9689         2.64927 
        2.16599         19.9304         2.63061 
        2.17213         19.8447         2.61214 
        2.17827         19.7083         2.59385 
         2.1844         19.6379         2.57575 
        2.19054         19.5783         2.55782 
        2.19666         19.5006         2.54009 
         2.2028         19.4035          2.5225 
        2.20893         19.3506         2.50508 
        2.21508         19.2858          2.4878 
        2.22122         19.1318         2.47068 
        2.22736         19.1065         2.45375 
        2.23349         19.0237         2.43699 
        2.23962         18.9499         2.42037 
        2.24577         18.8625          2.4039 
         2.2519         18.8154          2.3876 
        2.25802         18.6853         2.37147 
        2.26417         18.6746         2.35545 
        2.27031         18.5659         2.33957 
        2.27644         18.4831         2.32387 
        2.28257         18.4075         2.30833 
        2.28872         18.3333         2.29289 
        2.29486         18.2915          2.2776 
        2.30099         18.1858         2.26248 
        2.30712         18.1415         2.24749 
        2.31326         18.1054         2.23261 
         2.3194          18.007         2.21787 
        2.32553         17.9186         2.20329 
        2.33166         17.8304         2.18885 
         2.3378         17.7698         2.17451 
        2.34394         17.6895         2.16031 
        2.35007         17.6414         2.14624 
        2.35619         17.5553         2.13232 
        2.36233         17.4883         2.11849 
        2.36848          17.425         2.10476 
        2.37462         17.3366         2.09117 
        2.38075         17.2959         2.07772 
        2.38689         17.2289         2.06438 
        2.39303         17.1413         2.05115 
        2.39916         17.0753         2.03805 
        2.40529          17.035         2.02507 
        2.41143         16.9399          2.0122 
        2.41757         16.8926         1.99942 
         2.4237         16.7984         1.98679 
        2.42983         16.7103         1.97426 
        2.43598         16.6828         1.96181 
        2.44211          16.619         1.94948 
        2.44823         16.5655         1.93729 
        2.45437         16.4641         1.92517 
        2.46052         16.4259         1.91314 
        2.46665         16.3806         1.90124 
        2.47279         16.2927         1.88944 
        2.47892          16.245         1.87774 
        2.48507         16.1557         1.86612 
         2.4912         16.1406         1.85462 
