# k  (h/Mpc)    Pcb(k)  (Mpc/h)^3    Pcb_linear(k)  (Mpc/h)^3
     0.00783031         13960.4         14162.2 
       0.013688         15914.9         15779.3 
       0.019231         14644.9         14584.8 
      0.0249154         12162.5         12347.3 
      0.0312784         9798.85         9835.32 
      0.0375637         7992.59         7934.76 
      0.0433917         6726.02         6771.51 
      0.0492413         6048.87         6045.67 
      0.0555754         5423.33         5528.52 
      0.0619321         5119.41         5071.51 
       0.067871         4525.49         4586.15 
      0.0738098         3996.32          4034.7 
      0.0800417          3406.7         3448.98 
      0.0862327         2954.82          2941.8 
      0.0921407         2636.63          2574.4 
      0.0982031         2356.67         2320.55 
       0.104506         2245.15         2158.05 
       0.110769         2112.17         2049.27 
       0.116806         1994.72         1948.63 
       0.122832         1878.49         1824.48 
       0.129052         1696.57         1667.06 
       0.135211         1547.59         1497.64 
       0.141259         1430.04         1341.04 
       0.147318         1316.04         1211.52 
       0.153489         1202.84         1114.59 
       0.159709         1143.51         1048.35 
       0.165845          1103.6         1002.46 
       0.171974         1049.93         962.611 
       0.178125         1000.93         918.205 
       0.184229          949.38         865.466 
        0.19034         875.894         805.946 
       0.196428         841.794         745.707 
       0.202534         800.714         690.556 
       0.208729         752.117         644.124 
       0.214876         713.734         608.346 
       0.220989         688.181         580.907 
       0.227147          659.26         557.908 
        0.23329         632.615         536.016 
       0.239377         616.576         512.989 
       0.245482         572.125         487.906 
       0.251667         563.253         461.404 
       0.257832         538.289         435.601 
       0.263955         516.785         412.183 
       0.270079         494.419         391.884 
        0.27624          486.37         374.603 
       0.282372         467.936         359.844 
        0.28843         454.959         346.635 
       0.294538         431.862         333.764 
       0.300721         427.794          320.62 
        0.30691         407.453         307.226 
       0.313033         397.747          294.04 
       0.319153         383.932         281.361 
       0.325316         372.688         269.507 
        0.33145         360.197         258.812 
       0.337538         353.801         249.249 
       0.343633         341.984         240.517 
       0.349808          329.57         232.226 
       0.355968         325.576         224.267 
       0.362074          319.09          216.52 
       0.368217         309.673         208.856 
       0.374374          296.21         201.372 
       0.380519          293.48         194.205 
       0.386598         285.518         187.517 
       0.392688         281.928         181.247 
        0.39888         274.198         175.295 
       0.405048          267.23         169.732 
       0.411186         262.046         164.465 
       0.417313         256.611         159.405 
       0.423458          250.85         154.492 
       0.429607         246.178         149.718 
       0.435692         239.046         145.149 
       0.441815         236.514         140.733 
       0.447964         231.444           136.5 
       0.454126         223.815         132.461 
       0.460267         220.313         128.635 
       0.466387           217.5         124.999 
        0.47254         212.379         121.494 
       0.478662         211.728         118.133 
       0.484765         203.979         114.896 
       0.490885         201.411          111.76 
       0.497035         197.967         108.715 
       0.503198         193.689         105.774 
       0.509342         191.722         102.953 
       0.515458          188.77         100.258 
       0.521598         184.461         97.6587 
       0.527764         182.154         95.1475 
       0.533884         179.722         92.7443 
           0.54         176.742         90.4255 
       0.546137         175.395         88.1767 
       0.552299         171.648         85.9936 
       0.558452         170.137         83.8855 
       0.564573         167.448          81.857 
       0.570708         163.665         79.8913 
       0.576825         161.475         77.9978 
       0.582926         158.847         76.1737 
       0.589034         157.181         74.4083 
       0.595184         155.402          72.689 
       0.601379         152.998         71.0127 
       0.607522         150.397          69.402 
       0.613639         149.059         67.8472 
       0.619772         146.072         66.3359 
       0.625918         144.675         64.8678 
       0.632068         142.645          63.444 
       0.638161         141.547         62.0763 
         0.6443         139.428           60.74 
       0.650464         138.065         59.4388 
       0.656582         135.902         58.1854 
       0.662703         135.027          56.968 
       0.668861         132.592         55.7786 
       0.675024         130.772         54.6223 
       0.681124         129.942         53.5107 
       0.687237         127.863         52.4279 
       0.693381         125.861         51.3703 
       0.699536         125.025         50.3402 
       0.705665         124.182         49.3432 
       0.711789         122.051         48.3744 
       0.717957         121.848         47.4251 
        0.72409          119.81         46.5069 
       0.730186         118.174         45.6186 
       0.736317         117.025         44.7489 
       0.742472         116.178         43.8987 
       0.748622         114.995         43.0714 
        0.75476          113.84         42.2674 
       0.760888          112.47         41.4852 
       0.767043         111.933         40.7198 
       0.773185          110.81         39.9754 
       0.779291         108.711         39.2539 
       0.785407         108.219         38.5493 
       0.791564         107.429         37.8576 
       0.797719         105.291         37.1834 
       0.803834          104.85           36.53 
       0.809972         103.957           35.89 
       0.816124         103.347         35.2641 
       0.822261         102.333         34.6549 
       0.828378         101.399         34.0619 
       0.834502          100.92         33.4824 
       0.840667         99.3442         32.9127 
       0.846816         98.2247         32.3579 
       0.852925         97.7147         31.8195 
       0.859047         96.5616         31.2923 
       0.865192         95.7413         30.7753 
       0.871341         94.9368         30.2698 
       0.877463         93.7972         29.7779 
       0.883569         93.6201         29.2983 
       0.889708         92.6201         28.8269 
       0.895864         91.7171         28.3647 
       0.902008         91.0348         27.9136 
       0.908149         90.5937         27.4727 
       0.914301         89.5487         27.0406 
       0.920448         88.8535         26.6183 
       0.926574          88.143         26.2065 
       0.932687         88.1236         25.8043 
       0.938823         86.6778         25.4092 
       0.944975         85.8224         25.0215 
       0.951105         85.2924         24.6433 
       0.957225         84.5416         24.2736 
       0.963368         83.6177         23.9102 
       0.969511         83.5401         23.5544 
       0.975621         82.9461         23.2077 
       0.981748          82.406         22.8671 
       0.987916         81.5118         22.5312 
        0.99406         80.9067         22.2034 
        1.00019         80.5856         21.8827 
        1.00632         79.7442         21.5687 
        1.01246         79.3668         21.2604 
        1.01859         78.4497         20.9587 
        1.02471         77.8749         20.6632 
        1.03085         77.1932         20.3723 
        1.03698         76.9722         20.0877 
        1.04314         76.1754         19.8074 
        1.04929         75.7672         19.5331 
        1.05541         75.0507         19.2651 
        1.06154         74.8402         19.0014 
        1.06769         74.4424         18.7424 
        1.07382         73.8344          18.489 
        1.07993         73.3623         18.2409 
        1.08607         72.7332         17.9963 
        1.09222         72.5749          17.756 
        1.09836         71.8423         17.5204 
        1.10449         71.4725         17.2893 
        1.11063         70.8207         17.0622 
        1.11677         70.4764         16.8393 
         1.1229         69.8297         16.6207 
        1.12903         69.3338         16.4058 
        1.13518         69.2742         16.1946 
        1.14131         68.7692         15.9872 
        1.14745         68.1962         15.7836 
        1.15359         67.8296         15.5835 
        1.15973         67.4375         15.3868 
        1.16584         66.8297         15.1944 
        1.17197         66.4716          15.005 
        1.17811         66.1615         14.8182 
        1.18424          65.635         14.6352 
        1.19038         65.3522         14.4548 
        1.19652         64.9313         14.2775 
        1.20267         64.2566         14.1031 
        1.20881         64.0523         13.9318 
        1.21495          63.544         13.7635 
        1.22108         63.4311         13.5981 
         1.2272           62.63         13.4357 
        1.23334         62.3999         13.2757 
        1.23949         62.1196         13.1179 
        1.24562         61.6208         12.9631 
        1.25174         61.3362          12.811 
        1.25789          61.125         12.6609 
        1.26402         60.5342         12.5135 
        1.27014         60.2403         12.3687 
        1.27628          59.902         12.2259 
        1.28244         59.5258          12.085 
        1.28858         59.3912         11.9465 
        1.29471         59.0046         11.8105 
        1.30084         58.6306         11.6768 
        1.30697         58.2459         11.5449 
        1.31312          57.887         11.4149 
        1.31925         57.5479         11.2873 
        1.32537         57.3173         11.1618 
        1.33151         56.7813         11.0377 
        1.33765         56.6009         10.9156 
        1.34378          56.278         10.7956 
        1.34992         55.9571         10.6774 
        1.35606         55.6691         10.5606 
         1.3622         55.2257         10.4458 
        1.36833         55.0578          10.333 
        1.37445         54.6872         10.2219 
        1.38059         54.2883         10.1121 
        1.38675         54.0462         10.0037 
        1.39288         53.7636         9.89728 
        1.39901         53.5179         9.79247 
        1.40515         53.1528         9.68895 
         1.4113         52.9234         9.58696 
        1.41742          52.797         9.48683 
        1.42355         52.3675         9.38795 
         1.4297         52.2172         9.29018 
        1.43585         51.8409         9.19384 
        1.44198         51.4609         9.09924 
        1.44809          51.277         9.00614 
        1.45423         51.0626         8.91401 
        1.46036         50.7937         8.82333 
        1.46649         50.5155         8.73387 
        1.47263         50.2186         8.64559 
        1.47877         49.9362         8.55857 
        1.48491         49.7784          8.4726 
        1.49104         49.4756           8.388 
        1.49718         49.1072         8.30449 
        1.50333              49         8.22199 
        1.50947         48.7082         8.14078 
         1.5156          48.447         8.06078 
        1.52172         48.2354         7.98187 
        1.52787         48.1044         7.90385 
          1.534         47.6735         7.82697 
        1.54013         47.4226         7.75119 
        1.54627         47.3389         7.67628 
        1.55241         46.8471         7.60235 
        1.55855          46.735         7.52949 
        1.56467         46.4426          7.4578 
         1.5708          46.386         7.38683 
        1.57695         46.1753         7.31668 
        1.58308         45.8343         7.24761 
        1.58922         45.6005         7.17938 
        1.59535         45.4937         7.11205 
         1.6015         45.0877          7.0455 
        1.60764         44.9343         6.97982 
        1.61376          44.717         6.91517 
        1.61989         44.4788         6.85129 
        1.62604         44.2554         6.78807 
        1.63218         44.2064         6.72569 
        1.63831         43.7977         6.66423 
        1.64444         43.6464         6.60352 
        1.65059         43.5332         6.54343 
        1.65673         43.2441         6.48414 
        1.66285         42.9336         6.42576 
        1.66898         42.8512         6.36808 
        1.67512          42.475         6.31099 
        1.68127         42.3727         6.25455 
         1.6874         42.1628         6.19892 
        1.69353         41.9193         6.14401 
        1.69967         41.7783         6.08962 
        1.70581         41.6622         6.03593 
        1.71193         41.4619         5.98308 
        1.71806         41.0598         5.93075 
        1.72421         41.0197         5.87894 
        1.73035         40.8203         5.82781 
        1.73649         40.5166          5.7773 
        1.74262         40.3631         5.72743 
        1.74876         40.1626         5.67812 
        1.75489         40.0385         5.62949 
        1.76101         39.8717         5.58144 
        1.76715         39.6063         5.53388 
        1.77329         39.4147         5.48683 
        1.77943         39.2134          5.4403 
        1.78557         39.0467         5.39438 
        1.79171          38.909         5.34898 
        1.79785         38.6447         5.30409 
        1.80399         38.6277         5.25973 
        1.81012         38.2994         5.21593 
        1.81625         38.1002         5.17266 
        1.82239         38.0009          5.1298 
        1.82853         37.7858         5.08746 
        1.83466         37.5391         5.04563 
        1.84078         37.3416         5.00432 
        1.84692         37.2215         4.96341 
        1.85306         37.0097          4.9229 
         1.8592         36.8183         4.88291 
        1.86533         36.6855         4.84338 
        1.87147         36.5321         4.80425 
        1.87761         36.3923         4.76553 
        1.88375         36.2041         4.72728 
        1.88988         36.0743          4.6895 
        1.89601          35.891          4.6521 
        1.90215         35.7361         4.61509 
        1.90829         35.6541         4.57849 
        1.91442         35.4343         4.54229 
        1.92056         35.1727         4.50651 
         1.9267         35.0854         4.47108 
        1.93284         34.8386         4.43601 
        1.93897         34.7901         4.40139 
        1.94509         34.5928          4.3672 
        1.95123         34.4423         4.33329 
        1.95737         34.2502         4.29972 
        1.96349         34.1054         4.26659 
        1.96964         34.0057         4.23371 
        1.97578         33.7704         4.20116 
        1.98192           33.64         4.16902 
        1.98805         33.5722         4.13722 
        1.99419         33.3818         4.10574 
        2.00033         33.2027         4.07458 
        2.00647         33.0871         4.04374 
         2.0126         32.8253         4.01328 
        2.01874         32.8226         3.98309 
        2.02488         32.6485         3.95318 
        2.03101         32.4837         3.92363 
        2.03714         32.3435         3.89441 
        2.04328         32.1761         3.86546 
        2.04941         32.0039         3.83682 
        2.05554         31.8614          3.8085 
        2.06167          31.789         3.78042 
        2.06781         31.5622         3.75262 
        2.07396         31.5063         3.72506 
        2.08009         31.3456         3.69782 
        2.08622         31.1367         3.67089 
        2.09237         31.0527         3.64417 
        2.09851          30.937         3.61772 
        2.10464         30.7816         3.59157 
        2.11077         30.6941         3.56571 
        2.11691         30.4621         3.54005 
        2.12305         30.3382         3.51463 
        2.12918         30.2237         3.48953 
        2.13531         30.0942         3.46467 
        2.14145         29.9314            3.44 
         2.1476         29.8108         3.41554 
        2.15372         29.6463         3.39144 
        2.15985         29.6019         3.36755 
        2.16599         29.4412         3.34381 
        2.17213         29.3689         3.32034 
        2.17827         29.1462         3.29709 
         2.1844         29.0807         3.27409 
        2.19054         28.9367          3.2513 
        2.19666         28.7786         3.22875 
         2.2028         28.6469          3.2064 
        2.20893         28.5936         3.18426 
        2.21508          28.478         3.16229 
        2.22122         28.3007         3.14053 
        2.22736         28.2225         3.11901 
        2.23349         28.0549          3.0977 
        2.23962         27.9277         3.07658 
        2.24577         27.7827         3.05564 
         2.2519         27.6738         3.03492 
        2.25802         27.6163         3.01443 
        2.26417         27.4484         2.99406 
        2.27031         27.3215         2.97387 
        2.27644         27.2231         2.95392 
        2.28257         27.1454         2.93416 
        2.28872         27.0001         2.91454 
        2.29486         26.8901          2.8951 
        2.30099         26.7542         2.87588 
        2.30712         26.6826         2.85682 
        2.31326         26.5257         2.83791 
         2.3194         26.4314         2.81918 
        2.32553         26.3457         2.80064 
        2.33166         26.2259         2.78229 
         2.3378         26.0587         2.76407 
        2.34394         26.0154         2.74601 
        2.35007         25.8738         2.72813 
        2.35619         25.7581         2.71044 
        2.36233         25.6444         2.69286 
        2.36848         25.5823          2.6754 
        2.37462         25.4039         2.65813 
        2.38075          25.391         2.64103 
        2.38689         25.2363         2.62407 
        2.39303         25.1049         2.60726 
        2.39916          24.962         2.59061 
        2.40529         24.9085         2.57411 
        2.41143         24.8136         2.55774 
        2.41757         24.7117         2.54151 
         2.4237         24.6367         2.52544 
        2.42983         24.4607         2.50952 
        2.43598         24.4074         2.49369 
        2.44211         24.2673         2.47803 
        2.44823         24.1977         2.46253 
        2.45437         24.0477         2.44712 
        2.46052         23.9268         2.43183 
        2.46665         23.8801          2.4167 
        2.47279         23.7695         2.40171 
        2.47892         23.6938         2.38683 
        2.48507         23.5527         2.37206 
         2.4912         23.4879         2.35745 
