# k  (h/Mpc)    Pcb(k)  (Mpc/h)^3    Pcb_linear(k)  (Mpc/h)^3
     0.00783031         1526.46         1541.89 
       0.013688         1877.92         1879.75 
       0.019231          1869.8         1869.23 
      0.0249154          1675.9         1686.11 
      0.0312784         1412.26         1413.06 
      0.0375637          1169.3         1165.15 
      0.0433917         989.851         990.663 
      0.0492413         873.815         871.882 
      0.0555754         787.866         791.583 
      0.0619321         742.298         738.286 
       0.067871         690.789         693.609 
      0.0738098         638.909         641.853 
      0.0800417         572.449         576.673 
      0.0862327         504.951         506.009 
      0.0921407         442.352         441.465 
      0.0982031         385.511         385.605 
       0.104506         346.267         342.644 
       0.110769         317.825         314.783 
       0.116806          299.26         298.398 
       0.122832         289.279         287.394 
       0.129052         276.239         276.551 
       0.135211         262.301          262.69 
       0.141259         246.071         244.893 
       0.147318         226.434         224.054 
       0.153489         204.139         202.306 
       0.159709          185.22         182.604 
       0.165845         171.393         167.133 
       0.171974         158.911         156.095 
       0.178125         151.907          148.79 
       0.184229         147.079         143.897 
        0.19034         140.996         139.738 
       0.196428         137.327         134.974 
       0.202534         132.277         128.832 
       0.208729         124.047         121.222 
       0.214876         115.344         112.933 
       0.220989         108.529         104.852 
       0.227147         100.595         97.6674 
        0.23329         94.9916         91.9051 
       0.239377         91.1757         87.6242 
       0.245482         86.9263         84.4618 
       0.251667         85.2491         81.9117 
       0.257832         82.6225         79.4973 
       0.263955         79.8569          76.823 
       0.270079         76.7164         73.6984 
        0.27624         73.9381         70.1709 
       0.282372          70.372         66.5029 
        0.28843         66.6212         63.0144 
       0.294538         63.4828         59.8647 
       0.300721          61.411          57.185 
        0.30691         58.6663         55.0059 
       0.313033         56.9069         53.2332 
       0.319153          54.557         51.6739 
       0.325316          53.807         50.1488 
        0.33145         51.9031         48.5526 
       0.337538         50.3766         46.8474 
       0.343633         48.3943          45.043 
       0.349808         46.7616          43.198 
       0.355968          45.105          41.427 
       0.362074         43.4384         39.8226 
       0.368217         42.0373         38.3919 
       0.374374         40.6519         37.1409 
       0.380519         39.6559         36.0367 
       0.386598         38.6354          35.027 
       0.392688         37.7967         34.0489 
        0.39888         36.6617          33.045 
       0.405048         35.7135         32.0203 
       0.411186         34.7472         30.9884 
       0.417313         33.5338         29.9645 
       0.423458         32.5916         28.9757 
       0.429607         31.6255           28.05 
       0.435692         30.6395          27.205 
       0.441815         30.0061         26.4254 
       0.447964         29.4619         25.7043 
       0.454126         28.3647         25.0218 
       0.460267         27.8373         24.3632 
       0.466387         26.9927         23.7176 
        0.47254          26.525          23.073 
       0.478662         26.0044         22.4349 
       0.484765         25.1857         21.8108 
       0.490885         24.5741         21.2069 
       0.497035         24.2296         20.6283 
       0.503198         23.5543         20.0791 
       0.509342         22.9519         19.5632 
       0.515458         22.4376         19.0784 
       0.521598          22.018         18.6136 
       0.527764         21.5112         18.1615 
       0.533884          21.143         17.7229 
           0.54         20.6559         17.2939 
       0.546137         20.2838         16.8728 
       0.552299         19.9122         16.4599 
       0.558452         19.2951         16.0593 
       0.564573         19.0076         15.6747 
       0.570708         18.6492         15.3053 
       0.576825         18.1724         14.9534 
       0.582926         17.8367         14.6167 
       0.589034          17.359         14.2912 
       0.595184         17.1141         13.9734 
       0.601379         16.7512         13.6619 
       0.607522         16.4837         13.3612 
       0.613639         16.2738         13.0697 
       0.619772          15.833         12.7853 
       0.625918         15.7146          12.508 
       0.632068         15.4527         12.2385 
       0.638161         15.0855         11.9798 
         0.6443         14.7772         11.7274 
       0.650464          14.489         11.4827 
       0.656582         14.3799         11.2477 
       0.662703         14.1066         11.0197 
       0.668861         13.8378         10.7969 
       0.675024         13.5705         10.5797 
       0.681124         13.3349           10.37 
       0.687237          13.124          10.165 
       0.693381         12.9643         9.96426 
       0.699536         12.6113         9.76849 
       0.705665         12.5041         9.57901 
       0.711789         12.2683         9.39509 
       0.717957         12.0725         9.21516 
        0.72409         11.8747         9.04127 
       0.730186         11.7119         8.87311 
       0.736317         11.5791          8.7084 
       0.742472         11.3898         8.54725 
       0.748622         11.2205         8.39019 
        0.75476         10.9985         8.23728 
       0.760888         10.8504         8.08831 
       0.767043         10.7153         7.94238 
       0.773185         10.5037         7.80033 
       0.779291         10.4278          7.6626 
       0.785407         10.2701         7.52805 
       0.791564         10.1031         7.39599 
       0.797719         9.90435         7.26726 
       0.803834         9.85602         7.14248 
       0.809972         9.75079         7.02025 
       0.816124         9.53943         6.90067 
       0.822261         9.40057         6.78422 
       0.828378         9.28809         6.67083 
       0.834502         9.21142         6.55994 
       0.840667         9.04702         6.45085 
       0.846816         8.88858         6.34455 
       0.852925         8.80846         6.24132 
       0.859047         8.69824         6.14017 
       0.865192         8.61804         6.04094 
       0.871341         8.52686         5.94386 
       0.877463         8.38242         5.84936 
       0.883569         8.25434         5.75716 
       0.889708         8.12157         5.66651 
       0.895864          8.0471         5.57758 
       0.902008         7.96701         5.49077 
       0.908149          7.8808         5.40588 
       0.914301         7.77517         5.32265 
       0.920448         7.65628         5.24128 
       0.926574         7.56431          5.1619 
       0.932687         7.48638         5.08434 
       0.938823         7.38703         5.00811 
       0.944975         7.29401         4.93328 
       0.951105         7.22067         4.86026 
       0.957225         7.18143         4.78885 
       0.963368         7.08584         4.71864 
       0.969511          7.0013         4.64985 
       0.975621         6.91369          4.5828 
       0.981748         6.83775         4.51692 
       0.987916         6.77753         4.45192 
        0.99406         6.66559         4.38846 
        1.00019           6.572         4.32636 
        1.00632          6.5498         4.26553 
        1.01246         6.47211         4.20578 
        1.01859         6.37805         4.14728 
        1.02471         6.32689         4.08998 
        1.03085         6.25561         4.03356 
        1.03698         6.17015         3.97834 
        1.04314         6.12695         3.92391 
        1.04929         6.04868         3.87064 
        1.05541         5.97836         3.81858 
        1.06154          5.9305         3.76736 
        1.06769         5.89948           3.717 
        1.07382         5.80157         3.66773 
        1.07993         5.74261         3.61947 
        1.08607         5.70779         3.57189 
        1.09222         5.64482         3.52512 
        1.09836         5.58431         3.47924 
        1.10449         5.53095         3.43424 
        1.11063         5.47083         3.38999 
        1.11677         5.43503         3.34653 
         1.1229          5.3867         3.30392 
        1.12903         5.31848         3.26202 
        1.13518         5.26262         3.22082 
        1.14131         5.20595         3.18035 
        1.14745         5.14719          3.1406 
        1.15359         5.11796         3.10153 
        1.15973         5.06157         3.06312 
        1.16584          5.0027         3.02553 
        1.17197          4.9621         2.98851 
        1.17811          4.9355         2.95201 
        1.18424         4.88697         2.91623 
        1.19038         4.85821         2.88094 
        1.19652         4.80205         2.84625 
        1.20267         4.75136         2.81213 
        1.20881         4.72527         2.77858 
        1.21495         4.68029         2.74564 
        1.22108         4.63094         2.71324 
         1.2272         4.60191         2.68143 
        1.23334         4.54367         2.65007 
        1.23949         4.50207         2.61914 
        1.24562         4.47902         2.58878 
        1.25174          4.4303         2.55896 
        1.25789         4.40002         2.52951 
        1.26402         4.36482         2.50058 
        1.27014         4.32549         2.47218 
        1.27628         4.28817         2.44414 
        1.28244         4.23776         2.41647 
        1.28858         4.22584         2.38928 
        1.29471         4.17388         2.36257 
        1.30084         4.13495         2.33629 
        1.30697         4.13352         2.31037 
        1.31312          4.0578         2.28481 
        1.31925         4.03628         2.25972 
        1.32537         4.00284         2.23503 
        1.33151         3.98698         2.21062 
        1.33765         3.93538         2.18659 
        1.34378         3.91109         2.16297 
        1.34992         3.89034         2.13969 
        1.35606         3.83876         2.11669 
         1.3622         3.82444         2.09408 
        1.36833         3.79091         2.07185 
        1.37445         3.76209         2.04996 
        1.38059         3.74841         2.02832 
        1.38675         3.71859         2.00694 
        1.39288         3.68668         1.98596 
        1.39901         3.64458         1.96528 
        1.40515         3.62252         1.94486 
         1.4113         3.59877         1.92473 
        1.41742         3.57283         1.90497 
        1.42355         3.54293         1.88544 
         1.4297         3.51546         1.86614 
        1.43585         3.49954         1.84711 
        1.44198         3.47982         1.82842 
        1.44809         3.44297         1.81002 
        1.45423         3.41586         1.79182 
        1.46036         3.38643         1.77389 
        1.46649         3.36597         1.75621 
        1.47263         3.33886         1.73875 
        1.47877         3.31253         1.72154 
        1.48491         3.29126         1.70453 
        1.49104         3.27264         1.68779 
        1.49718         3.24972         1.67127 
        1.50333          3.2298         1.65494 
        1.50947         3.20257         1.63886 
         1.5156         3.18082         1.62302 
        1.52172         3.16083         1.60739 
        1.52787         3.14101         1.59193 
          1.534         3.11375          1.5767 
        1.54013         3.09873         1.56168 
        1.54627         3.07037         1.54684 
        1.55241         3.04842         1.53218 
        1.55855         3.03581         1.51773 
        1.56467         3.01557         1.50351 
         1.5708         2.99216         1.48943 
        1.57695         2.96847         1.47552 
        1.58308           2.946         1.46181 
        1.58922         2.93717         1.44827 
        1.59535         2.91673          1.4349 
         1.6015         2.89365         1.42168 
        1.60764         2.87635         1.40864 
        1.61376          2.8608          1.3958 
        1.61989         2.84006         1.38311 
        1.62604         2.81943         1.37055 
        1.63218         2.81293         1.35815 
        1.63831         2.78611         1.34593 
        1.64444         2.76956         1.33387 
        1.65059         2.74893         1.32192 
        1.65673         2.73879         1.31013 
        1.66285         2.71463         1.29851 
        1.66898         2.70111         1.28704 
        1.67512          2.6793         1.27568 
        1.68127         2.66489         1.26445 
         1.6874         2.65736         1.25338 
        1.69353         2.62549         1.24244 
        1.69967          2.6157         1.23162 
        1.70581         2.60595         1.22092 
        1.71193         2.58543          1.2104 
        1.71806          2.5745         1.19998 
        1.72421         2.55725         1.18965 
        1.73035         2.54398         1.17947 
        1.73649         2.52593          1.1694 
        1.74262         2.50993         1.15946 
        1.74876         2.50198         1.14963 
        1.75489         2.48124         1.13993 
        1.76101         2.46325         1.13035 
        1.76715         2.45496         1.12087 
        1.77329         2.44347         1.11148 
        1.77943         2.41857          1.1022 
        1.78557         2.41004         1.09304 
        1.79171         2.40045         1.08397 
        1.79785         2.38169         1.07501 
        1.80399          2.3693         1.06616 
        1.81012         2.35838         1.05741 
        1.81625         2.34413         1.04877 
        1.82239         2.32858         1.04021 
        1.82853         2.31145         1.03175 
        1.83466         2.30626          1.0234 
        1.84078         2.29279         1.01514 
        1.84692         2.28281         1.00696 
        1.85306         2.26343        0.998868 
         1.8592         2.24973        0.990873 
        1.86533         2.23899         0.98297 
        1.87147         2.23117        0.975144 
        1.87761         2.21587        0.967401 
        1.88375         2.20274         0.95975 
        1.88988         2.19262        0.952191 
        1.89601         2.17894        0.944709 
        1.90215         2.16411        0.937302 
        1.90829         2.15147        0.929978 
        1.91442         2.14636        0.922731 
        1.92056         2.13089        0.915569 
         1.9267          2.1209        0.908475 
        1.93284         2.11419        0.901452 
        1.93897         2.10187        0.894517 
        1.94509         2.08717        0.887669 
        1.95123         2.07518        0.880877 
        1.95737         2.06319         0.87415 
        1.96349         2.05679        0.867511 
        1.96964         2.04884        0.860922 
        1.97578         2.03187        0.854399 
        1.98192          2.0244        0.847957 
        1.98805         2.01448         0.84158 
        1.99419         2.00552        0.835269 
        2.00033         1.99863         0.82902 
        2.00647         1.98345        0.822836 
         2.0126         1.97728        0.816726 
        2.01874         1.96062        0.810669 
        2.02488         1.95601        0.804667 
        2.03101         1.93958        0.798738 
        2.03714         1.93285        0.792875 
        2.04328         1.92456        0.787063 
        2.04941            1.91        0.781315 
        2.05554         1.90529        0.775628 
        2.06167         1.89624         0.76999 
        2.06781          1.8885        0.764407 
        2.07396         1.87939        0.758872 
        2.08009          1.8691        0.753401 
        2.08622         1.85857        0.747991 
        2.09237         1.85005        0.742623 
        2.09851         1.84128        0.737307 
        2.10464         1.83696        0.732052 
        2.11077         1.82424        0.726854 
        2.11691         1.81537        0.721696 
        2.12305         1.80879        0.716587 
        2.12918         1.80124         0.71154 
        2.13531         1.79114        0.706541 
        2.14145         1.78246        0.701579 
         2.1476         1.77117        0.696659 
        2.15372           1.764        0.691811 
        2.15985          1.7562        0.687004 
        2.16599         1.74974        0.682229 
        2.17213         1.73637        0.677505 
        2.17827         1.73232        0.672827 
         2.1844         1.72524        0.668197 
        2.19054         1.71841        0.663609 
        2.19666         1.70854         0.65907 
         2.2028         1.70026         0.65457 
        2.20893         1.69375         0.65011 
        2.21508         1.68615        0.645687 
        2.22122         1.67503        0.641303 
        2.22736         1.66898        0.636969 
        2.23349         1.66426        0.632676 
        2.23962         1.65319         0.62842 
        2.24577         1.64915          0.6242 
         2.2519         1.64001        0.620024 
        2.25802         1.63475        0.615894 
        2.26417         1.62765        0.611789 
        2.27031         1.61968        0.607718 
        2.27644         1.61265        0.603697 
        2.28257         1.60394        0.599711 
        2.28872         1.59928        0.595755 
        2.29486         1.58973        0.591835 
        2.30099         1.58277        0.587958 
        2.30712         1.57487        0.584114 
        2.31326         1.57131        0.580298 
         2.3194         1.56444        0.576519 
        2.32553         1.55846        0.572779 
        2.33166         1.54961        0.569074 
         2.3378         1.54319        0.565397 
        2.34394         1.53545        0.561752 
        2.35007         1.52953        0.558143 
        2.35619         1.52587        0.554571 
        2.36233         1.51635        0.551022 
        2.36848         1.51074        0.547496 
        2.37462         1.50579        0.544009 
        2.38075         1.49808        0.540555 
        2.38689         1.49388        0.537129 
        2.39303         1.48519        0.533732 
        2.39916         1.48034        0.530369 
        2.40529         1.47406        0.527035 
        2.41143         1.46656        0.523727 
        2.41757         1.46169        0.520446 
         2.4237         1.45798          0.5172 
        2.42983         1.44789        0.513981 
        2.43598         1.44615        0.510781 
        2.44211         1.43837        0.507614 
        2.44823         1.43291        0.504481 
        2.45437         1.42714        0.501365 
        2.46052          1.4228        0.498274 
        2.46665         1.41587        0.495214 
        2.47279         1.40921         0.49218 
        2.47892         1.40397         0.48917 
        2.48507         1.39985        0.486183 
         2.4912         1.39063        0.483226 
