#  k  (h/Mpc)          P(k)  (Mpc/h)^3     P_linear(k) (Mpc/h)^3
     0.00783031         9657.42         9784.86 
       0.013688         11082.6         11011.9 
       0.019231         10295.9         10259.3 
      0.0249154          8594.7         8701.34 
      0.0312784          6846.5          6860.4 
      0.0375637         5445.45         5403.71 
      0.0433917         4470.11         4483.61 
      0.0492413         3928.56         3914.73 
      0.0555754         3513.67         3558.13 
      0.0619321         3349.52         3314.11 
       0.067871         3048.46         3078.62 
      0.0738098          2760.9         2785.67 
      0.0800417         2394.62         2424.74 
      0.0862327         2062.08         2060.56 
      0.0921407         1789.34         1757.44 
      0.0982031         1543.41         1521.71 
       0.104506         1416.61         1361.99 
       0.110769         1316.25         1271.85 
       0.116806         1252.97         1221.99 
       0.122832         1211.16         1180.01 
       0.129052         1132.14         1122.23 
       0.135211         1055.74         1041.36 
       0.141259         977.631         944.128 
       0.147318         887.252         842.626 
       0.153489         791.588          749.77 
       0.159709         728.539         676.786 
       0.165845          687.06         627.398 
       0.171974         648.637         596.664 
       0.178125         625.128         576.966 
       0.184229         604.126         560.097 
        0.19034         567.456         539.241 
       0.196428         550.634         511.455 
       0.202534         525.033         477.435 
       0.208729         487.796         440.371 
       0.214876         454.097         405.569 
       0.220989         430.896         376.313 
       0.227147         406.987         353.692 
        0.23329         389.247         337.433 
       0.239377         379.736         325.616 
       0.245482         355.713         315.566 
       0.251667         351.601         304.986 
       0.257832         338.471         292.681 
       0.263955         324.431         278.545 
       0.270079         308.893         263.323 
        0.27624         301.091         248.173 
       0.282372         288.291         234.454 
        0.28843         276.679         222.924 
       0.294538         263.226         213.438 
       0.300721         259.698         205.632 
        0.30691          247.78         198.888 
       0.313033         241.717         192.549 
       0.319153         231.933         185.979 
       0.325316         226.108         178.925 
        0.33145         217.389         171.545 
       0.337538         213.046         164.186 
       0.343633         204.955         157.138 
       0.349808         197.681         150.618 
       0.355968         194.042         144.874 
       0.362074         188.926         139.874 
       0.368217         183.287         135.394 
       0.374374         176.535         131.209 
       0.380519         173.708         127.145 
       0.386598         168.877         123.114 
       0.392688         165.905         119.019 
        0.39888         161.419         114.867 
       0.405048         156.888         110.832 
       0.411186         153.248         107.011 
       0.417313         149.712         103.469 
       0.423458         146.143         100.197 
       0.429607         142.755         97.1738 
       0.435692         138.117         94.3802 
       0.441815         136.729         91.6951 
       0.447964         133.916         89.0658 
       0.454126         128.169         86.4783 
       0.460267         126.529         83.9417 
       0.466387          124.65         81.4663 
        0.47254          121.58         79.0594 
       0.478662         120.681          76.776 
       0.484765         116.575         74.6191 
       0.490885         114.626         72.5705 
       0.497035         112.943         70.6186 
       0.503198         109.775          68.755 
       0.509342         107.925         66.9655 
       0.515458         106.188         65.2331 
       0.521598         104.185         63.5371 
       0.527764         102.757         61.8805 
       0.533884         101.144         60.2861 
           0.54         99.0471         58.7459 
       0.546137         98.0206         57.2564 
       0.552299         96.2121         55.8206 
       0.558452         94.3719         54.4482 
       0.564573         92.7198         53.1377 
       0.570708         90.9826          51.871 
       0.576825         89.8532         50.6479 
       0.582926         87.8942         49.4627 
       0.589034         86.5643           48.31 
       0.595184         85.3319         47.1839 
       0.601379         83.9969         46.0848 
       0.607522         82.2262         45.0292 
       0.613639         81.7174         44.0117 
       0.619772         80.0062         43.0242 
       0.625918         78.8835         42.0669 
       0.632068         77.9687         41.1405 
       0.638161         77.0565         40.2518 
         0.6443          76.005         39.3838 
       0.650464         75.1065         38.5383 
       0.656582         73.7705         37.7227 
       0.662703         72.5942         36.9292 
       0.668861         71.5197          36.153 
       0.675024         70.6941         35.3981 
       0.681124         69.9156         34.6723 
       0.687237         68.5202          33.966 
       0.693381         67.6577          33.277 
       0.699536         66.9676         32.6067 
       0.705665         66.8959         31.9583 
       0.711789         65.2432         31.3284 
       0.717957         64.7856         30.7113 
        0.72409         63.7032         30.1141 
       0.730186         62.7025         29.5362 
       0.736317         62.4589           28.97 
       0.742472         61.7477         28.4165 
       0.748622         60.9363         27.8779 
        0.75476         60.2939         27.3545 
       0.760888         59.4049         26.8454 
       0.767043         58.8831         26.3474 
       0.773185         58.1386         25.8633 
       0.779291         57.4893         25.3942 
       0.785407         57.0285         24.9362 
       0.791564         56.4926         24.4868 
       0.797719         55.3828         24.0487 
       0.803834          55.129         23.6242 
       0.809972         54.1858         23.2084 
       0.816124         53.8269         22.8017 
       0.822261           53.38         22.4059 
       0.828378         52.9922         22.0207 
       0.834502         52.3753         21.6442 
       0.840667           51.76         21.2741 
       0.846816         51.0333         20.9137 
       0.852925         50.6573          20.564 
       0.859047         49.9567         20.2216 
       0.865192         49.6322         19.8858 
       0.871341         49.2904         19.5575 
       0.877463         48.4509         19.2381 
       0.883569         48.1651         18.9267 
       0.889708         47.7755         18.6206 
       0.895864         47.3718         18.3205 
       0.902008          46.894         18.0277 
       0.908149         46.5192         17.7415 
       0.914301         46.0754          17.461 
       0.920448         45.7146         17.1869 
       0.926574         45.1559         16.9196 
       0.932687         45.0087         16.6587 
       0.938823         44.3015         16.4023 
       0.944975         43.9577         16.1507 
       0.951105         43.5598         15.9054 
       0.957225         43.0666         15.6655 
       0.963368         42.9677         15.4298 
       0.969511         42.6037          15.199 
       0.975621         42.3362         14.9742 
       0.981748         41.7963         14.7533 
       0.987916         41.4167         14.5355 
        0.99406         41.1954          14.323 
        1.00019         40.7735         14.1151 
        1.00632          40.498         13.9115 
        1.01246         40.2313         13.7117 
        1.01859         39.6706         13.5161 
        1.02471         39.5557         13.3246 
        1.03085         39.2191         13.1362 
        1.03698         38.8471         12.9518 
        1.04314          38.555         12.7702 
        1.04929         38.2371         12.5924 
        1.05541         37.8358         12.4188 
        1.06154          37.825         12.2481 
        1.06769         37.4083         12.0802 
        1.07382         37.2216         11.9161 
        1.07993         36.9657         11.7554 
        1.08607         36.6557         11.5971 
        1.09222         36.4138         11.4414 
        1.09836         36.0898         11.2889 
        1.10449         35.8816         11.1392 
        1.11063         35.4705         10.9922 
        1.11677         35.2743         10.8478 
         1.1229         35.0144         10.7063 
        1.12903         34.5768         10.5672 
        1.13518         34.7149         10.4305 
        1.14131         34.4232         10.2962 
        1.14745         33.9708         10.1644 
        1.15359         33.9094         10.0349 
        1.15973         33.4956         9.90757 
        1.16584          33.345         9.78304 
        1.17197         33.1259         9.66048 
        1.17811         32.9686         9.53965 
        1.18424         32.6541         9.42123 
        1.19038         32.4396         9.30449 
        1.19652          32.386         9.18977 
        1.20267         32.0611         9.07699 
        1.20881         31.8745         8.96613 
        1.21495         31.5994          8.8573 
        1.22108         31.4763         8.75029 
         1.2272         31.1053         8.64531 
        1.23334         30.9916         8.54181 
        1.23949          30.969         8.43976 
        1.24562         30.5656         8.33966 
        1.25174         30.4956         8.24134 
        1.25789         30.3255         8.14431 
        1.26402         30.0426         8.04901 
        1.27014         29.8001         7.95547 
        1.27628         29.6374         7.86314 
        1.28244         29.5104          7.7721 
        1.28858         29.3548         7.68261 
        1.29471         29.2275         7.59474 
        1.30084         29.0559         7.50832 
        1.30697         28.8407         7.42311 
        1.31312         28.6251          7.3391 
        1.31925          28.476         7.25665 
        1.32537         28.3257         7.17556 
        1.33151         28.0993         7.09541 
        1.33765         28.0169         7.01653 
        1.34378         27.8278         6.93901 
        1.34992         27.6402         6.86261 
        1.35606           27.49         6.78719 
         1.3622         27.3603         6.71304 
        1.36833         27.1298         6.64017 
        1.37445         27.0661         6.56843 
        1.38059         26.8715         6.49752 
        1.38675          26.622          6.4275 
        1.39288         26.6224         6.35878 
        1.39901         26.4125          6.2911 
        1.40515          26.248         6.22425 
         1.4113         26.1265          6.1584 
        1.41742         25.9635         6.09375 
        1.42355         25.8363         6.02991 
         1.4297         25.7118         5.96679 
        1.43585         25.6339          5.9046 
        1.44198         25.3505         5.84354 
        1.44809         25.2967         5.78345 
        1.45423         25.1522         5.72399 
        1.46036         25.0857         5.66547 
        1.46649         24.8959         5.60775 
        1.47263         24.7499         5.55079 
        1.47877         24.6691         5.49464 
        1.48491         24.6435         5.43918 
        1.49104         24.3804          5.3846 
        1.49718         24.1742         5.33073 
        1.50333         24.1813         5.27751 
        1.50947         24.0487         5.22512 
         1.5156         23.9129         5.17352 
        1.52172         23.7999         5.12262 
        1.52787         23.7001          5.0723 
          1.534         23.5732         5.02272 
        1.54013         23.3921         4.97385 
        1.54627         23.3361         4.92554 
        1.55241         23.1085         4.87787 
        1.55855         23.0804         4.83089 
        1.56467         22.8688         4.78466 
         1.5708         22.9149         4.73891 
        1.57695         22.6969         4.69368 
        1.58308         22.5941         4.64915 
        1.58922         22.5354         4.60516 
        1.59535         22.4088         4.56176 
         1.6015         22.2511         4.51886 
        1.60764         22.1431         4.47653 
        1.61376         22.0067         4.43485 
        1.61989         21.9136         4.39368 
        1.62604         21.8625         4.35293 
        1.63218         21.7828         4.31272 
        1.63831         21.6241         4.27312 
        1.64444         21.5422         4.23399 
        1.65059         21.4265         4.19527 
        1.65673         21.2888         4.15707 
        1.66285          21.256         4.11945 
        1.66898         21.1294         4.08228 
        1.67512         21.0429          4.0455 
        1.68127         20.9056         4.00914 
         1.6874         20.8067         3.97331 
        1.69353         20.7461         3.93793 
        1.69967         20.6281          3.9029 
        1.70581         20.5403         3.86832 
        1.71193         20.4785         3.83428 
        1.71806         20.3172         3.80058 
        1.72421         20.2305         3.76721 
        1.73035         20.1219         3.73429 
        1.73649         20.0794         3.70176 
        1.74262         19.9736         3.66965 
        1.74876         19.9345         3.63789 
        1.75489          19.817         3.60658 
        1.76101         19.7074         3.57564 
        1.76715         19.6382         3.54503 
        1.77329         19.5893         3.51473 
        1.77943         19.4855         3.48477 
        1.78557         19.3393         3.45521 
        1.79171         19.2648         3.42599 
        1.79785         19.1722          3.3971 
        1.80399         19.1438         3.36854 
        1.81012         19.0379         3.34035 
        1.81625          18.979          3.3125 
        1.82239         18.8781         3.28492 
        1.82853         18.7805         3.25767 
        1.83466         18.7218         3.23076 
        1.84078         18.5662         3.20417 
        1.84692          18.529         3.17785 
        1.85306         18.4567         3.15178 
         1.8592         18.3534         3.12605 
        1.86533          18.284         3.10062 
        1.87147         18.2263         3.07544 
        1.87761         18.1649         3.05053 
        1.88375         18.0978         3.02592 
        1.88988         17.9994         3.00161 
        1.89601         17.9175         2.97756 
        1.90215         17.8487         2.95375 
        1.90829         17.7941         2.93021 
        1.91442         17.6969         2.90692 
        1.92056          17.629         2.88391 
         1.9267         17.5477         2.86112 
        1.93284         17.4371         2.83857 
        1.93897         17.4205          2.8163 
        1.94509         17.3219         2.79432 
        1.95123         17.2822         2.77251 
        1.95737         17.1728         2.75092 
        1.96349         17.1209         2.72962 
        1.96964         17.0528         2.70848 
        1.97578          16.953         2.68756 
        1.98192         16.8892          2.6669 
        1.98805         16.8486         2.64645 
        1.99419          16.772         2.62621 
        2.00033         16.6635         2.60618 
        2.00647         16.6136         2.58636 
         2.0126         16.5567         2.56678 
        2.01874          16.479         2.54737 
        2.02488         16.4385         2.52815 
        2.03101         16.3582         2.50915 
        2.03714         16.3031         2.49038 
        2.04328         16.2178         2.47177 
        2.04941         16.1469         2.45336 
        2.05554         16.1078         2.43516 
        2.06167          16.046         2.41712 
        2.06781         15.9763         2.39925 
        2.07396         15.9383         2.38155 
        2.08009         15.8804         2.36405 
        2.08622         15.7422         2.34674 
        2.09237         15.7329         2.32958 
        2.09851         15.6719         2.31258 
        2.10464         15.5829         2.29578 
        2.11077         15.5288         2.27917 
        2.11691         15.4836         2.26268 
        2.12305         15.4421         2.24636 
        2.12918         15.3617         2.23024 
        2.13531         15.3019         2.21427 
        2.14145         15.2727         2.19842 
         2.1476         15.1919         2.18271 
        2.15372         15.1126         2.16723 
        2.15985         15.0339         2.15189 
        2.16599         15.0165         2.13665 
        2.17213         14.9569         2.12157 
        2.17827         14.8705         2.10664 
         2.1844         14.7964         2.09187 
        2.19054         14.7869         2.07723 
        2.19666         14.7345         2.06276 
         2.2028         14.6645         2.04841 
        2.20893         14.6099         2.03419 
        2.21508         14.5391         2.02009 
        2.22122         14.4422         2.00611 
        2.22736         14.4439          1.9923 
        2.23349         14.3793         1.97862 
        2.23962         14.3283         1.96506 
        2.24577         14.2544         1.95162 
         2.2519         14.2247         1.93832 
        2.25802         14.1516         1.92517 
        2.26417         14.1388          1.9121 
        2.27031         14.0462         1.89914 
        2.27644         14.0128         1.88633 
        2.28257         13.9407         1.87365 
        2.28872         13.8796         1.86106 
        2.29486         13.8439         1.84859 
        2.30099         13.7837         1.83625 
        2.30712         13.7464         1.82402 
        2.31326         13.6965         1.81189 
         2.3194         13.6629         1.79987 
        2.32553         13.5945         1.78797 
        2.33166         13.5276          1.7762 
         2.3378         13.4918         1.76451 
        2.34394         13.4433         1.75292 
        2.35007         13.3945         1.74145 
        2.35619         13.3213          1.7301 
        2.36233         13.2861         1.71882 
        2.36848         13.2446         1.70762 
        2.37462         13.1862         1.69654 
        2.38075         13.1335         1.68558 
        2.38689         13.1097          1.6747 
        2.39303         13.0442         1.66391 
        2.39916         13.0046         1.65323 
        2.40529         12.9655         1.64265 
        2.41143         12.9057         1.63215 
        2.41757         12.8664         1.62174 
         2.4237         12.8174         1.61144 
        2.42983         12.7545         1.60123 
        2.43598         12.7415         1.59108 
        2.44211         12.6797         1.58103 
        2.44823         12.6442          1.5711 
        2.45437         12.5842         1.56122 
        2.46052         12.5422         1.55142 
        2.46665         12.5168         1.54172 
        2.47279          12.447          1.5321 
        2.47892         12.4122         1.52256 
        2.48507         12.3653         1.51309 
         2.4912         12.3359         1.50373 
