#  k  (h/Mpc)          P(k)  (Mpc/h)^3     P_linear(k) (Mpc/h)^3
     0.00783031         4137.72         4171.94 
       0.013688         4359.65         4421.15 
       0.019231         3925.79         3949.37 
      0.0249154          3264.9         3247.32 
      0.0312784         2518.65         2512.66 
      0.0375637         1974.55         1976.65 
      0.0433917         1663.28          1655.4 
      0.0492413         1458.98         1458.55 
      0.0555754         1330.86         1322.75 
      0.0619321          1195.7         1208.09 
       0.067871         1089.17         1088.94 
      0.0738098          956.92         953.547 
      0.0800417         816.306          808.66 
      0.0862327         687.017         682.036 
      0.0921407         595.815         589.501 
      0.0982031         534.734         525.201 
       0.104506         486.802         484.438 
       0.110769          461.97         458.622 
       0.116806         442.976         436.458 
       0.122832         412.772          409.59 
       0.129052         380.434         374.765 
       0.135211         345.016         336.127 
       0.141259          306.54         299.355 
       0.147318         273.725         268.133 
       0.153489         251.198         244.258 
       0.159709         236.357         227.835 
       0.165845         221.092         216.849 
       0.171974         216.329         208.067 
       0.178125         206.114         198.861 
       0.184229         193.312         187.957 
        0.19034         182.798         175.315 
       0.196428         170.295         162.064 
       0.202534         155.174         149.506 
       0.208729         147.202         138.606 
       0.214876         139.333         130.043 
       0.220989         130.458         123.509 
       0.227147         126.791         118.247 
        0.23329         121.777          113.53 
       0.239377         117.763         108.763 
       0.245482         111.672         103.599 
       0.251667         105.399         98.0423 
       0.257832         101.919         92.4814 
       0.263955         95.1585         87.2864 
       0.270079          90.309         82.6754 
        0.27624         86.0751         78.7105 
       0.282372         82.9018         75.3525 
        0.28843         81.1947         72.4335 
       0.294538         77.6282         69.6838 
       0.300721         74.1613         66.9445 
        0.30691         72.2299         64.1679 
       0.313033         68.9303         61.4109 
       0.319153          67.057         58.7129 
       0.325316          63.912         56.1441 
        0.33145         61.3019         53.7919 
       0.337538         59.0354         51.6808 
       0.343633         57.2826         49.7637 
       0.349808         55.2256         47.9741 
       0.355968         53.4666         46.2866 
       0.362074         52.2539         44.6658 
       0.368217         50.5389         43.0711 
       0.374374         49.0832         41.5069 
       0.380519         46.9561         39.9973 
       0.386598         45.4996         38.5742 
       0.392688         43.8976         37.2299 
        0.39888         43.0257         35.9525 
       0.405048         41.8663         34.7618 
       0.411186         40.6347         33.6435 
       0.417313         39.4137         32.5799 
       0.423458         38.1755         31.5536 
       0.429607         37.4036         30.5592 
       0.435692          36.729         29.6078 
       0.441815         35.2571         28.6849 
       0.447964         34.0753         27.7958 
       0.454126         33.4132         26.9456 
       0.460267          32.967         26.1398 
       0.466387         31.9543         25.3752 
        0.47254         31.4337         24.6404 
       0.478662         30.3316         23.9395 
       0.484765         29.6299         23.2673 
       0.490885         28.7114         22.6168 
       0.497035         28.2593         21.9851 
       0.503198         27.6391         21.3748 
       0.509342         26.7959         20.7893 
       0.515458         26.3364          20.229 
       0.521598         25.6797         19.6884 
       0.527764         25.2451         19.1665 
       0.533884         24.7111         18.6683 
           0.54         24.1589         18.1889 
       0.546137         23.4181         17.7248 
       0.552299         22.9429         17.2744 
       0.558452          22.397         16.8398 
       0.564573         22.1606         16.4217 
       0.570708         21.5802         16.0169 
       0.576825         21.2533         15.6272 
       0.582926         20.8428         15.2517 
       0.589034          20.389         14.8884 
       0.595184         20.1089         14.5348 
       0.601379          19.569         14.1903 
       0.607522         19.1462         13.8598 
       0.613639          18.872         13.5412 
       0.619772         18.4741         13.2318 
       0.625918         18.1377         12.9315 
       0.632068         17.9181         12.6402 
       0.638161         17.5314         12.3605 
         0.6443         17.2502         12.0873 
       0.650464          16.783         11.8213 
       0.656582         16.6717         11.5653 
       0.662703         16.3981         11.3169 
       0.668861         15.9742         11.0744 
       0.675024         15.7332         10.8389 
       0.681124         15.6533         10.6126 
       0.687237          15.314         10.3924 
       0.693381          14.964         10.1773 
       0.699536         14.8599           9.968 
       0.705665         14.5402         9.76545 
       0.711789         14.3074         9.56871 
       0.717957         13.9913         9.37606 
        0.72409         13.8392          9.1898 
       0.730186         13.7487         9.00974 
       0.736317         13.4414         8.83353 
       0.742472         13.2781         8.66141 
       0.748622         13.0473         8.49404 
        0.75476         12.7186         8.33146 
       0.760888         12.6724         8.17339 
       0.767043         12.4181          8.0188 
       0.773185         12.2478         7.86853 
       0.779291         12.1098         7.72296 
       0.785407          11.926         7.58087 
       0.791564          11.815         7.44147 
       0.797719         11.5215         7.30564 
       0.803834         11.4806         7.17406 
       0.809972         11.2343         7.04525 
       0.816124         11.1158         6.91932 
       0.822261         10.9718         6.79681 
       0.828378         10.8476         6.67763 
       0.834502         10.7149         6.56121 
       0.840667         10.5763         6.44681 
       0.846816         10.3474         6.33546 
       0.852925         10.3107         6.22744 
       0.859047         10.1537         6.12171 
       0.865192         10.0101         6.01809 
       0.871341         9.88445          5.9168 
       0.877463         9.74544         5.81829 
       0.883569         9.66801         5.72227 
       0.889708         9.50185         5.62793 
       0.895864         9.37408         5.53547 
       0.902008          9.2748         5.44529 
       0.908149          9.1226         5.35716 
       0.914301         9.04969         5.27085 
       0.920448         8.93809         5.18651 
       0.926574         8.87161         5.10432 
       0.932687         8.72033         5.02407 
       0.938823         8.58933         4.94527 
       0.944975         8.54555         4.86798 
       0.951105         8.43403         4.79261 
       0.957225         8.36208         4.71897 
       0.963368         8.22675         4.64663 
       0.969511         8.13574          4.5758 
       0.975621         8.05965         4.50682 
       0.981748         7.94782         4.43909 
       0.987916         7.88607         4.37233 
        0.99406         7.77708         4.30719 
        1.00019         7.71777          4.2435 
        1.00632          7.6592         4.18116 
        1.01246         7.53975         4.11997 
        1.01859         7.46874         4.06011 
        1.02471         7.37528         4.00151 
        1.03085         7.32605         3.94386 
        1.03698         7.25446         3.88747 
        1.04314         7.15641         3.83194 
        1.04929         7.06662         3.77762 
        1.05541         7.00811         3.72457 
        1.06154         6.94063         3.67241 
        1.06769         6.88607         3.62116 
        1.07382         6.78383         3.57106 
        1.07993         6.72308         3.52201 
        1.08607         6.67173         3.47368 
        1.09222         6.58815         3.42621 
        1.09836         6.54038         3.37967 
        1.10449         6.47061         3.33406 
        1.11063         6.42792         3.28923 
        1.11677         6.37503         3.24524 
         1.1229         6.30272         3.20213 
        1.12903          6.2431         3.15977 
        1.13518         6.17213         3.11813 
        1.14131         6.12709         3.07727 
        1.14745         6.03132         3.03716 
        1.15359         5.97123         2.99775 
        1.15973          5.9335         2.95903 
        1.16584         5.87282         2.92116 
        1.17197         5.80922          2.8839 
        1.17811         5.76686         2.84718 
        1.18424          5.7242          2.8112 
        1.19038         5.69243         2.77574 
        1.19652          5.6214          2.7409 
        1.20267         5.58989         2.70666 
        1.20881         5.50975         2.67301 
        1.21495         5.47533         2.63998 
        1.22108         5.42313         2.60751 
         1.2272         5.37138         2.57567 
        1.23334         5.34799         2.54428 
        1.23949         5.29011         2.51334 
        1.24562         5.24446           2.483 
        1.25174         5.21538         2.45321 
        1.25789         5.14942         2.42381 
        1.26402           5.112         2.39494 
        1.27014         5.08622         2.36661 
        1.27628         5.02542         2.33866 
        1.28244         5.00347          2.3111 
        1.28858         4.95006         2.28402 
        1.29471         4.89756         2.25744 
        1.30084         4.85849          2.2313 
        1.30697         4.83501         2.20553 
        1.31312         4.79224         2.18013 
        1.31925         4.75867         2.15521 
        1.32537         4.71371          2.1307 
        1.33151         4.67256         2.10649 
        1.33765         4.64114         2.08266 
        1.34378         4.62281         2.05924 
        1.34992         4.57954         2.03617 
        1.35606         4.53493          2.0134 
         1.3622         4.49628         1.99102 
        1.36833         4.47344         1.96903 
        1.37445         4.43097         1.94738 
        1.38059         4.38547         1.92599 
        1.38675         4.36479         1.90487 
        1.39288          4.3375         1.88415 
        1.39901         4.29164         1.86375 
        1.40515         4.26568          1.8436 
         1.4113         4.23319         1.82376 
        1.41742         4.21146         1.80428 
        1.42355         4.16765         1.78505 
         1.4297         4.13511         1.76604 
        1.43585         4.11646         1.74732 
        1.44198         4.09056         1.72894 
        1.44809         4.05428         1.71085 
        1.45423         4.02393         1.69296 
        1.46036         3.99926         1.67535 
        1.46649         3.97322         1.65799 
        1.47263         3.94218         1.64086 
        1.47877         3.90915         1.62398 
        1.48491         3.89801         1.60731 
        1.49104          3.8677          1.5909 
        1.49718          3.8425         1.57472 
        1.50333         3.81004         1.55873 
        1.50947         3.78497         1.54299 
         1.5156         3.76248          1.5275 
        1.52172         3.73024         1.51221 
        1.52787         3.71839          1.4971 
          1.534         3.68083         1.48222 
        1.54013         3.66976         1.46755 
        1.54627          3.6334         1.45306 
        1.55241         3.60541         1.43875 
        1.55855         3.59349         1.42466 
        1.56467         3.58171         1.41079 
         1.5708         3.53745         1.39707 
        1.57695         3.51387         1.38351 
        1.58308         3.49129         1.37017 
        1.58922         3.48035         1.35698 
        1.59535         3.46097         1.34398 
         1.6015         3.41853         1.33112 
        1.60764         3.40519         1.31844 
        1.61376         3.38655         1.30596 
        1.61989         3.36107         1.29363 
        1.62604         3.34859         1.28143 
        1.63218         3.32443          1.2694 
        1.63831          3.3044         1.25755 
        1.64444         3.27959         1.24584 
        1.65059         3.26137         1.23425 
        1.65673         3.24545         1.22283 
        1.66285         3.22396         1.21157 
        1.66898         3.21048         1.20046 
        1.67512         3.18873         1.18946 
        1.68127         3.15634         1.17859 
         1.6874         3.14495         1.16789 
        1.69353          3.1204         1.15731 
        1.69967         3.10595         1.14685 
        1.70581         3.08616         1.13652 
        1.71193         3.06606         1.12635 
        1.71806            3.05         1.11629 
        1.72421         3.03202         1.10632 
        1.73035         3.01841          1.0965 
        1.73649         3.00284         1.08679 
        1.74262          2.9778          1.0772 
        1.74876         2.96713         1.06773 
        1.75489         2.94961         1.05839 
        1.76101         2.92368         1.04916 
        1.76715         2.92236         1.04002 
        1.77329         2.89712         1.03099 
        1.77943         2.87325         1.02206 
        1.78557         2.87048         1.01324 
        1.79171         2.84828         1.00453 
        1.79785          2.8389        0.995921 
        1.80399         2.81965        0.987411 
        1.81012         2.80228        0.979012 
        1.81625         2.78551        0.970714 
        1.82239         2.77349        0.962499 
        1.82853         2.75262        0.954383 
        1.83466         2.73286        0.946368 
        1.84078         2.71871        0.938453 
        1.84692         2.70701        0.930615 
        1.85306         2.69323        0.922857 
         1.8592         2.68068        0.915199 
        1.86533         2.66726        0.907632 
        1.87147         2.65626        0.900141 
        1.87761         2.63882        0.892731 
        1.88375         2.62489        0.885412 
        1.88988         2.61247        0.878183 
        1.89601         2.59038        0.871031 
        1.90215         2.58202        0.863952 
        1.90829          2.5733        0.856955 
        1.91442         2.55856        0.850034 
        1.92056         2.54813        0.843196 
         1.9267          2.5311        0.836425 
        1.93284         2.51789        0.829724 
        1.93897          2.5029        0.823109 
        1.94509         2.47989         0.81658 
        1.95123         2.48143        0.810106 
        1.95737         2.46746        0.803696 
        1.96349         2.45565        0.797372 
        1.96964         2.43709        0.791097 
        1.97578         2.42727        0.784887 
        1.98192         2.41319        0.778755 
        1.98805          2.4045        0.772688 
        1.99419         2.39137        0.766685 
        2.00033         2.37361        0.760743 
        2.00647         2.37133        0.754864 
         2.0126         2.35829        0.749058 
        2.01874         2.34275        0.743303 
        2.02488          2.3371        0.737604 
        2.03101         2.31863        0.731974 
        2.03714         2.30667        0.726408 
        2.04328         2.29885        0.720893 
        2.04941         2.28407         0.71544 
        2.05554         2.27649        0.710046 
        2.06167          2.2704        0.704701 
        2.06781         2.25587        0.699409 
        2.07396         2.24335        0.694164 
        2.08009         2.23538        0.688982 
        2.08622         2.22795        0.683858 
        2.09237         2.21551        0.678776 
        2.09851         2.20142        0.673744 
        2.10464         2.19324        0.668771 
        2.11077         2.18109        0.663855 
        2.11691         2.17261        0.658976 
        2.12305          2.1635        0.654147 
        2.12918         2.15243        0.649377 
        2.13531         2.14556        0.644653 
        2.14145          2.1326        0.639966 
         2.1476          2.1191         0.63532 
        2.15372         2.10853        0.630742 
        2.15985         2.10495        0.626206 
        2.16599         2.09474          0.6217 
        2.17213         2.08937        0.617243 
        2.17827         2.07137        0.612831 
         2.1844         2.06827        0.608466 
        2.19054         2.05806        0.604141 
        2.19666         2.05014        0.599865 
         2.2028         2.03399        0.595625 
        2.20893         2.03445        0.591425 
        2.21508         2.01772         0.58726 
        2.22122         2.00966        0.583133 
        2.22736          1.9994        0.579055 
        2.23349         1.99096        0.575016 
        2.23962         1.98294        0.571014 
        2.24577          1.9747        0.567045 
         2.2519         1.97347         0.56312 
        2.25802         1.95223        0.559239 
        2.26417         1.94861        0.555382 
        2.27031         1.93888        0.551559 
        2.27644         1.93239        0.547782 
        2.28257         1.92387        0.544041 
        2.28872         1.91305        0.540327 
        2.29486         1.90632        0.536649 
        2.30099         1.89914        0.533012 
        2.30712         1.89028        0.529407 
        2.31326         1.88582        0.525829 
         2.3194         1.87328        0.522286 
        2.32553         1.86774        0.518782 
        2.33166         1.85739        0.515311 
         2.3378         1.85303        0.511866 
        2.34394         1.84192        0.508452 
        2.35007         1.83583        0.505074 
        2.35619         1.83151         0.50173 
        2.36233         1.82253        0.498409 
        2.36848         1.81272         0.49511 
        2.37462         1.80739        0.491849 
        2.38075         1.79929        0.488619 
        2.38689         1.79276        0.485416 
        2.39303         1.78482        0.482241 
        2.39916         1.77747        0.479099 
        2.40529         1.76959        0.475984 
        2.41143         1.76577        0.472895 
        2.41757         1.75875        0.469831 
         2.4237         1.75038          0.4668 
        2.42983         1.74172        0.463796 
        2.43598         1.73645        0.460811 
        2.44211          1.7276        0.457856 
        2.44823         1.72144        0.454934 
        2.45437         1.71424        0.452029 
        2.46052         1.70905        0.449147 
        2.46665          1.7009        0.446295 
        2.47279         1.69537        0.443469 
        2.47892          1.6894        0.440665 
        2.48507         1.68072        0.437883 
         2.4912         1.67514        0.435129 
