# k  (h/Mpc)    P(k)  (Mpc/h)^3    P_linear(k)  (Mpc/h)^3
     0.00783031         9848.89         9927.89 
       0.013688           12240         12537.8 
       0.019231           12700         12877.8 
      0.0249154         12022.4         12018.9 
      0.0312784         10368.8           10463 
      0.0375637         8785.84         8921.26 
      0.0433917         7725.98         7763.05 
      0.0492413         6840.81         6923.97 
      0.0555754         6286.73         6316.63 
      0.0619321         5703.57         5892.35 
       0.067871         5437.13         5543.58 
      0.0738098          5091.5         5161.03 
      0.0800417         4646.44         4694.36 
      0.0862327         4133.14         4188.71 
      0.0921407         3692.51         3717.04 
      0.0982031          3324.3          3293.8 
       0.104506         2948.38         2950.75 
       0.110769         2727.32         2711.53 
       0.116806         2615.37         2558.09 
       0.122832         2471.86         2449.86 
       0.129052         2366.44         2351.08 
       0.135211         2291.23         2239.38 
       0.141259         2127.75         2104.46 
       0.147318         1957.64         1947.92 
       0.153489          1823.3          1781.2 
       0.159709         1719.11          1624.1 
       0.165845         1559.84         1493.84 
       0.171974         1513.09         1394.18 
       0.178125         1453.75         1322.62 
       0.184229          1354.7          1271.8 
        0.19034         1333.97         1230.44 
       0.196428         1295.73         1188.72 
       0.202534          1214.2         1139.72 
       0.208729         1188.56         1080.82 
       0.214876         1133.41         1016.01 
       0.220989         1060.18         950.716 
       0.227147         1029.35         889.878 
        0.23329         986.069         838.188 
       0.239377         970.912         797.249 
       0.245482         922.397         765.398 
       0.251667          888.86         739.639 
       0.257832         879.067         716.781 
       0.263955         834.925         693.681 
       0.270079         808.269         668.225 
        0.27624         774.292         639.856 
       0.282372         758.717         609.968 
        0.28843         750.109         580.548 
       0.294538         711.265         552.845 
       0.300721         691.348         528.082 
        0.30691         678.702         507.065 
       0.313033         649.384         489.588 
       0.319153         640.086         474.433 
       0.325316         629.514         460.308 
        0.33145         615.641          446.34 
       0.337538         593.806         431.912 
       0.343633         577.254         416.815 
       0.349808         563.279         401.144 
       0.355968         552.657         385.744 
       0.362074         534.537         371.268 
       0.368217         531.467         357.959 
       0.374374          521.53         346.009 
       0.380519         501.035         335.359 
       0.386598         495.847         325.783 
       0.392688         484.555         316.732 
        0.39888         471.989         307.753 
       0.405048         463.571         298.803 
       0.411186         461.732         289.799 
       0.417313         455.881         280.835 
       0.423458         442.541         272.018 
       0.429607         430.854         263.551 
       0.435692         424.444         255.687 
       0.441815         417.238         248.334 
       0.447964         408.548         241.471 
       0.454126         403.643         235.049 
       0.460267         397.244         228.963 
       0.466387         390.328         223.075 
        0.47254         384.876         217.258 
       0.478662         376.201         211.556 
       0.484765          372.06          205.95 
       0.490885         367.981         200.451 
       0.497035         361.104         195.114 
       0.503198         360.173         190.012 
       0.509342         351.264         185.176 
       0.515458          345.92         180.599 
       0.521598         340.199         176.227 
       0.527764          335.43         172.022 
       0.533884         333.985         167.986 
           0.54         328.772         164.049 
       0.546137         321.743         160.181 
       0.552299          320.81         156.391 
       0.558452         315.514         152.708 
       0.564573          312.86         149.153 
       0.570708         307.941         145.706 
       0.576825         302.689         142.394 
       0.582926         300.354         139.222 
       0.589034         295.983         136.169 
       0.595184          294.07         133.202 
       0.601379         289.215         130.307 
       0.607522         283.652         127.511 
       0.613639         282.343         124.796 
       0.619772         280.874         122.145 
       0.625918         276.756          119.56 
       0.632068         272.663         117.048 
       0.638161         270.749         114.632 
         0.6443         268.193         112.269 
       0.650464         263.989         109.969 
       0.656582         261.754         107.753 
       0.662703         260.051         105.604 
       0.668861         255.353         103.505 
       0.675024         254.483         101.465 
       0.681124          251.39         99.5001 
       0.687237         249.163         97.5821 
       0.693381         246.121         95.7027 
       0.699536         244.083         93.8667 
       0.705665         241.659         92.0853 
       0.711789         239.466         90.3513 
       0.717957         236.841         88.6511 
        0.72409         234.191         87.0061 
       0.730186         235.423         85.4156 
       0.736317         231.289         83.8584 
       0.742472         228.541         82.3358 
       0.748622         225.617         80.8535 
        0.75476          226.13         79.4113 
       0.760888         223.202         78.0062 
       0.767043         220.274         76.6289 
       0.773185         218.925         75.2872 
       0.779291         215.895         73.9849 
       0.785407         215.127         72.7115 
       0.791564         213.051         71.4602 
       0.797719          209.77         70.2393 
       0.803834         211.054         69.0553 
       0.809972         208.655         67.8949 
       0.816124         205.538         66.7592 
       0.822261         203.992         65.6531 
       0.828378         203.829         64.5759 
       0.834502         200.829         63.5223 
       0.840667          200.71         62.4857 
       0.846816         197.493         61.4754 
       0.852925         196.672          60.494 
       0.859047         194.767         59.5321 
       0.865192         194.428         58.5882 
       0.871341         191.892         57.6642 
       0.877463         190.251         56.7645 
       0.883569         190.087         55.8864 
       0.889708         188.267         55.0226 
       0.895864         186.619         54.1751 
       0.902008         184.858         53.3473 
       0.908149         183.188         52.5375 
       0.914301         182.471         51.7433 
       0.920448         181.919         50.9665 
       0.926574         179.556         50.2085 
       0.932687          179.06         49.4676 
       0.938823         177.693         48.7392 
       0.944975         176.484          48.024 
       0.951105          174.79         47.3258 
       0.957225         173.942         46.6428 
       0.963368         172.791         45.9711 
       0.969511         170.728         45.3127 
       0.975621         169.484         44.6708 
       0.981748         168.567         44.0399 
       0.987916         167.804         43.4173 
        0.99406         166.618         42.8091 
        1.00019         165.546         42.2139 
        1.00632         164.572         41.6307 
        1.01246         163.434         41.0577 
        1.01859         162.165         40.4966 
        1.02471         160.981         39.9467 
        1.03085         159.942         39.4051 
        1.03698         158.785         38.8749 
        1.04314         158.432         38.3522 
        1.04929         157.598         37.8404 
        1.05541         156.474         37.3402 
        1.06154          155.12         36.8478 
        1.06769         154.177         36.3636 
        1.07382         153.518         35.8897 
        1.07993         152.214         35.4255 
        1.08607         151.327         34.9676 
        1.09222         150.354         34.5175 
        1.09836         149.495         34.0758 
        1.10449         148.289         33.6425 
        1.11063         147.482         33.2162 
        1.11677         146.768         32.7976 
         1.1229          145.57         32.3869 
        1.12903         144.874          31.983 
        1.13518         143.888         31.5857 
        1.14131         143.166         31.1954 
        1.14745         142.234          30.812 
        1.15359         140.838          30.435 
        1.15973         140.513         30.0642 
        1.16584         139.701         29.7013 
        1.17197         138.947          29.344 
        1.17811          137.68         28.9914 
        1.18424          137.18         28.6457 
        1.19038         136.381         28.3047 
        1.19652         135.484         27.9694 
        1.20267         134.638         27.6396 
        1.20881         133.712         27.3152 
        1.21495         133.317         26.9966 
        1.22108         132.392         26.6831 
         1.2272         131.428         26.3754 
        1.23334          131.09         26.0718 
        1.23949         130.466         25.7724 
        1.24562         129.473         25.4785 
        1.25174         128.698         25.1897 
        1.25789         127.856         24.9045 
        1.26402         127.551         24.6242 
        1.27014         126.698          24.349 
        1.27628          125.41         24.0771 
        1.28244         125.269          23.809 
        1.28858         124.236         23.5452 
        1.29471         123.541         23.2861 
        1.30084         122.777         23.0312 
        1.30697         122.236         22.7797 
        1.31312         121.442         22.5316 
        1.31925         120.576         22.2881 
        1.32537         120.207         22.0484 
        1.33151         119.814         21.8113 
        1.33765         118.641          21.578 
        1.34378         118.479         21.3485 
        1.34992         117.956         21.1222 
        1.35606         117.086         20.8988 
         1.3622         116.846          20.679 
        1.36833         115.509         20.4629 
        1.37445         115.359           20.25 
        1.38059         114.721         20.0395 
        1.38675         113.899         19.8316 
        1.39288         113.212         19.6274 
        1.39901         112.546         19.4262 
        1.40515         112.173         19.2274 
         1.4113         111.529         19.0315 
        1.41742          110.81          18.839 
        1.42355         110.555         18.6489 
         1.4297         109.644         18.4608 
        1.43585         109.089         18.2755 
        1.44198         108.286         18.0934 
        1.44809         107.639         17.9141 
        1.45423         107.513         17.7366 
        1.46036         106.556         17.5619 
        1.46649         105.977         17.3895 
        1.47263         105.618         17.2192 
        1.47877          104.88         17.0513 
        1.48491         104.484         16.8854 
        1.49104         103.385         16.7221 
        1.49718         103.283         16.5608 
        1.50333         102.848         16.4014 
        1.50947         102.319         16.2444 
         1.5156         101.861         16.0897 
        1.52172         101.077         15.9371 
        1.52787          100.65         15.7861 
          1.534         100.107         15.6373 
        1.54013         99.6774         15.4906 
        1.54627         98.8765         15.3455 
        1.55241         98.6563         15.2022 
        1.55855         97.9356          15.061 
        1.56467         97.2098          14.922 
         1.5708         96.7476         14.7843 
        1.57695         96.4921         14.6482 
        1.58308         95.8967         14.5141 
        1.58922         95.8191         14.3816 
        1.59535         95.3608         14.2509 
         1.6015          94.535         14.1215 
        1.60764         93.9726         13.9939 
        1.61376         93.5617         13.8682 
        1.61989         93.0531         13.7439 
        1.62604         92.5906         13.6209 
        1.63218         92.2767         13.4995 
        1.63831         91.6729         13.3798 
        1.64444         91.1578         13.2616 
        1.65059         90.6575         13.1445 
        1.65673         90.3274          13.029 
        1.66285         89.7335         12.9152 
        1.66898         89.1906         12.8027 
        1.67512         88.7822         12.6913 
        1.68127         88.4608         12.5812 
         1.6874         87.8462         12.4726 
        1.69353         87.3516         12.3654 
        1.69967         87.0533         12.2592 
        1.70581         86.7025         12.1543 
        1.71193         86.1629          12.051 
        1.71806         85.7095         11.9487 
        1.72421         85.2532         11.8474 
        1.73035         84.9858         11.7474 
        1.73649         84.3774         11.6485 
        1.74262         83.9173         11.5509 
        1.74876         83.4962         11.4544 
        1.75489         83.0827         11.3591 
        1.76101         82.5975          11.265 
        1.76715         82.2377         11.1718 
        1.77329         81.8209         11.0796 
        1.77943          81.521         10.9883 
        1.78557         81.1444         10.8983 
        1.79171         80.6468         10.8092 
        1.79785         80.1089         10.7211 
        1.80399         79.9522          10.634 
        1.81012         79.3823         10.5481 
        1.81625         79.0086          10.463 
        1.82239         78.7064         10.3789 
        1.82853         78.1114         10.2956 
        1.83466         77.7352         10.2134 
        1.84078         77.5063         10.1322 
        1.84692         77.3037         10.0517 
        1.85306         76.8109         9.97202 
         1.8592          76.426         9.89331 
        1.86533         76.0143          9.8155 
        1.87147         75.5839         9.73845 
        1.87761         75.0509         9.66219 
        1.88375         74.7949         9.58684 
        1.88988         74.2347         9.51238 
        1.89601         74.1306         9.43867 
        1.90215         73.5559         9.36569 
        1.90829         73.2419         9.29352 
        1.91442         72.9268          9.2221 
        1.92056         72.7226          9.1515 
         1.9267         72.1995         9.08158 
        1.93284         71.9451         9.01234 
        1.93897         71.5801         8.94396 
        1.94509         71.1758         8.87644 
        1.95123         70.8809         8.80945 
        1.95737         70.5094          8.7431 
        1.96349         70.2278         8.67761 
        1.96964         69.8448          8.6126 
        1.97578         69.4078         8.54823 
        1.98192         69.0296         8.48465 
        1.98805         68.5658         8.42172 
        1.99419         68.4317         8.35942 
        2.00033         67.9265         8.29772 
        2.00647         67.7105         8.23667 
         2.0126         67.3634         8.17633 
        2.01874         67.2487         8.11651 
        2.02488         66.8635         8.05724 
        2.03101         66.4276         7.99867 
        2.03714         66.2195         7.94074 
        2.04328          65.832         7.88332 
        2.04941         65.3158         7.82652 
        2.05554         65.2063         7.77032 
        2.06167         64.8885          7.7146 
        2.06781          64.492         7.65942 
        2.07396         64.2247          7.6047 
        2.08009         63.8907         7.55062 
        2.08622         63.6036         7.49712 
        2.09237          63.294         7.44404 
        2.09851         62.7986         7.39147 
        2.10464         62.6648         7.33949 
        2.11077         62.4302         7.28807 
        2.11691         62.0816         7.23704 
        2.12305         61.6731         7.18649 
        2.12918         61.3937         7.13655 
        2.13531         61.1637         7.08708 
        2.14145         60.7742         7.03797 
         2.1476         60.6523         6.98927 
        2.15372         60.2687         6.94127 
        2.15985         59.9189         6.89368 
        2.16599         59.6173          6.8464 
        2.17213         59.3357         6.79962 
        2.17827         59.0376         6.75329 
         2.1844         58.7504         6.70743 
        2.19054         58.5775         6.66198 
        2.19666         58.3031         6.61703 
         2.2028          57.889         6.57244 
        2.20893         57.6187         6.52825 
        2.21508         57.2561         6.48442 
        2.22122         57.0346         6.44097 
        2.22736         56.7746         6.39802 
        2.23349         56.5462         6.35546 
        2.23962         56.3267         6.31328 
        2.24577         55.9473         6.27144 
         2.2519         55.7163         6.23004 
        2.25802          55.444         6.18908 
        2.26417         55.1442         6.14837 
        2.27031         54.9355           6.108 
        2.27644         54.7491          6.0681 
        2.28257         54.3514         6.02857 
        2.28872         54.2169         5.98931 
        2.29486         53.9579         5.95042 
        2.30099         53.5244         5.91194 
        2.30712         53.4244          5.8738 
        2.31326         53.1956         5.83592 
         2.3194         52.8514         5.79841 
        2.32553         52.6854         5.76128 
        2.33166         52.3521          5.7245 
         2.3378         52.0966         5.68799 
        2.34394         51.8526         5.65179 
        2.35007         51.6091         5.61596 
        2.35619         51.3681         5.58048 
        2.36233         51.1176         5.54522 
        2.36848         50.8978          5.5102 
        2.37462         50.5572         5.47556 
        2.38075         50.4332         5.44124 
        2.38689         50.1617          5.4072 
        2.39303         49.9452         5.37345 
        2.39916         49.7073         5.34003 
        2.40529         49.4996         5.30689 
        2.41143         49.2503         5.27401 
        2.41757         49.0411          5.2414 
         2.4237         48.8771         5.20912 
        2.42983          48.544         5.17712 
        2.43598         48.3667          5.1453 
        2.44211         48.0413          5.1138 
        2.44823         47.8766         5.08264 
        2.45437         47.6454         5.05165 
        2.46052         47.3419          5.0209 
        2.46665         47.1372         4.99046 
        2.47279         46.9397         4.96028 
        2.47892         46.7425         4.93033 
        2.48507         46.5968          4.9006 
         2.4912         46.2316         4.87117 
