# k  (h/Mpc)    Pcb(k)  (Mpc/h)^3    Pcb_linear(k)  (Mpc/h)^3
     0.00783031         10354.9         10407.4 
       0.013688         12862.9         13158.5 
       0.019231         13347.5         13522.6 
      0.0249154         12638.6         12624.7 
      0.0312784         10896.9         10992.9 
      0.0375637         9231.86         9374.41 
      0.0433917          8119.4         8158.13 
      0.0492413         7188.33         7276.86 
      0.0555754          6606.1         6638.93 
      0.0619321         5990.42         6193.27 
       0.067871         5711.23         5826.88 
      0.0738098         5349.33         5424.92 
      0.0800417         4881.48         4934.49 
      0.0862327         4342.44         4403.06 
      0.0921407          3880.7         3907.31 
      0.0982031         3495.07         3462.45 
       0.104506         3099.95         3101.86 
       0.110769         2868.07         2850.42 
       0.116806         2750.66         2689.14 
       0.122832         2599.77         2575.38 
       0.129052         2487.82         2471.56 
       0.135211         2409.85         2354.15 
       0.141259         2237.38         2212.33 
       0.147318         2059.05         2047.77 
       0.153489         1918.55         1872.51 
       0.159709          1810.6         1707.37 
       0.165845         1643.21         1570.43 
       0.171974         1594.41         1465.67 
       0.178125         1532.82         1390.44 
       0.184229         1427.33         1337.02 
        0.19034         1406.02         1293.54 
       0.196428         1365.98         1249.68 
       0.202534         1280.24         1198.17 
       0.208729          1253.5         1136.25 
       0.214876         1195.32         1068.12 
       0.220989         1119.26         999.477 
       0.227147         1086.82          935.52 
        0.23329         1041.28         881.178 
       0.239377         1026.29         838.141 
       0.245482         975.164         804.658 
       0.251667         939.828         777.578 
       0.257832         929.173         753.549 
       0.263955         882.916         729.265 
       0.270079         855.089         702.502 
        0.27624         819.222          672.68 
       0.282372          803.34          641.26 
        0.28843         793.975          610.33 
       0.294538         753.073         581.206 
       0.300721          732.66         555.175 
        0.30691         718.997          533.08 
       0.313033         688.086         514.703 
       0.319153         678.465         498.772 
       0.325316          667.67         483.924 
        0.33145         653.049         469.236 
       0.337538         629.938         454.069 
       0.343633         612.669         438.199 
       0.349808         598.094         421.724 
       0.355968         586.913         405.534 
       0.362074         567.488         390.317 
       0.368217         564.586         376.323 
       0.374374         554.332         363.761 
       0.380519         532.664         352.566 
       0.386598         527.389         342.498 
       0.392688         515.391         332.983 
        0.39888         502.055         323.544 
       0.405048         493.098         314.133 
       0.411186         491.315         304.668 
       0.417313         485.519         295.244 
       0.423458         471.186         285.976 
       0.429607          458.62         277.072 
       0.435692         452.068         268.807 
       0.441815         444.357         261.076 
       0.447964         435.447         253.862 
       0.454126         430.308         247.108 
       0.460267         423.411         240.711 
       0.466387         416.152          234.52 
        0.47254         410.229         228.406 
       0.478662         401.344          222.41 
       0.484765         396.965         216.518 
       0.490885         392.692         210.736 
       0.497035         385.172         205.126 
       0.503198          384.45         199.762 
       0.509342         375.143         194.678 
       0.515458         369.203         189.866 
       0.521598           363.5         185.269 
       0.527764         358.146         180.848 
       0.533884         356.482         176.605 
           0.54         351.245         172.467 
       0.546137         343.855           168.4 
       0.552299         342.983         164.415 
       0.558452          337.36         160.543 
       0.564573         334.455         156.806 
       0.570708         329.505         153.182 
       0.576825         323.731         149.701 
       0.582926         321.434         146.365 
       0.589034         316.674         143.155 
       0.595184         314.621         140.037 
       0.601379         309.515         136.993 
       0.607522          303.59         134.053 
       0.613639         302.297         131.199 
       0.619772         300.871         128.412 
       0.625918         296.176         125.695 
       0.632068         292.211         123.054 
       0.638161         290.148         120.514 
         0.6443         287.242          118.03 
       0.650464         282.958         115.611 
       0.656582          280.49         113.283 
       0.662703         278.707         111.023 
       0.668861         273.745         108.817 
       0.675024         272.683         106.671 
       0.681124         269.396         104.606 
       0.687237         267.163         102.589 
       0.693381         263.832         100.613 
       0.699536         261.781         98.6833 
       0.705665         259.174         96.8104 
       0.711789         256.968         94.9875 
       0.717957         254.103            93.2 
        0.72409         251.193         91.4708 
       0.730186         252.656         89.7985 
       0.736317         248.159         88.1614 
       0.742472         245.344         86.5608 
       0.748622         242.338         85.0024 
        0.75476         242.687         83.4861 
       0.760888         239.574         82.0089 
       0.767043         236.588         80.5609 
       0.773185         235.229         79.1504 
       0.779291         231.915         77.7813 
       0.785407          231.14         76.4426 
       0.791564         228.892         75.1271 
       0.797719         225.324         73.8436 
       0.803834         226.873         72.5987 
       0.809972         224.109         71.3788 
       0.816124         220.835         70.1849 
       0.822261         219.163          69.022 
       0.828378         218.965         67.8895 
       0.834502         215.775         66.7818 
       0.840667         215.738         65.6921 
       0.846816         212.073         64.6299 
       0.852925         211.452         63.5982 
       0.859047         209.413         62.5869 
       0.865192         209.077         61.5945 
       0.871341         206.308         60.6232 
       0.877463         204.546         59.6773 
       0.883569         204.292         58.7542 
       0.889708         202.328         57.8461 
       0.895864         200.581          56.955 
       0.902008         198.737         56.0847 
       0.908149         197.038         55.2334 
       0.914301         196.106         54.3984 
       0.920448          195.54         53.5818 
       0.926574         193.188         52.7849 
       0.932687         192.564          52.006 
       0.938823          191.04         51.2402 
       0.944975         189.901         50.4883 
       0.951105         187.992         49.7543 
       0.957225         186.965         49.0362 
       0.963368         185.978           48.33 
       0.969511         183.525         47.6379 
       0.975621         182.273         46.9631 
       0.981748         181.369         46.2998 
       0.987916         180.549         45.6452 
        0.99406         179.181         45.0058 
        1.00019         178.088         44.3801 
        1.00632         177.091          43.767 
        1.01246         175.824         43.1646 
        1.01859         174.387         42.5746 
        1.02471           173.1         41.9965 
        1.03085         172.065         41.4272 
        1.03698         170.863         40.8697 
        1.04314         170.529         40.3202 
        1.04929         169.562         39.7822 
        1.05541         168.354         39.2562 
        1.06154         166.856         38.7386 
        1.06769         165.867         38.2295 
        1.07382         165.221         37.7314 
        1.07993         163.693         37.2433 
        1.08607         162.804          36.762 
        1.09222         161.707         36.2887 
        1.09836          160.91         35.8244 
        1.10449         159.544         35.3688 
        1.11063         158.664         34.9207 
        1.11677         157.921         34.4806 
         1.1229         156.653         34.0489 
        1.12903          155.88         33.6242 
        1.13518         154.802         33.2065 
        1.14131         154.063         32.7962 
        1.14745         152.964         32.3931 
        1.15359         151.535         31.9968 
        1.15973         151.201          31.607 
        1.16584         150.349         31.2255 
        1.17197         149.507         30.8497 
        1.17811         148.133         30.4791 
        1.18424         147.601         30.1157 
        1.19038         146.687         29.7572 
        1.19652          145.71         29.4047 
        1.20267         144.824         29.0579 
        1.20881         143.807         28.7169 
        1.21495         143.462         28.3819 
        1.22108         142.403         28.0523 
         1.2272         141.373         27.7288 
        1.23334         140.955         27.4097 
        1.23949         140.343         27.0949 
        1.24562         139.287         26.7859 
        1.25174         138.469         26.4823 
        1.25789         137.487         26.1824 
        1.26402         137.232         25.8878 
        1.27014         136.316         25.5984 
        1.27628         134.906         25.3127 
        1.28244         134.688         25.0307 
        1.28858          133.65         24.7535 
        1.29471         132.896         24.4811 
        1.30084         132.062          24.213 
        1.30697         131.388         23.9486 
        1.31312         130.574         23.6878 
        1.31925         129.636         23.4318 
        1.32537         129.252         23.1798 
        1.33151         128.772         22.9306 
        1.33765         127.514         22.6853 
        1.34378          127.39          22.444 
        1.34992         126.767         22.2061 
        1.35606         125.864         21.9712 
         1.3622         125.557         21.7401 
        1.36833         124.131         21.5129 
        1.37445         124.023         21.2891 
        1.38059         123.257         21.0679 
        1.38675          122.45         20.8492 
        1.39288         121.628         20.6345 
        1.39901         120.984          20.423 
        1.40515         120.568          20.214 
         1.4113         119.831          20.008 
        1.41742         119.074         19.8057 
        1.42355         118.825         19.6059 
         1.4297         117.817         19.4082 
        1.43585         117.232         19.2133 
        1.44198          116.29         19.0218 
        1.44809         115.657         18.8334 
        1.45423         115.504         18.6468 
        1.46036         114.454         18.4631 
        1.46649         113.855         18.2818 
        1.47263         113.459         18.1028 
        1.47877         112.604         17.9263 
        1.48491         112.253         17.7519 
        1.49104         111.007         17.5802 
        1.49718         110.904         17.4106 
        1.50333         110.487          17.243 
        1.50947          109.83          17.078 
         1.5156         109.311         16.9154 
        1.52172         108.538         16.7549 
        1.52787         108.072         16.5962 
          1.534         107.484         16.4397 
        1.54013         106.975         16.2855 
        1.54627         106.152         16.1329 
        1.55241         105.916         15.9823 
        1.55855         105.154         15.8339 
        1.56467         104.418         15.6877 
         1.5708         103.806          15.543 
        1.57695         103.578         15.3999 
        1.58308         102.894         15.2589 
        1.58922         102.859         15.1196 
        1.59535         102.351         14.9821 
         1.6015         101.393         14.8462 
        1.60764         100.785          14.712 
        1.61376          100.38         14.5798 
        1.61989         99.8991         14.4492 
        1.62604         99.3127         14.3199 
        1.63218          98.956         14.1922 
        1.63831         98.3258         14.0664 
        1.64444         97.7039         13.9421 
        1.65059         97.1822          13.819 
        1.65673         96.9269         13.6976 
        1.66285          96.318         13.5779 
        1.66898          95.664         13.4597 
        1.67512         95.2337         13.3426 
        1.68127          94.851         13.2268 
         1.6874         94.1448         13.1127 
        1.69353         93.6435         12.9999 
        1.69967         93.3007         12.8883 
        1.70581         92.9723          12.778 
        1.71193          92.373         12.6694 
        1.71806         91.8886         12.5618 
        1.72421         91.3442         12.4553 
        1.73035         91.0478         12.3502 
        1.73649         90.4028         12.2463 
        1.74262         89.9819         12.1437 
        1.74876         89.4411         12.0422 
        1.75489          89.059          11.942 
        1.76101         88.5345         11.8431 
        1.76715         88.0832         11.7451 
        1.77329           87.68         11.6481 
        1.77943         87.3026         11.5522 
        1.78557         86.9183         11.4575 
        1.79171          86.414         11.3639 
        1.79785         85.7681         11.2713 
        1.80399         85.6679         11.1797 
        1.81012         84.9979         11.0893 
        1.81625         84.5712              11 
        1.82239         84.2577         10.9115 
        1.82853         83.6684          10.824 
        1.83466         83.1931         10.7375 
        1.84078           82.98         10.6521 
        1.84692          82.739         10.5675 
        1.85306         82.2267         10.4837 
         1.8592         81.8112          10.401 
        1.86533         81.3573         10.3192 
        1.87147         80.9158         10.2382 
        1.87761          80.287          10.158 
        1.88375         80.0458         10.0788 
        1.88988         79.4008         10.0005 
        1.89601         79.3674         9.92302 
        1.90215         78.7074         9.84629 
        1.90829         78.3291         9.77041 
        1.91442         78.0247         9.69533 
        1.92056          77.802         9.62112 
         1.9267         77.2176          9.5476 
        1.93284         76.9549         9.47481 
        1.93897         76.5555         9.40292 
        1.94509         76.1166         9.33194 
        1.95123         75.7854         9.26151 
        1.95737          75.412         9.19175 
        1.96349         75.0906          9.1229 
        1.96964         74.7069         9.05456 
        1.97578         74.2185         8.98689 
        1.98192         73.7885         8.92005 
        1.98805         73.3165         8.85388 
        1.99419         73.1973         8.78838 
        2.00033         72.5969         8.72352 
        2.00647         72.3707         8.65933 
         2.0126         72.0068          8.5959 
        2.01874         71.8685         8.53301 
        2.02488         71.4591          8.4707 
        2.03101         70.9731         8.40912 
        2.03714         70.7493         8.34822 
        2.04328         70.3812         8.28786 
        2.04941         69.8501         8.22814 
        2.05554         69.6512         8.16906 
        2.06167         69.2515         8.11048 
        2.06781         68.8662         8.05247 
        2.07396         68.6254         7.99494 
        2.08009         68.2096         7.93808 
        2.08622         67.9564         7.88184 
        2.09237         67.6148         7.82603 
        2.09851         67.0311         7.77076 
        2.10464         66.9255         7.71611 
        2.11077         66.6898         7.66206 
        2.11691         66.3189         7.60841 
        2.12305         65.8571         7.55527 
        2.12918         65.5771         7.50277 
        2.13531         65.2999         7.45076 
        2.14145         64.8718         7.39913 
         2.1476          64.751         7.34793 
        2.15372         64.3166         7.29747 
        2.15985         63.9483         7.24744 
        2.16599         63.6573         7.19773 
        2.17213         63.3164         7.14855 
        2.17827         62.9628         7.09984 
         2.1844         62.6946         7.05163 
        2.19054         62.5002         7.00385 
        2.19666         62.2351         6.95658 
         2.2028         61.7462         6.90971 
        2.20893         61.4774         6.86325 
        2.21508         61.0923         6.81717 
        2.22122         60.8297         6.77149 
        2.22736         60.5704         6.72633 
        2.23349         60.2939          6.6816 
        2.23962         60.0945         6.63725 
        2.24577         59.6552         6.59326 
         2.2519         59.3957         6.54973 
        2.25802         59.1258         6.50667 
        2.26417          58.781         6.46388 
        2.27031         58.5454         6.42143 
        2.27644         58.3593         6.37949 
        2.28257         57.9593         6.33793 
        2.28872         57.7578         6.29666 
        2.29486         57.5251         6.25576 
        2.30099          57.058         6.21532 
        2.30712         56.9534         6.17521 
        2.31326         56.7022          6.1354 
         2.3194         56.3376         6.09595 
        2.32553         56.1101         6.05693 
        2.33166         55.7927         6.01826 
         2.3378          55.501         5.97987 
        2.34394          55.257         5.94182 
        2.35007         55.0045         5.90414 
        2.35619          54.725         5.86684 
        2.36233         54.4851         5.82978 
        2.36848         54.2119         5.79296 
        2.37462         53.8772         5.75654 
        2.38075          53.705         5.72046 
        2.38689         53.3888         5.68467 
        2.39303         53.1829         5.64919 
        2.39916         52.9276         5.61405 
        2.40529         52.7101         5.57921 
        2.41143         52.4483         5.54465 
        2.41757         52.1786         5.51036 
         2.4237         52.0473         5.47643 
        2.42983         51.6911         5.44278 
        2.43598         51.5222         5.40933 
        2.44211         51.1216         5.37622 
        2.44823         50.9811         5.34346 
        2.45437         50.7054         5.31088 
        2.46052         50.3808         5.27855 
        2.46665         50.1691         5.24655 
        2.47279         49.9658         5.21482 
        2.47892         49.7694         5.18333 
        2.48507         49.5549         5.15208 
         2.4912         49.2412         5.12114 
