# k  (h/Mpc)    P(k)  (Mpc/h)^3    P_linear(k)  (Mpc/h)^3
     0.00783031         14733.3         14944.5 
       0.013688         18843.2         18673.3 
       0.019231         19276.1         19260.2 
      0.0249154         17824.5         18234.9 
      0.0312784         16006.9         16235.4 
      0.0375637         14085.5         14147.1 
      0.0433917         12188.2         12478.2 
      0.0492413         11033.8         11173.9 
      0.0555754         9764.81         10140.3 
      0.0619321         9324.84         9369.15 
       0.067871         8447.97          8756.3 
      0.0738098         7857.84         8149.51 
      0.0800417         7106.01         7469.72 
      0.0862327         6515.82         6757.76 
      0.0921407         5980.58         6086.75 
      0.0982031         5347.48         5458.78 
       0.104506         4985.21          4912.3 
       0.110769         4570.67         4491.51 
       0.116806         4265.08         4189.63 
       0.122832         4046.31         3961.56 
       0.129052          3760.7         3766.45 
       0.135211         3585.66         3580.32 
       0.141259         3451.17         3383.75 
       0.147318         3269.98         3167.77 
       0.153489         3008.79         2936.17 
       0.159709         2847.09         2707.07 
       0.165845         2731.86         2501.51 
       0.171974         2566.35          2327.3 
       0.178125         2433.33         2186.75 
       0.184229         2322.26         2077.14 
        0.19034         2197.76         1988.39 
       0.196428          2158.2          1910.4 
       0.202534         2080.16         1833.45 
       0.208729         1993.42         1750.85 
       0.214876         1915.81         1663.01 
       0.220989         1853.43         1572.34 
       0.227147         1773.72         1482.36 
        0.23329         1703.14         1398.75 
       0.239377         1676.29         1325.39 
       0.245482         1572.15         1262.48 
       0.251667         1563.39          1208.7 
       0.257832          1502.3         1162.58 
       0.263955         1454.19         1121.07 
       0.270079         1406.58         1080.96 
        0.27624         1391.94         1040.18 
       0.282372         1334.01         998.507 
        0.28843         1327.95         956.747 
       0.294538         1263.29         915.255 
       0.300721         1256.27         875.266 
        0.30691         1207.36         838.391 
       0.313033         1183.74         805.505 
       0.319153         1165.26          776.14 
       0.325316         1126.64         749.436 
        0.33145         1102.48         724.876 
       0.337538         1083.96         701.601 
       0.343633         1060.09          678.78 
       0.349808         1025.76         655.823 
       0.355968         1018.88         633.101 
       0.362074         1008.99         611.027 
       0.368217         977.623         589.617 
       0.374374         941.857         569.314 
       0.380519         943.306         550.372 
       0.386598         917.733         532.973 
       0.392688         914.543         516.742 
        0.39888         888.208         501.217 
       0.405048         877.559         486.489 
       0.411186         865.118         472.325 
       0.417313         847.043         458.529 
       0.423458         833.281         445.014 
       0.429607         822.036         431.822 
       0.435692          805.63         419.185 
       0.441815         799.456         406.977 
       0.447964         782.585         395.283 
       0.454126         775.278         384.148 
       0.460267         757.169         373.625 
       0.466387         748.132         363.631 
        0.47254         742.609         354.001 
       0.478662         735.808         344.768 
       0.484765         715.218         335.857 
       0.490885         710.963         327.172 
       0.497035         695.865         318.691 
       0.503198         691.658         310.458 
       0.509342         684.223         302.528 
       0.515458         680.481         294.917 
       0.521598         664.154         287.568 
       0.527764         651.514         280.481 
       0.533884         650.422          273.72 
           0.54         643.432         267.208 
       0.546137         638.381         260.892 
       0.552299         629.343         254.754 
       0.558452         624.972         248.814 
       0.564573         616.584         243.078 
       0.570708         610.048         237.495 
       0.576825         593.415         232.096 
       0.582926         596.211          226.88 
       0.589034         590.454         221.827 
       0.595184         584.911         216.905 
       0.601379         576.914         212.107 
       0.607522         568.837           207.5 
       0.613639         569.158         203.054 
       0.619772         556.259         198.731 
       0.625918         553.335         194.525 
       0.632068         546.185         190.437 
       0.638161         544.304         186.499 
         0.6443          534.32         182.641 
       0.650464         532.467         178.877 
       0.656582         528.843         175.247 
       0.662703         526.288         171.719 
       0.668861          517.21         168.273 
       0.675024         513.202         164.921 
       0.681124         509.835         161.696 
       0.687237         505.548         158.552 
       0.693381         499.051         155.477 
       0.699536         491.245         152.478 
       0.705665         490.903         149.572 
       0.711789         487.693         146.744 
       0.717957         483.296          143.97 
        0.72409         480.533         141.284 
       0.730186         473.834         138.683 
       0.736317         470.676         136.135 
       0.742472         468.455         133.642 
       0.748622         463.127         131.214 
        0.75476         456.662         128.852 
       0.760888         452.427         126.553 
       0.767043         452.778         124.301 
       0.773185         447.877         122.109 
       0.779291         443.092         119.983 
       0.785407         440.037         117.905 
       0.791564         435.052         115.864 
       0.797719         432.913         113.872 
       0.803834         428.688          111.94 
       0.809972         427.191         110.047 
       0.816124         426.202         108.193 
       0.822261         419.892         106.388 
       0.828378         417.726          104.63 
       0.834502         413.337          102.91 
       0.840667         410.019         101.218 
       0.846816         408.234         99.5689 
       0.852925          404.88         97.9673 
       0.859047         403.447         96.3979 
       0.865192          398.53         94.8579 
       0.871341         395.306         93.3507 
       0.877463          394.62         91.8834 
       0.883569         390.964         90.4515 
       0.889708         388.258         89.0429 
       0.895864         386.019          87.661 
       0.902008         382.919         86.3114 
       0.908149         379.042         84.9912 
       0.914301         376.375         83.6967 
       0.920448         374.278         82.4305 
       0.926574         368.875         81.1951 
       0.932687         369.004         79.9877 
       0.938823          365.06         78.8008 
       0.944975         365.112         77.6353 
       0.951105         360.623         76.4977 
       0.957225         358.298          75.385 
       0.963368         354.476         74.2907 
       0.969511         353.203         73.2183 
       0.975621         350.803          72.173 
       0.981748         349.325         71.1455 
       0.987916         347.069         70.1317 
        0.99406          341.31         69.1416 
        1.00019         340.508         68.1727 
        1.00632          338.86         67.2233 
        1.01246         335.991         66.2908 
        1.01859         336.409         65.3775 
        1.02471         331.287         64.4828 
        1.03085         329.657         63.6017 
        1.03698         328.464         62.7392 
        1.04314         325.334          61.889 
        1.04929         322.296         61.0568 
        1.05541         323.024         60.2432 
        1.06154         317.606         59.4426 
        1.06769         316.617         58.6554 
        1.07382         314.562         57.8851 
        1.07993         312.567         57.1305 
        1.08607         311.548         56.3863 
        1.09222         308.553         55.6546 
        1.09836         306.562         54.9369 
        1.10449         303.749         54.2327 
        1.11063         300.691         53.5401 
        1.11677         300.918           52.86 
         1.1229         298.747         52.1929 
        1.12903         296.517         51.5367 
        1.13518         293.848         50.8914 
        1.14131         292.359         50.2575 
        1.14745         290.919         49.6347 
        1.15359         288.803         49.0225 
        1.15973         286.939         48.4203 
        1.16584         284.837          47.831 
        1.17197         284.621         47.2507 
        1.17811         281.246         46.6783 
        1.18424         279.213         46.1171 
        1.19038         278.254         45.5635 
        1.19652         275.996         45.0192 
        1.20267         275.183         44.4839 
        1.20881         273.213         43.9574 
        1.21495          271.04         43.4403 
        1.22108         269.569         42.9316 
         1.2272         267.811         42.4323 
        1.23334         266.236         41.9399 
        1.23949         264.452         41.4541 
        1.24562         263.363         40.9774 
        1.25174           261.2          40.509 
        1.25789         259.103         40.0465 
        1.26402         257.307          39.592 
        1.27014          255.79         39.1458 
        1.27628         254.439         38.7051 
        1.28244         254.037         38.2704 
        1.28858         251.325          37.843 
        1.29471         249.572         37.4231 
        1.30084         248.202           37.01 
        1.30697         246.751         36.6026 
        1.31312          244.25         36.2007 
        1.31925         243.687         35.8061 
        1.32537         242.675         35.4178 
        1.33151         240.247         35.0339 
        1.33765          238.51          34.656 
        1.34378         237.772         34.2843 
        1.34992         236.383         33.9179 
        1.35606         235.838         33.5561 
         1.3622         233.599         33.2002 
        1.36833         231.592         32.8503 
        1.37445         230.655         32.5057 
        1.38059         228.638          32.165 
        1.38675         227.788         31.8283 
        1.39288          226.34         31.4978 
        1.39901         225.606         31.1722 
        1.40515         223.746         30.8505 
         1.4113         222.465         30.5334 
        1.41742         220.768          30.222 
        1.42355         219.692         29.9144 
         1.4297         217.895         29.6102 
        1.43585         216.817         29.3103 
        1.44198         215.733         29.0157 
        1.44809         214.487         28.7257 
        1.45423         213.154         28.4386 
        1.46036         211.978          28.156 
        1.46649         210.293         27.8771 
        1.47263         209.033         27.6018 
        1.47877         207.791         27.3303 
        1.48491         206.107         27.0621 
        1.49104         205.428          26.798 
        1.49718         203.639         26.5373 
        1.50333         202.935         26.2797 
        1.50947         201.704          26.026 
         1.5156         199.849          25.776 
        1.52172         199.168         25.5293 
        1.52787         197.503         25.2854 
          1.534         197.026          25.045 
        1.54013         195.289          24.808 
        1.54627         194.363         24.5736 
        1.55241         193.051         24.3422 
        1.55855         191.781         24.1141 
        1.56467         190.627         23.8896 
         1.5708         190.086         23.6673 
        1.57695         188.677         23.4475 
        1.58308         187.585          23.231 
        1.58922         185.908         23.0171 
        1.59535         184.597          22.806 
         1.6015         184.154         22.5972 
        1.60764         182.854         22.3912 
        1.61376          181.77         22.1883 
        1.61989         180.848         21.9878 
        1.62604         179.668         21.7893 
        1.63218         178.694         21.5934 
        1.63831         177.386         21.4003 
        1.64444         176.641         21.2095 
        1.65059         175.392         21.0206 
        1.65673         174.188         20.8342 
        1.66285         173.233         20.6506 
        1.66898         172.102         20.4692 
        1.67512         171.821         20.2895 
        1.68127         169.844         20.1119 
         1.6874         169.082         19.9368 
        1.69353         168.139         19.7639 
        1.69967         166.845         19.5926 
        1.70581         166.172         19.4234 
        1.71193         164.934         19.2569 
        1.71806         164.406          19.092 
        1.72421         163.129         18.9287 
        1.73035         162.495         18.7675 
        1.73649         161.547         18.6082 
        1.74262         160.407         18.4509 
        1.74876         159.474         18.2953 
        1.75489         158.543         18.1418 
        1.76101         157.294         17.9901 
        1.76715         156.884           17.84 
        1.77329         155.942         17.6913 
        1.77943         155.072         17.5444 
        1.78557         154.178         17.3993 
        1.79171         153.332         17.2558 
        1.79785          152.21         17.1139 
        1.80399         151.298         16.9737 
        1.81012         150.398         16.8352 
        1.81625         149.852         16.6983 
        1.82239         148.752         16.5628 
        1.82853         148.205         16.4288 
        1.83466         147.019         16.2964 
        1.84078         146.465         16.1657 
        1.84692         144.986         16.0361 
        1.85306         144.866         15.9078 
         1.8592         143.771         15.7812 
        1.86533         142.947         15.6559 
        1.87147         141.848         15.5319 
        1.87761         141.254         15.4092 
        1.88375         140.054          15.288 
        1.88988         139.286         15.1682 
        1.89601         138.903         15.0496 
        1.90215         137.795         14.9322 
        1.90829         137.149         14.8161 
        1.91442         136.358         14.7012 
        1.92056          135.63         14.5876 
         1.9267         134.911         14.4752 
        1.93284         133.944         14.3638 
        1.93897         133.301         14.2538 
        1.94509           132.6         14.1452 
        1.95123         132.018         14.0375 
        1.95737          131.27         13.9308 
        1.96349         130.478         13.8255 
        1.96964         129.421          13.721 
        1.97578         128.685         13.6176 
        1.98192         128.247         13.5154 
        1.98805         127.297         13.4142 
        1.99419         126.672         13.3141 
        2.00033         125.913         13.2149 
        2.00647         125.384         13.1168 
         2.0126         124.214         13.0198 
        2.01874         123.755         12.9237 
        2.02488         123.357         12.8285 
        2.03101         122.123         12.7344 
        2.03714         121.748         12.6413 
        2.04328         120.897         12.5491 
        2.04941         120.377         12.4578 
        2.05554         119.509         12.3676 
        2.06167         119.171         12.2781 
        2.06781         118.418         12.1894 
        2.07396         117.565         12.1016 
        2.08009         117.123         12.0147 
        2.08622         116.244         11.9288 
        2.09237         115.643         11.8436 
        2.09851         115.064         11.7592 
        2.10464         114.654         11.6757 
        2.11077         113.921         11.5932 
        2.11691         113.349         11.5113 
        2.12305         112.392         11.4301 
        2.12918         111.824           11.35 
        2.13531         111.316         11.2706 
        2.14145         110.524         11.1918 
         2.1476         109.692         11.1136 
        2.15372         109.553         11.0366 
        2.15985         109.074         10.9603 
        2.16599          108.14         10.8844 
        2.17213         107.572         10.8094 
        2.17827         107.077          10.735 
         2.1844         106.251         10.6615 
        2.19054         105.921         10.5886 
        2.19666         105.311         10.5165 
         2.2028         104.598          10.445 
        2.20893          104.22         10.3741 
        2.21508         103.516         10.3038 
        2.22122         102.971         10.2341 
        2.22736         102.465         10.1652 
        2.23349         101.914          10.097 
        2.23962         101.247         10.0294 
        2.24577         100.814         9.96228 
         2.2519         100.454          9.8959 
        2.25802         99.4756         9.83024 
        2.26417         99.1247         9.76499 
        2.27031         98.4619         9.70028 
        2.27644         98.0419         9.63634 
        2.28257         97.3836         9.57297 
        2.28872         97.0457         9.51006 
        2.29486         96.3849         9.44773 
        2.30099         95.9313         9.38609 
        2.30712         95.4075         9.32496 
        2.31326         94.7867         9.26428 
         2.3194         94.2798         9.20418 
        2.32553         93.8587         9.14471 
        2.33166         93.3508         9.08579 
         2.3378         92.9424          9.0273 
        2.34394         92.4415         8.96932 
        2.35007          91.798         8.91192 
        2.35619         91.4616          8.8551 
        2.36233         90.8964         8.79864 
        2.36848         90.3429         8.74255 
        2.37462         89.9992         8.68708 
        2.38075         89.3897         8.63213 
        2.38689         88.9725         8.57762 
        2.39303         88.2825         8.52358 
        2.39916         88.0854         8.47007 
        2.40529         87.6964         8.41702 
        2.41143         87.0371         8.36439 
        2.41757         86.6467         8.31218 
         2.4237         86.1505         8.26052 
        2.42983         85.5786          8.2093 
        2.43598         85.1344         8.15838 
        2.44211         84.9779         8.10797 
        2.44823         84.4332         8.05811 
        2.45437         83.7237         8.00852 
        2.46052         83.2795         7.95932 
        2.46665         83.0101         7.91061 
        2.47279         82.5009         7.86233 
        2.47892         82.1427         7.81442 
        2.48507         81.6608         7.76686 
         2.4912         81.3365         7.71979 
