# k  (h/Mpc)    Pcb(k)  (Mpc/h)^3    Pcb_linear(k)  (Mpc/h)^3
     0.00783031         11931.9         12094.8 
       0.013688         15253.3         15134.6 
       0.019231         15637.4         15621.4 
      0.0249154         14505.1         14796.3 
      0.0312784         13025.6         13177.9 
      0.0375637         11454.1         11485.2 
      0.0433917         9935.32         10131.6 
      0.0492413         8985.09          9073.5 
      0.0555754         7977.41         8234.88 
      0.0619321         7595.63         7609.09 
       0.067871         6904.69          7111.7 
      0.0738098         6421.18         6619.12 
      0.0800417          5815.9         6067.19 
      0.0862327         5325.69         5489.05 
      0.0921407         4875.16         4944.12 
      0.0982031         4355.77         4434.12 
       0.104506         4047.18         3990.29 
       0.110769         3707.54         3648.53 
       0.116806         3451.75         3403.34 
       0.122832          3278.4         3218.11 
       0.129052         3052.38         3059.64 
       0.135211         2910.18         2908.46 
       0.141259         2795.51         2748.81 
       0.147318         2644.69         2573.37 
       0.153489         2433.55         2385.24 
       0.159709         2297.14         2199.14 
       0.165845         2193.97         2032.16 
       0.171974         2055.31         1890.64 
       0.178125         1947.07         1776.47 
       0.184229         1861.13         1687.43 
        0.19034         1751.85         1615.33 
       0.196428         1722.51         1551.98 
       0.202534         1664.47         1489.47 
       0.208729         1591.01         1422.37 
       0.214876         1521.34         1351.02 
       0.220989         1472.49         1277.36 
       0.227147         1402.41         1204.26 
        0.23329          1344.8         1136.34 
       0.239377         1319.11         1076.74 
       0.245482          1233.7         1025.64 
       0.251667         1225.03         981.952 
       0.257832            1178         944.484 
       0.263955         1140.55          910.76 
       0.270079         1102.06         878.174 
        0.27624         1091.09         845.052 
       0.282372          1044.9         811.193 
        0.28843         1032.65         777.268 
       0.294538         981.318          743.56 
       0.300721         976.873         711.074 
        0.30691         934.965         681.117 
       0.313033         917.078         654.402 
       0.319153          897.32         630.544 
       0.325316         868.598         608.849 
        0.33145         847.833         588.898 
       0.337538         835.576         569.988 
       0.343633         813.208         551.448 
       0.349808         786.206         532.799 
       0.355968         781.391          514.34 
       0.362074         770.895         496.407 
       0.368217         748.331         479.014 
       0.374374         718.336         462.519 
       0.380519         717.041          447.13 
       0.386598         698.844         432.995 
       0.392688         696.533         419.809 
        0.39888         675.776         407.196 
       0.405048         665.144         395.232 
       0.411186          654.91         383.724 
       0.417313         641.902         372.517 
       0.423458          631.34         361.537 
       0.429607         620.934          350.82 
       0.435692         607.368         340.553 
       0.441815         602.983         330.636 
       0.447964         590.268         321.135 
       0.454126         579.769         312.089 
       0.460267         568.878         303.539 
       0.466387         562.653         295.421 
        0.47254         553.846         287.597 
       0.478662         551.642         280.096 
       0.484765         534.737         272.857 
       0.490885         530.667         265.801 
       0.497035         520.239          258.91 
       0.503198         514.735         252.222 
       0.509342         510.244          245.78 
       0.515458         506.014         239.597 
       0.521598         494.398         233.626 
       0.527764         484.919         227.869 
       0.533884         483.431         222.376 
           0.54         477.083         217.085 
       0.546137         474.974         211.954 
       0.552299         466.132         206.967 
       0.558452         463.686         202.142 
       0.564573         456.721         197.482 
       0.570708         450.489         192.946 
       0.576825         439.885          188.56 
       0.582926          439.51         184.323 
       0.589034         435.607         180.217 
       0.595184         431.569         176.218 
       0.601379         426.002         172.321 
       0.607522         419.731         168.578 
       0.613639         418.771         164.966 
       0.619772         408.512         161.453 
       0.625918         407.403         158.037 
       0.632068         401.427         154.715 
       0.638161         399.953         151.516 
         0.6443         392.649         148.382 
       0.650464         390.072         145.324 
       0.656582         388.305         142.375 
       0.662703         386.009         139.509 
       0.668861         379.077         136.709 
       0.675024         375.815         133.985 
       0.681124         373.441         131.366 
       0.687237         369.815         128.811 
       0.693381         364.725         126.313 
       0.699536         360.661         123.877 
       0.705665         358.675         121.516 
       0.711789         355.992         119.218 
       0.717957          353.16         116.965 
        0.72409          350.07         114.782 
       0.730186         346.316          112.67 
       0.736317         342.961         110.599 
       0.742472         341.568         108.574 
       0.748622         337.957         106.601 
        0.75476         334.519         104.682 
       0.760888         330.694         102.814 
       0.767043         331.209         100.985 
       0.773185         326.675         99.2042 
       0.779291          321.99          97.477 
       0.785407         320.966         95.7888 
       0.791564         317.177         94.1304 
       0.797719         314.766         92.5123 
       0.803834         312.381          90.943 
       0.809972         310.941         89.4047 
       0.816124         310.817          87.899 
       0.822261         305.853         86.4323 
       0.828378         303.975         85.0037 
       0.834502         302.165         83.6064 
       0.840667         298.535         82.2318 
       0.846816         297.131         80.8922 
       0.852925         295.061          79.591 
       0.859047         293.233          78.316 
       0.865192         290.134         77.0648 
       0.871341           287.9         75.8404 
       0.877463         286.214         74.6483 
       0.883569         284.765          73.485 
       0.889708         282.039         72.3407 
       0.895864         278.903         71.2179 
       0.902008         277.888         70.1215 
       0.908149         276.423          69.049 
       0.914301         273.009         67.9973 
       0.920448         271.178         66.9686 
       0.926574         268.933         65.9649 
       0.932687         269.116          64.984 
       0.938823         265.781         64.0197 
       0.944975         264.627         63.0728 
       0.951105          262.78         62.1486 
       0.957225         260.663         61.2446 
       0.963368         257.548         60.3556 
       0.969511         256.327         59.4844 
       0.975621         254.167         58.6351 
       0.981748         254.263         57.8004 
       0.987916         251.772         56.9767 
        0.99406         248.508         56.1723 
        1.00019         248.618         55.3852 
        1.00632         246.666         54.6139 
        1.01246         244.598         53.8563 
        1.01859          244.64         53.1144 
        1.02471         241.295         52.3874 
        1.03085         239.196         51.6717 
        1.03698         238.387         50.9709 
        1.04314         236.193         50.2802 
        1.04929         234.596          49.604 
        1.05541         234.672         48.9431 
        1.06154         231.548         48.2927 
        1.06769         231.133         47.6531 
        1.07382         229.472         47.0273 
        1.07993         227.558         46.4143 
        1.08607         226.857         45.8096 
        1.09222         225.274         45.2152 
        1.09836         223.389         44.6321 
        1.10449         221.186           44.06 
        1.11063         219.357         43.4974 
        1.11677         219.139         42.9448 
         1.1229         217.426         42.4028 
        1.12903         216.139         41.8697 
        1.13518         214.849         41.3454 
        1.14131         213.054         40.8304 
        1.14745         212.795         40.3245 
        1.15359         210.842         39.8271 
        1.15973         209.847         39.3379 
        1.16584         207.799         38.8592 
        1.17197         207.514         38.3877 
        1.17811         205.604         37.9227 
        1.18424         204.455         37.4667 
        1.19038          203.79         37.0169 
        1.19652         202.227         36.5747 
        1.20267         201.615         36.1398 
        1.20881         199.625         35.7121 
        1.21495         198.651          35.292 
        1.22108         197.612         34.8787 
         1.2272         195.956         34.4731 
        1.23334         195.116          34.073 
        1.23949         193.811         33.6784 
        1.24562         192.851         33.2911 
        1.25174         190.852         32.9105 
        1.25789         189.772         32.5348 
        1.26402         188.746         32.1656 
        1.27014         187.444         31.8031 
        1.27628           186.6          31.445 
        1.28244         186.313         31.0919 
        1.28858         184.388         30.7447 
        1.29471         182.749         30.4035 
        1.30084         182.192         30.0679 
        1.30697         180.866         29.7369 
        1.31312         179.732         29.4104 
        1.31925         179.055         29.0898 
        1.32537         178.003         28.7744 
        1.33151           176.3         28.4625 
        1.33765         175.569         28.1554 
        1.34378         174.674         27.8535 
        1.34992         173.864         27.5558 
        1.35606         173.444         27.2618 
         1.3622         171.799         26.9727 
        1.36833         170.294         26.6885 
        1.37445         169.424         26.4085 
        1.38059         168.469         26.1316 
        1.38675         167.663         25.8582 
        1.39288         166.712         25.5897 
        1.39901          166.53         25.3251 
        1.40515         164.821         25.0637 
         1.4113         163.586         24.8061 
        1.41742          162.86         24.5532 
        1.42355         161.732         24.3032 
         1.4297         160.889         24.0561 
        1.43585         159.696         23.8124 
        1.44198          159.08         23.5731 
        1.44809         158.294         23.3375 
        1.45423         157.163         23.1043 
        1.46036         156.347         22.8746 
        1.46649         155.292         22.6481 
        1.47263         154.394         22.4244 
        1.47877         153.714         22.2039 
        1.48491         152.185         21.9859 
        1.49104         152.022         21.7714 
        1.49718         150.331         21.5596 
        1.50333           149.9         21.3503 
        1.50947         149.329         21.1442 
         1.5156         148.124         20.9411 
        1.52172         147.289         20.7407 
        1.52787         146.283         20.5425 
          1.534         145.747         20.3472 
        1.54013         144.625         20.1546 
        1.54627         144.062         19.9642 
        1.55241         142.946         19.7762 
        1.55855         142.183         19.5909 
        1.56467         141.525         19.4085 
         1.5708         140.603         19.2279 
        1.57695          139.85         19.0493 
        1.58308         139.235         18.8735 
        1.58922         138.471         18.6997 
        1.59535         137.355         18.5282 
         1.6015         136.945         18.3586 
        1.60764          136.07         18.1912 
        1.61376         135.312         18.0264 
        1.61989         134.379         17.8635 
        1.62604         133.741         17.7022 
        1.63218         133.064          17.543 
        1.63831         132.095         17.3862 
        1.64444         131.673         17.2312 
        1.65059         130.983         17.0777 
        1.65673         129.691         16.9263 
        1.66285         129.516         16.7771 
        1.66898         128.672         16.6297 
        1.67512         128.194         16.4838 
        1.68127         127.028         16.3394 
         1.6874         126.019         16.1972 
        1.69353         125.811         16.0567 
        1.69967         125.096         15.9176 
        1.70581         124.287         15.7801 
        1.71193         123.651         15.6448 
        1.71806         123.013         15.5108 
        1.72421         122.222         15.3782 
        1.73035         121.928         15.2472 
        1.73649         121.054         15.1178 
        1.74262         120.259           14.99 
        1.74876         119.876         14.8635 
        1.75489         118.755         14.7389 
        1.76101         118.259         14.6156 
        1.76715         117.475         14.4937 
        1.77329         117.277         14.3729 
        1.77943         116.196         14.2535 
        1.78557         115.644         14.1356 
        1.79171         114.956         14.0191 
        1.79785         114.358         13.9038 
        1.80399         113.663         13.7899 
        1.81012         113.128         13.6774 
        1.81625          112.46         13.5662 
        1.82239         112.164          13.456 
        1.82853         111.483         13.3472 
        1.83466         110.612         13.2396 
        1.84078         110.323         13.1334 
        1.84692          109.38         13.0282 
        1.85306         108.969         12.9239 
         1.8592         108.247          12.821 
        1.86533         107.513         12.7193 
        1.87147         106.923         12.6186 
        1.87761         106.528         12.5189 
        1.88375         105.629         12.4204 
        1.88988         105.178          12.323 
        1.89601         104.564         12.2267 
        1.90215         104.135         12.1313 
        1.90829         103.489          12.037 
        1.91442         103.039         11.9436 
        1.92056         102.353         11.8514 
         1.9267         101.979           11.76 
        1.93284         101.415         11.6695 
        1.93897         100.728         11.5802 
        1.94509         100.404          11.492 
        1.95123          99.788         11.4045 
        1.95737         99.2549         11.3178 
        1.96349         98.6577         11.2322 
        1.96964         97.8801         11.1473 
        1.97578          97.547         11.0633 
        1.98192         97.1895         10.9802 
        1.98805          96.261          10.898 
        1.99419         96.0319         10.8167 
        2.00033         95.4732         10.7361 
        2.00647         94.9359         10.6564 
         2.0126         94.3803         10.5777 
        2.01874         93.8122         10.4996 
        2.02488         93.3368         10.4222 
        2.03101         92.7881         10.3458 
        2.03714         92.2443         10.2701 
        2.04328         91.8704         10.1952 
        2.04941         91.3785         10.1211 
        2.05554         90.8395         10.0477 
        2.06167         90.3893         9.97503 
        2.06781         89.8863         9.90303 
        2.07396         89.3283         9.83164 
        2.08009         88.9449         9.76108 
        2.08622         88.5105         9.69129 
        2.09237         87.8713         9.62205 
        2.09851         87.6164         9.55347 
        2.10464         86.9877         9.48568 
        2.11077         86.6642         9.41862 
        2.11691          86.299         9.35207 
        2.12305         85.5898         9.28616 
        2.12918         85.1334         9.22104 
        2.13531            84.9         9.15654 
        2.14145         84.0606         9.09251 
         2.1476         83.7455         9.02902 
        2.15372         83.3805         8.96645 
        2.15985         82.9601         8.90442 
        2.16599         82.5677         8.84279 
        2.17213          82.005         8.78182 
        2.17827         81.6417         8.72143 
         2.1844         81.0989         8.66167 
        2.19054         80.9499         8.60244 
        2.19666          80.347         8.54386 
         2.2028           80.11         8.48576 
        2.20893         79.4748         8.42818 
        2.21508         79.0245         8.37107 
        2.22122            78.7         8.31446 
        2.22736         78.2918          8.2585 
        2.23349         77.9525         8.20307 
        2.23962         77.4135         8.14812 
        2.24577         77.0703         8.09362 
         2.2519         76.8114          8.0397 
        2.25802         76.2511         7.98635 
        2.26417         75.7967         7.93334 
        2.27031         75.4915         7.88076 
        2.27644         75.0708         7.82882 
        2.28257         74.5876         7.77734 
        2.28872         74.2121         7.72623 
        2.29486          73.795         7.67559 
        2.30099         73.3987         7.62551 
        2.30712         73.1479         7.57585 
        2.31326         72.8073         7.52655 
         2.3194         72.3512         7.47772 
        2.32553         71.9392          7.4294 
        2.33166         71.5425         7.38154 
         2.3378         71.1307         7.33402 
        2.34394         70.8732         7.28691 
        2.35007         70.3596         7.24029 
        2.35619         70.0098         7.19412 
        2.36233         69.7236         7.14825 
        2.36848         69.3539         7.10269 
        2.37462         68.9472         7.05761 
        2.38075          68.746         7.01298 
        2.38689         68.2487         6.96869 
        2.39303         67.9754         6.92479 
        2.39916         67.5334         6.88131 
        2.40529         67.3479         6.83821 
        2.41143         66.9011         6.79545 
        2.41757         66.6143         6.75304 
         2.4237         66.3444         6.71107 
        2.42983         65.8625         6.66945 
        2.43598         65.5961         6.62808 
        2.44211         65.2292         6.58713 
        2.44823         64.9427         6.54662 
        2.45437         64.4885         6.50634 
        2.46052         64.1759         6.46636 
        2.46665          63.907         6.42679 
        2.47279         63.5387         6.38757 
        2.47892         63.2498         6.34864 
        2.48507         62.8239         6.31001 
         2.4912         62.6152         6.27177 
