# k  (h/Mpc)    P(k)  (Mpc/h)^3    P_linear(k)  (Mpc/h)^3
     0.00783031         6904.56         6997.25 
       0.013688         9023.34         8987.13 
       0.019231         9413.56         9412.14 
      0.0249154         8858.72         8996.92 
      0.0312784          7998.9         8064.74 
      0.0375637         7056.55          7064.8 
      0.0433917         6178.03         6265.58 
      0.0492413         5612.48         5648.58 
      0.0555754          5049.4         5168.27 
      0.0619321         4813.34         4812.37 
       0.067871         4425.86         4522.38 
      0.0738098          4126.9         4222.35 
      0.0800417         3750.63         3873.99 
      0.0862327         3424.26         3503.22 
      0.0921407         3117.25            3154 
      0.0982031         2786.59         2831.09 
       0.104506         2578.37         2555.98 
       0.110769         2371.14         2349.99 
       0.116806          2211.3         2206.23 
       0.122832         2114.39         2098.65 
       0.129052          1983.9         2003.87 
       0.135211         1891.79         1907.99 
       0.141259         1809.94         1801.96 
       0.147318         1706.17         1683.35 
       0.153489         1568.54         1556.74 
       0.159709         1471.33         1433.83 
       0.165845         1397.01          1326.6 
       0.171974         1303.97         1238.72 
       0.178125         1238.24         1170.17 
       0.184229         1189.54         1117.87 
        0.19034          1118.1         1075.14 
       0.196428         1100.51         1035.76 
       0.202534         1067.38         994.461 
       0.208729         1016.56         948.263 
       0.214876         963.553         898.528 
       0.220989         932.352         847.688 
       0.227147         879.532         798.422 
        0.23329          841.88         754.097 
       0.239377         821.421           716.5 
       0.245482         767.976          685.19 
       0.251667         760.533         658.832 
       0.257832         734.655          635.95 
       0.263955          711.28         614.537 
       0.270079         687.669         592.875 
        0.27624         679.169         570.043 
       0.282372         650.643         546.391 
        0.28843         633.789         522.813 
       0.294538         604.158         499.801 
       0.300721          599.68           478.2 
        0.30691         572.185         458.809 
       0.313033         560.483         441.925 
       0.319153         542.632         426.978 
       0.325316         527.575         413.314 
        0.33145         512.815         400.441 
       0.337538          506.76         387.885 
       0.343633         490.756         375.246 
       0.349808         475.477         362.358 
       0.355968         470.382         349.587 
       0.362074         460.232         337.292 
       0.368217         448.009         325.576 
       0.374374          431.62         314.647 
       0.380519         426.623         304.625 
       0.386598         416.687         295.484 
       0.392688          413.47         286.939 
        0.39888         402.039         278.688 
       0.405048         394.137         270.719 
       0.411186         386.252         262.933 
       0.417313         379.426         255.276 
       0.423458         372.741         247.728 
       0.429607         364.675         240.392 
       0.435692         355.622         233.424 
       0.441815         353.314          226.75 
       0.447964         346.743         220.418 
       0.454126         334.524         214.434 
       0.460267         330.802         208.772 
       0.466387         327.034         203.373 
        0.47254         320.301         198.138 
       0.478662         318.769         193.074 
       0.484765          309.82         188.142 
       0.490885         305.978         183.322 
       0.497035         301.421         178.617 
       0.503198         294.769         174.058 
       0.509342          292.17         169.682 
       0.515458         288.578         165.505 
       0.521598         284.086          161.49 
       0.527764         279.366          157.62 
       0.533884         276.208          153.92 
           0.54         272.448         150.346 
       0.546137         271.217          146.87 
       0.552299         266.014          143.48 
       0.558452         262.829         140.184 
       0.564573         258.579         136.996 
       0.570708         254.354         133.896 
       0.576825         251.174         130.905 
       0.582926         248.264         128.022 
       0.589034         245.123          125.23 
       0.595184         242.895          122.51 
       0.601379         240.633          119.86 
       0.607522         235.803         117.314 
       0.613639         234.967         114.854 
       0.619772          229.64         112.457 
       0.625918         228.058         110.121 
       0.632068         225.316         107.845 
       0.638161         224.169         105.651 
         0.6443         220.574         103.503 
       0.650464         218.549          101.41 
       0.656582         216.934         99.3924 
       0.662703         214.201         97.4325 
       0.668861         211.157         95.5164 
       0.675024          208.93         93.6516 
       0.681124         208.007         91.8559 
       0.687237         204.664         90.1036 
       0.693381         201.997         88.3889 
       0.699536         200.625          86.716 
       0.705665         200.422         85.0939 
       0.711789         196.454         83.5152 
       0.717957         195.683         81.9662 
        0.72409         193.288         80.4656 
       0.730186         190.479         79.0123 
       0.736317         189.428         77.5874 
       0.742472         188.347         76.1931 
       0.748622         186.908         74.8348 
        0.75476         185.303         73.5132 
       0.760888         182.743         72.2259 
       0.767043         181.803         70.9649 
       0.773185         179.935         69.7371 
       0.779291         177.326         68.5456 
       0.785407         176.585         67.3806 
       0.791564         174.972         66.2357 
       0.797719         172.808         65.1182 
       0.803834         172.098         64.0339 
       0.809972         170.083         62.9707 
       0.816124         170.052         61.9296 
       0.822261         167.795         60.9151 
       0.828378         166.363         59.9267 
       0.834502         166.003         58.9596 
       0.840667         163.587         58.0078 
       0.846816         162.485           57.08 
       0.852925         161.212         56.1786 
       0.859047         159.568         55.2949 
       0.865192         158.831         54.4276 
       0.871341         157.164         53.5785 
       0.877463         156.074         52.7516 
       0.883569         154.804         51.9445 
       0.889708         153.872         51.1503 
       0.895864         152.372         50.3708 
       0.902008          151.46         49.6094 
       0.908149         150.716         48.8643 
       0.914301         149.073         48.1336 
       0.920448         148.179         47.4186 
       0.926574         147.354         46.7208 
       0.932687         146.554         46.0386 
       0.938823         144.709         45.3678 
       0.944975         143.667          44.709 
       0.951105         142.918         44.0657 
       0.957225         141.207         43.4363 
       0.963368         140.414         42.8173 
       0.969511         139.895         42.2104 
       0.975621         139.304         41.6186 
       0.981748          138.36         41.0369 
       0.987916         136.817         40.4626 
        0.99406         136.246         39.9017 
        1.00019         135.261         39.3526 
        1.00632         134.394         38.8144 
        1.01246         133.423         38.2857 
        1.01859         131.956         37.7677 
        1.02471         132.101         37.2601 
        1.03085         130.733         36.7601 
        1.03698         129.705         36.2704 
        1.04314          128.73         35.7877 
        1.04929         128.013          35.315 
        1.05541         127.252         34.8528 
        1.06154         126.459         34.3979 
        1.06769         126.137         33.9504 
        1.07382          125.46         33.5124 
        1.07993         124.518         33.0832 
        1.08607           123.5         32.6598 
        1.09222         122.895         32.2435 
        1.09836          121.93          31.835 
        1.10449         121.233         31.4341 
        1.11063         120.566         31.0397 
        1.11677         120.007         30.6523 
         1.1229         118.769         30.2723 
        1.12903         117.921         29.8984 
        1.13518          118.13         29.5305 
        1.14131         116.994         29.1691 
        1.14745         116.108          28.814 
        1.15359         115.484         28.4648 
        1.15973         115.154         28.1213 
        1.16584         114.201         27.7851 
        1.17197         113.533         27.4539 
        1.17811         112.898         27.1271 
        1.18424         112.078         26.8067 
        1.19038         111.553         26.4906 
        1.19652         110.995         26.1797 
        1.20267         110.155         25.8738 
        1.20881         109.573          25.573 
        1.21495         108.814         25.2775 
        1.22108         108.231         24.9867 
         1.2272          107.54         24.7012 
        1.23334         107.047         24.4195 
        1.23949         106.098         24.1416 
        1.24562         105.979         23.8689 
        1.25174          105.14         23.6008 
        1.25789         104.631          23.336 
        1.26402          104.21         23.0759 
        1.27014         103.265         22.8203 
        1.27628         103.027         22.5679 
        1.28244         102.174         22.3189 
        1.28858         101.735         22.0739 
        1.29471         101.119         21.8333 
        1.30084         100.536         21.5964 
        1.30697         99.9524         21.3628 
        1.31312         99.5703         21.1323 
        1.31925         99.0687         20.9059 
        1.32537         98.6176         20.6831 
        1.33151         97.6745         20.4628 
        1.33765         97.1939         20.2458 
        1.34378         96.5965         20.0324 
        1.34992          96.405          19.822 
        1.35606         95.8412         19.6142 
         1.3622         94.9959         19.4097 
        1.36833         94.8457         19.2087 
        1.37445         94.1303         19.0106 
        1.38059         93.5603         18.8147 
        1.38675         93.0368         18.6212 
        1.39288         92.5059         18.4311 
        1.39901         92.4058         18.2439 
        1.40515         91.8993         18.0588 
         1.4113         91.0374         17.8764 
        1.41742         90.9007         17.6972 
        1.42355         90.1615         17.5201 
         1.4297         89.7614          17.345 
        1.43585         89.1537         17.1723 
        1.44198         88.9357         17.0027 
        1.44809         88.2982         16.8357 
        1.45423           87.88         16.6703 
        1.46036         87.5424         16.5075 
        1.46649         87.0142         16.3468 
        1.47263         86.6047         16.1881 
        1.47877         86.2999         16.0316 
        1.48491         85.7354          15.877 
        1.49104         85.2261         15.7247 
        1.49718         84.7894         15.5744 
        1.50333         84.3445         15.4258 
        1.50947         83.7719         15.2794 
         1.5156          83.611         15.1352 
        1.52172         83.0555         14.9928 
        1.52787         82.8428          14.852 
          1.534         82.4118         14.7132 
        1.54013          81.781         14.5763 
        1.54627         81.4328         14.4409 
        1.55241         80.9618         14.3072 
        1.55855         80.5827         14.1754 
        1.56467         80.0389         14.0457 
         1.5708         79.8152         13.9172 
        1.57695          79.528         13.7901 
        1.58308         78.8951          13.665 
        1.58922         78.7527         13.5413 
        1.59535         78.4319         13.4192 
         1.6015         77.7857         13.2984 
        1.60764         77.5814         13.1792 
        1.61376         77.0601         13.0618 
        1.61989         76.6572         12.9457 
        1.62604         76.3699         12.8308 
        1.63218         76.1446         12.7174 
        1.63831         75.6288         12.6056 
        1.64444         75.3056         12.4951 
        1.65059         74.6602         12.3857 
        1.65673         74.4988         12.2777 
        1.66285         74.1417         12.1713 
        1.66898         73.7474         12.0662 
        1.67512         73.2611         11.9621 
        1.68127          72.917         11.8591 
         1.6874         72.6531         11.7576 
        1.69353         72.2994         11.6574 
        1.69967         71.8964          11.558 
        1.70581         71.7206         11.4599 
        1.71193         71.3926         11.3633 
        1.71806         70.7642         11.2677 
        1.72421         70.6765         11.1729 
        1.73035         70.1842         11.0794 
        1.73649         69.7943         10.9869 
        1.74262         69.5727         10.8956 
        1.74876         69.2601         10.8052 
        1.75489         68.8114         10.7161 
        1.76101         68.5955          10.628 
        1.76715         68.1424         10.5408 
        1.77329         67.8979         10.4545 
        1.77943         67.5744         10.3691 
        1.78557         67.3158         10.2848 
        1.79171         66.9153         10.2014 
        1.79785         66.7103         10.1189 
        1.80399         66.2744         10.0374 
        1.81012         66.1137         9.95683 
        1.81625         65.5222         9.87722 
        1.82239         65.2799         9.79838 
        1.82853         64.8817         9.72044 
        1.83466         64.6973         9.64342 
        1.84078         64.1976         9.56733 
        1.84692         63.9905         9.49194 
        1.85306         63.7529         9.41727 
         1.8592          63.326         9.34353 
        1.86533         63.0698         9.27063 
        1.87147         62.7691         9.19842 
        1.87761         62.5247         9.12695 
        1.88375         62.3381         9.05633 
        1.88988         62.1412         8.98654 
        1.89601            61.6         8.91745 
        1.90215         61.3719         8.84903 
        1.90829         61.1655         8.78137 
        1.91442         60.8081         8.71441 
        1.92056         60.5028         8.64821 
         1.9267         60.1323         8.58264 
        1.93284         59.8578         8.51771 
        1.93897         59.6208         8.45358 
        1.94509         59.2244         8.39025 
        1.95123         59.1109         8.32742 
        1.95737         58.8562         8.26518 
        1.96349         58.5361         8.20375 
        1.96964         58.3268         8.14276 
        1.97578         57.9634         8.08237 
        1.98192         57.7602         8.02272 
        1.98805         57.5445         7.96367 
        1.99419         57.1474         7.90521 
        2.00033         56.8868         7.84731 
        2.00647         56.7045         7.79001 
         2.0126         56.3433         7.73339 
        2.01874         56.0659         7.67724 
        2.02488         55.9347          7.6216 
        2.03101         55.5681         7.56662 
        2.03714         55.3028         7.51224 
        2.04328         55.0228         7.45833 
        2.04941         54.7361         7.40499 
        2.05554         54.4209         7.35222 
        2.06167         54.3861          7.2999 
        2.06781         54.0522         7.24807 
        2.07396          53.725         7.19668 
        2.08009         53.5726         7.14588 
        2.08622         53.1939         7.09563 
        2.09237         53.0117         7.04577 
        2.09851          52.727         6.99638 
        2.10464         52.5028         6.94755 
        2.11077         52.3393         6.89925 
        2.11691         52.0002          6.8513 
        2.12305          51.677          6.8038 
        2.12918         51.4896         6.75687 
        2.13531         51.2719         6.71039 
        2.14145         51.0655         6.66423 
         2.1476         50.8578         6.61846 
        2.15372         50.5315         6.57335 
        2.15985         50.3771         6.52862 
        2.16599         50.1843         6.48418 
        2.17213          50.067          6.4402 
        2.17827         49.6752         6.39664 
         2.1844         49.3467         6.35352 
        2.19054         49.1515         6.31079 
        2.19666         48.9941         6.26851 
         2.2028         48.8021         6.22659 
        2.20893         48.5985         6.18503 
        2.21508         48.3873          6.1438 
        2.22122         48.1056         6.10294 
        2.22736          47.835         6.06254 
        2.23349         47.7037         6.02251 
        2.23962         47.3856         5.98283 
        2.24577         47.1742         5.94347 
         2.2519         46.9694         5.90452 
        2.25802         46.9043         5.86598 
        2.26417         46.5564         5.82768 
        2.27031         46.3947         5.78969 
        2.27644         46.0338         5.75215 
        2.28257         45.9418         5.71495 
        2.28872         45.6126         5.67801 
        2.29486         45.4749          5.6414 
        2.30099         45.3051          5.6052 
        2.30712          45.083         5.56929 
        2.31326          44.908         5.53364 
         2.3194         44.6606         5.49833 
        2.32553         44.4841         5.46338 
        2.33166         44.2455         5.42875 
         2.3378         44.0339         5.39438 
        2.34394         43.7177          5.3603 
        2.35007         43.5903         5.32656 
        2.35619         43.5444         5.29315 
        2.36233         43.3259         5.25995 
        2.36848         42.9802         5.22696 
        2.37462         42.9511         5.19433 
        2.38075         42.6427         5.16202 
        2.38689         42.5416         5.12995 
        2.39303         42.3356         5.09816 
        2.39916         42.1249         5.06667 
        2.40529         41.8324         5.03546 
        2.41143          41.713         5.00448 
        2.41757          41.558         4.97375 
         2.4237         41.3719         4.94334 
        2.42983         41.1836         4.91319 
        2.43598         40.9482         4.88321 
        2.44211         40.8255         4.85353 
        2.44823         40.6056         4.82416 
        2.45437         40.4751         4.79496 
        2.46052         40.2165         4.76598 
        2.46665         40.0913         4.73729 
        2.47279         39.9184         4.70884 
        2.47892          39.659         4.68061 
        2.48507         39.5208         4.65259 
         2.4912         39.3361         4.62485 
