# k  (h/Mpc)    P(k)  (Mpc/h)^3    P_linear(k)  (Mpc/h)^3
     0.00783031         15032.4           15307 
       0.013688         19052.2         18928.4 
       0.019231         19230.2         19240.6 
      0.0249154         17490.2         17904.8 
      0.0312784         15438.9         15654.7 
      0.0375637         13430.2         13475.3 
      0.0433917         11584.2         11840.8 
      0.0492413         10514.6         10633.1 
      0.0555754         9363.08         9709.61 
      0.0619321         8970.65         9003.06 
       0.067871         8108.79         8389.09 
      0.0738098         7477.55         7732.09 
      0.0800417         6675.75         6981.19 
      0.0862327         6042.32         6220.25 
      0.0921407         5501.77         5546.97 
      0.0982031         4910.43         4964.63 
       0.104506         4604.15         4500.48 
       0.110769         4261.23         4170.19 
       0.116806         4010.87         3939.69 
       0.122832         3822.36         3751.49 
       0.129052         3547.88         3560.11 
       0.135211         3358.45         3348.54 
       0.141259         3202.93         3115.91 
       0.147318         3007.13         2871.44 
       0.153489         2750.06         2632.06 
       0.159709          2597.2         2420.45 
       0.165845         2498.66         2251.36 
       0.171974         2360.83          2121.6 
       0.178125          2248.9         2021.93 
       0.184229         2154.39         1940.21 
        0.19034         2038.68         1862.59 
       0.196428         1996.98         1780.38 
       0.202534         1919.28         1689.75 
       0.208729         1830.46         1591.83 
       0.214876         1752.72         1494.66 
       0.220989         1692.27         1404.53 
       0.227147         1619.92         1325.05 
        0.23329         1556.77         1258.81 
       0.239377         1532.93          1204.7 
       0.245482         1438.44         1158.65 
       0.251667         1431.25         1116.27 
       0.257832         1375.34         1074.66 
       0.263955          1330.3          1031.9 
       0.270079         1284.97         987.431 
        0.27624         1270.56         942.081 
       0.282372         1217.34         898.237 
        0.28843         1209.44         857.896 
       0.294538          1149.6         821.338 
       0.300721         1143.61         788.751 
        0.30691         1098.74         759.936 
       0.313033         1077.62         734.083 
       0.319153         1059.08         709.654 
       0.325316         1024.67          685.53 
        0.33145         1001.76         661.502 
       0.337538         985.069         637.653 
       0.343633          962.53         614.142 
       0.349808         930.441         591.217 
       0.355968         924.366         569.731 
       0.362074         915.096         550.013 
       0.368217         886.875         531.802 
       0.374374         853.307         514.917 
       0.380519         854.597           499.1 
       0.386598         831.146         484.128 
       0.392688         828.523         469.519 
        0.39888         804.493         454.964 
       0.405048         794.066         440.757 
       0.411186         783.025         427.007 
       0.417313          766.72         413.817 
       0.423458         753.878         401.228 
       0.429607         743.946         389.313 
       0.435692         728.227         378.201 
       0.441815         722.632         367.602 
       0.447964         707.749          357.44 
       0.454126         700.294         347.647 
       0.460267         684.054         338.197 
       0.466387         676.301          329.03 
        0.47254         670.221         320.076 
       0.478662         664.918         311.452 
       0.484765         645.271          303.16 
       0.490885         641.251         295.169 
       0.497035           628.3         287.478 
       0.503198         623.964         280.107 
       0.509342         617.912         273.056 
       0.515458         614.105         266.297 
       0.521598         599.089         259.742 
       0.527764         588.228         253.371 
       0.533884         586.756         247.238 
           0.54         580.079         241.289 
       0.546137         576.258         235.503 
       0.552299         567.601         229.883 
       0.558452         564.078         224.467 
       0.564573          556.66         219.266 
       0.570708         550.184         214.231 
       0.576825         535.575         209.379 
       0.582926         537.511         204.697 
       0.589034          532.66         200.157 
       0.595184         527.801         195.724 
       0.601379         520.409          191.39 
       0.607522         513.204         187.216 
       0.613639         513.115          183.18 
       0.619772         501.623         179.254 
       0.625918         499.551         175.437 
       0.632068         492.635         171.736 
       0.638161         490.923         168.179 
         0.6443          482.36           164.7 
       0.650464         480.183         161.309 
       0.656582         476.893         158.038 
       0.662703         475.012         154.857 
       0.668861         466.934         151.745 
       0.675024         463.383         148.717 
       0.681124         460.136         145.802 
       0.687237         456.237          142.96 
       0.693381          450.35         140.182 
       0.699536         443.999         137.474 
       0.705665         442.898          134.85 
       0.711789         440.518         132.297 
       0.717957         436.631         129.794 
        0.72409         434.091          127.37 
       0.730186         428.246         125.024 
       0.736317         425.112         122.724 
       0.742472         423.274         120.475 
       0.748622         418.507         118.285 
        0.75476         413.171         116.154 
       0.760888         409.268         114.079 
       0.767043         409.877         112.048 
       0.773185         405.269          110.07 
       0.779291         400.513         108.152 
       0.785407         398.568         106.278 
       0.791564         393.879         104.436 
       0.797719         391.785         102.639 
       0.803834         388.031         100.897 
       0.809972         387.066         99.1884 
       0.816124         386.158         97.5165 
       0.822261         380.778         95.8879 
       0.828378         378.549         94.3017 
       0.834502         374.938         92.7504 
       0.840667         371.941         91.2243 
       0.846816         370.402         89.7371 
       0.852925         367.661         88.2927 
       0.859047         365.898         86.8773 
       0.865192         361.601         85.4885 
       0.871341          358.85         84.1295 
       0.877463         358.152         82.8064 
       0.883569         355.359         81.5153 
       0.889708         352.494         80.2454 
       0.895864         350.488         78.9995 
       0.902008         347.831         77.7829 
       0.908149         344.674         76.5927 
       0.914301         341.889         75.4258 
       0.920448         340.073         74.2844 
       0.926574           335.6         73.1709 
       0.932687         335.961         72.0827 
       0.938823         332.404         71.0129 
       0.944975         332.172         69.9625 
       0.951105         328.707         68.9373 
       0.957225         326.586         67.9346 
       0.963368         322.861         66.9485 
       0.969511         321.867         65.9822 
       0.975621          319.52         65.0402 
       0.981748         318.642         64.1144 
       0.987916         316.594         63.2009 
        0.99406         311.603         62.3088 
        1.00019         311.032         61.4358 
        1.00632         309.567         60.5804 
        1.01246         306.989         59.7402 
        1.01859         307.622         58.9173 
        1.02471         302.746         58.1111 
        1.03085         301.238         57.3173 
        1.03698         300.227         56.5401 
        1.04314         297.341          55.774 
        1.04929         294.963         55.0241 
        1.05541         295.768          54.291 
        1.06154         290.797         53.5696 
        1.06769         290.275         52.8603 
        1.07382         288.304         52.1662 
        1.07993         286.486         51.4862 
        1.08607         285.708         50.8157 
        1.09222         283.121         50.1564 
        1.09836         281.322         49.5097 
        1.10449          278.67         48.8752 
        1.11063         276.239         48.2512 
        1.11677         276.179         47.6383 
         1.1229          274.18         47.0372 
        1.12903         272.471         46.4461 
        1.13518         270.355         45.8646 
        1.14131         268.673         45.2935 
        1.14745          268.06         44.7325 
        1.15359         265.838          44.181 
        1.15973         264.145         43.6385 
        1.16584         262.279         43.1077 
        1.17197         262.332          42.585 
        1.17811         259.066         42.0694 
        1.18424         257.489         41.5639 
        1.19038         256.822         41.0653 
        1.19652         254.698         40.5751 
        1.20267         254.176          40.093 
        1.20881         252.113         39.6188 
        1.21495         250.376         39.1531 
        1.22108         249.012          38.695 
         1.2272         247.428         38.2454 
        1.23334         246.307         37.8019 
        1.23949         244.567         37.3644 
        1.24562         243.644         36.9351 
        1.25174           241.8         36.5132 
        1.25789         240.028         36.0967 
        1.26402         238.245         35.6874 
        1.27014         236.975         35.2855 
        1.27628         235.815         34.8886 
        1.28244         235.602         34.4971 
        1.28858         233.047         34.1121 
        1.29471         231.497         33.7339 
        1.30084         230.364         33.3618 
        1.30697             229         32.9948 
        1.31312         226.909         32.6328 
        1.31925         226.363         32.2773 
        1.32537         225.519         31.9276 
        1.33151         223.329         31.5818 
        1.33765          221.82         31.2414 
        1.34378         221.185         30.9066 
        1.34992         219.998         30.5766 
        1.35606         219.872         30.2507 
         1.3622         217.704         29.9301 
        1.36833         215.691          29.615 
        1.37445         215.017         29.3046 
        1.38059          213.21         28.9977 
        1.38675         212.513         28.6944 
        1.39288          211.26         28.3968 
        1.39901         210.696         28.1035 
        1.40515         208.739         27.8137 
         1.4113         207.739         27.5281 
        1.41742         206.236         27.2477 
        1.42355         205.224         26.9706 
         1.4297         203.612         26.6966 
        1.43585         202.801         26.4265 
        1.44198         201.835         26.1612 
        1.44809         200.836            25.9 
        1.45423         199.728         25.6415 
        1.46036         198.529          25.387 
        1.46649         197.092         25.1358 
        1.47263         195.894         24.8879 
        1.47877         194.805         24.6434 
        1.48491          193.19         24.4019 
        1.49104         192.823         24.1641 
        1.49718         191.002         23.9293 
        1.50333         190.413         23.6973 
        1.50947         189.381         23.4688 
         1.5156         187.833         23.2437 
        1.52172         187.147         23.0215 
        1.52787         185.506         22.8019 
          1.534         185.245         22.5853 
        1.54013         183.789         22.3719 
        1.54627         182.792         22.1607 
        1.55241         181.647         21.9523 
        1.55855         180.574         21.7469 
        1.56467         179.361         21.5447 
         1.5708         178.793         21.3445 
        1.57695         177.774         21.1465 
        1.58308         176.818         20.9515 
        1.58922         175.599         20.7588 
        1.59535         174.223         20.5687 
         1.6015         173.856         20.3806 
        1.60764         172.654          20.195 
        1.61376         171.648         20.0122 
        1.61989         170.831         19.8316 
        1.62604         169.645         19.6528 
        1.63218         169.013         19.4763 
        1.63831         167.783         19.3024 
        1.64444         167.092         19.1305 
        1.65059         165.973         18.9604 
        1.65673         164.791         18.7925 
        1.66285         164.146         18.6271 
        1.66898         162.999         18.4637 
        1.67512         162.801         18.3019 
        1.68127          161.12         18.1419 
         1.6874         160.241         17.9842 
        1.69353         159.598         17.8284 
        1.69967         158.402         17.6742 
        1.70581         157.757         17.5218 
        1.71193         156.678         17.3718 
        1.71806         156.152         17.2233 
        1.72421         155.106         17.0762 
        1.73035         154.687          16.931 
        1.73649         153.686         16.7875 
        1.74262         152.588         16.6458 
        1.74876         151.869         16.5056 
        1.75489         150.929         16.3674 
        1.76101         149.814         16.2308 
        1.76715         149.548         16.0955 
        1.77329         148.781         15.9617 
        1.77943         147.778         15.8293 
        1.78557         147.093         15.6986 
        1.79171         146.294         15.5694 
        1.79785         145.279         15.4416 
        1.80399         144.469         15.3152 
        1.81012         143.696         15.1905 
        1.81625         143.181         15.0672 
        1.82239         142.328         14.9451 
        1.82853         141.656         14.8244 
        1.83466         140.666         14.7051 
        1.84078         140.137         14.5873 
        1.84692         138.774         14.4706 
        1.85306          138.72          14.355 
         1.8592         137.693         14.2409 
        1.86533         136.861         14.1281 
        1.87147          135.89         14.0163 
        1.87761         135.314         13.9058 
        1.88375         134.349         13.7965 
        1.88988         133.717         13.6886 
        1.89601         133.165         13.5818 
        1.90215         132.321          13.476 
        1.90829         131.701         13.3714 
        1.91442         131.021         13.2679 
        1.92056         130.239         13.1656 
         1.9267         129.746         13.0642 
        1.93284         128.838         12.9639 
        1.93897         128.142         12.8648 
        1.94509         127.585          12.767 
        1.95123         126.993         12.6699 
        1.95737         126.365         12.5738 
        1.96349         125.606         12.4789 
        1.96964         124.578         12.3848 
        1.97578         123.897         12.2915 
        1.98192         123.612         12.1995 
        1.98805         122.687         12.1083 
        1.99419         122.185         12.0181 
        2.00033         121.391         11.9288 
        2.00647         120.993         11.8404 
         2.0126          119.93          11.753 
        2.01874         119.434         11.6664 
        2.02488         119.089         11.5806 
        2.03101          118.03         11.4958 
        2.03714         117.573          11.412 
        2.04328         116.925         11.3288 
        2.04941           116.3         11.2466 
        2.05554          115.56         11.1653 
        2.06167         115.248         11.0847 
        2.06781         114.469         11.0048 
        2.07396         113.808         10.9256 
        2.08009         113.312         10.8474 
        2.08622         112.608           10.77 
        2.09237         111.978         10.6931 
        2.09851          111.46         10.6171 
        2.10464         111.003         10.5419 
        2.11077         110.407         10.4675 
        2.11691         109.896         10.3937 
        2.12305         108.991         10.3206 
        2.12918         108.421         10.2483 
        2.13531         107.971         10.1768 
        2.14145         107.208         10.1058 
         2.1476         106.528         10.0353 
        2.15372         106.258         9.96592 
        2.15985         105.814          9.8971 
        2.16599         105.016         9.82874 
        2.17213         104.498         9.76109 
        2.17827         104.076          9.6941 
         2.1844         103.234          9.6278 
        2.19054         102.953          9.5621 
        2.19666         102.481         9.49711 
         2.2028         101.755         9.43266 
        2.20893          101.39         9.36878 
        2.21508         100.761         9.30542 
        2.22122         100.213         9.24263 
        2.22736         99.7699         9.18055 
        2.23349         99.2882         9.11905 
        2.23962         98.6869         9.05809 
        2.24577         98.2438         8.99763 
         2.2519         97.9128          8.9378 
        2.25802         96.9838         8.87862 
        2.26417         96.6791         8.81981 
        2.27031         96.1506         8.76148 
        2.27644         95.6237         8.70384 
        2.28257         95.0238         8.64673 
        2.28872         94.7862         8.59002 
        2.29486         94.0695         8.53384 
        2.30099         93.6593         8.47827 
        2.30712         93.2615         8.42317 
        2.31326         92.6557         8.36847 
         2.3194         92.1343         8.31429 
        2.32553         91.8057         8.26068 
        2.33166         91.2929         8.20757 
         2.3378         90.7773         8.15485 
        2.34394         90.3597         8.10258 
        2.35007         89.8813         8.05084 
        2.35619         89.5226         7.99962 
        2.36233         88.9235         7.94872 
        2.36848          88.397         7.89816 
        2.37462         88.0286         7.84815 
        2.38075         87.5681         7.79862 
        2.38689          87.131         7.74947 
        2.39303         86.4757         7.70076 
        2.39916         86.2692         7.65252 
        2.40529          85.899          7.6047 
        2.41143         85.2438         7.55725 
        2.41757         84.9858         7.51018 
         2.4237         84.5431          7.4636 
        2.42983         83.9942         7.41743 
        2.43598         83.5371         7.37152 
        2.44211         83.4196         7.32607 
        2.44823         82.8364         7.28111 
        2.45437         82.1523         7.23641 
        2.46052         81.8145         7.19204 
        2.46665         81.5823         7.14813 
        2.47279         81.0284         7.10459 
        2.47892         80.7233         7.06139 
        2.48507         80.2657         7.01852 
         2.4912         79.9555         6.97607 
