# k  (h/Mpc)    P(k)  (Mpc/h)^3    P_linear(k)  (Mpc/h)^3
     0.00783031          6473.6         6564.49 
       0.013688         8290.93         8261.65 
       0.019231         8549.87         8548.09 
      0.0249154         7979.55         8096.45 
      0.0312784         7162.51          7213.3 
      0.0375637         6312.46         6313.41 
      0.0433917         5549.43         5617.98 
      0.0492413         5063.75         5090.99 
      0.0555754         4579.77         4676.28 
      0.0619321         4355.09         4349.08 
       0.067871         3985.46          4059.9 
      0.0738098         3678.63         3750.47 
      0.0800417          3308.1         3399.24 
      0.0862327         2992.76          3045.6 
      0.0921407         2715.98         2733.74 
      0.0982031         2436.88          2463.9 
       0.104506         2272.85         2247.59 
       0.110769         2110.63         2091.35 
       0.116806         1981.65         1979.28 
       0.122832         1896.99         1884.77 
       0.129052         1771.39         1787.06 
       0.135211         1670.75         1679.68 
       0.141259         1579.91         1563.43 
       0.147318         1475.23         1443.24 
       0.153489         1350.89         1327.19 
       0.159709         1267.91          1225.7 
       0.165845         1210.35         1145.05 
       0.171974          1138.4         1082.97 
       0.178125         1088.15         1034.42 
       0.184229         1048.63         993.281 
        0.19034         983.832          952.99 
       0.196428         962.155         909.786 
       0.202534         926.853         862.418 
       0.208729         875.874         811.978 
       0.214876         825.488         762.811 
       0.220989         797.132         718.003 
       0.227147         752.487         679.106 
        0.23329         722.628         646.993 
       0.239377         706.564          620.73 
       0.245482         662.455         598.002 
       0.251667         655.519         576.489 
       0.257832         632.577         554.804 
       0.263955         610.268         532.228 
       0.270079         587.937         508.753 
        0.27624          578.16         485.057 
       0.282372         553.321         462.503 
        0.28843         537.018         442.098 
       0.294538         512.473         423.889 
       0.300721         508.503         407.799 
        0.30691         485.429         393.556 
       0.313033          475.16         380.601 
       0.319153          458.99         368.114 
       0.325316         446.553         355.541 
        0.33145         432.948         342.883 
       0.337538         427.023         330.295 
       0.343633          412.81         317.968 
       0.349808         399.698         306.082 
       0.355968         394.539         295.095 
       0.362074         385.317         285.125 
       0.368217         375.101         275.973 
       0.374374          361.75         267.478 
       0.380519         356.839         259.444 
       0.386598         348.195         251.745 
       0.392688         344.708          244.14 
        0.39888         335.241         236.501 
       0.405048          328.06         229.037 
       0.411186         321.152         221.836 
       0.417313         315.202         214.977 
       0.423458         309.158         208.492 
       0.429607         302.251         202.395 
       0.435692         294.141         196.728 
       0.441815         292.103         191.323 
       0.447964         286.758         186.111 
       0.454126         275.728         181.048 
       0.460267         272.702         176.133 
       0.466387         269.418         171.343 
        0.47254         263.682         166.653 
       0.478662         261.995         162.144 
       0.484765         254.577         157.831 
       0.490885         251.086         153.692 
       0.497035         247.515         149.721 
       0.503198         241.435         145.923 
       0.509342         238.828         142.291 
       0.515458         235.742         138.801 
       0.521598          232.22           135.4 
       0.527764         228.461         132.081 
       0.533884         225.302         128.882 
           0.54         222.059         125.778 
       0.546137         220.773         122.759 
       0.552299         216.644         119.829 
       0.558452         213.516         117.011 
       0.564573         209.936         114.314 
       0.570708         206.545         111.706 
       0.576825         203.955         109.192 
       0.582926         201.141         106.761 
       0.589034         198.309         104.398 
       0.595184         196.373         102.088 
       0.601379         194.493         99.8286 
       0.607522          190.23         97.6532 
       0.613639         189.594         95.5499 
       0.619772         185.342         93.5035 
       0.625918         183.728         91.5147 
       0.632068         181.638         89.5862 
       0.638161         180.353         87.7346 
         0.6443         177.604          85.925 
       0.650464         175.819         84.1614 
       0.656582         174.101         82.4599 
       0.662703         171.582         80.8035 
       0.668861         169.369         79.1812 
       0.675024         167.466          77.601 
       0.681124         166.462         76.0795 
       0.687237         163.578          74.596 
       0.693381          161.51         73.1463 
       0.699536         160.272          71.734 
       0.705665         160.435         70.3664 
       0.711789         156.678         69.0365 
       0.717957         156.096         67.7323 
        0.72409         153.967         66.4693 
       0.730186         151.559         65.2458 
       0.736317         150.957         64.0462 
       0.742472         149.842         62.8721 
       0.748622         148.598         61.7285 
        0.75476         147.195         60.6158 
       0.760888         145.173         59.5323 
       0.767043         144.193         58.4713 
       0.773185         142.716         57.4387 
       0.779291          140.93         56.4373 
       0.785407         140.088         55.4587 
       0.791564         138.666         54.4973 
       0.797719         136.864         53.5594 
       0.803834         136.282         52.6498 
       0.809972         134.404         51.7581 
       0.816124         134.159         50.8851 
       0.822261         132.637         50.0348 
       0.828378         131.402         49.2065 
       0.834502         130.841         48.3963 
       0.840667         129.153         47.5992 
       0.846816         128.028         46.8225 
       0.852925         126.935          46.068 
       0.859047         125.521         45.3287 
       0.865192          125.02         44.6033 
       0.871341         123.762         43.8935 
       0.877463         122.573         43.2023 
       0.883569         121.684          42.528 
       0.889708         120.923         41.8646 
       0.895864         119.827         41.2138 
       0.902008         118.972         40.5783 
       0.908149         118.266         39.9566 
       0.914301          116.96          39.347 
       0.920448         116.265         38.7507 
       0.926574         115.512          38.169 
       0.932687         114.918         37.6005 
       0.938823         113.298         37.0415 
       0.944975         112.596         36.4927 
       0.951105         111.843         35.9571 
       0.957225         110.463         35.4331 
       0.963368          110.01         34.9179 
       0.969511         109.518         34.4129 
       0.975621         109.014         33.9206 
       0.981748         108.043         33.4368 
       0.987916         107.023         32.9594 
        0.99406         106.486         32.4931 
        1.00019         105.458         32.0368 
        1.00632         104.984         31.5897 
        1.01246         104.051         31.1505 
        1.01859         102.756         30.7204 
        1.02471         103.136          30.299 
        1.03085         101.995         29.8841 
        1.03698         101.154         29.4778 
        1.04314          100.25         29.0774 
        1.04929         99.7732         28.6854 
        1.05541         99.0501         28.3023 
        1.06154         98.5526         27.9252 
        1.06769         98.0196         27.5544 
        1.07382         97.6005         27.1917 
        1.07993         96.9465         26.8363 
        1.08607         96.0857         26.4858 
        1.09222          95.584         26.1413 
        1.09836         94.8729         25.8033 
        1.10449         94.3029         25.4717 
        1.11063         93.7011         25.1456 
        1.11677         93.1659         24.8253 
         1.1229         92.3685         24.5112 
        1.12903         91.4388         24.2023 
        1.13518         91.6945         23.8984 
        1.14131         90.9727            23.6 
        1.14745         89.9539         23.3068 
        1.15359         89.6492         23.0186 
        1.15973         89.1987         22.7352 
        1.16584         88.5297         22.4578 
        1.17197         87.9956         22.1846 
        1.17811         87.5077         21.9152 
        1.18424         86.7546          21.651 
        1.19038         86.3328         21.3905 
        1.19652         85.9808         21.1343 
        1.20267         85.2849         20.8823 
        1.20881         84.8354         20.6345 
        1.21495          84.187         20.3912 
        1.22108         83.7132         20.1517 
         1.2272         83.1394         19.9167 
        1.23334         82.7702         19.6849 
        1.23949         82.2979         19.4563 
        1.24562         81.9924         19.2319 
        1.25174         81.4573         19.0114 
        1.25789         81.0056         18.7937 
        1.26402         80.5471         18.5798 
        1.27014         79.7433         18.3698 
        1.27628         79.6424         18.1624 
        1.28244         78.8892         17.9578 
        1.28858         78.5727         17.7566 
        1.29471         78.2672          17.559 
        1.30084         77.7094         17.3646 
        1.30697         77.1847         17.1728 
        1.31312         76.7997         16.9837 
        1.31925         76.5953          16.798 
        1.32537         76.1337         16.6153 
        1.33151         75.4483         16.4346 
        1.33765         75.1249         16.2567 
        1.34378          74.651         16.0819 
        1.34992           74.29         15.9095 
        1.35606         73.8914         15.7392 
         1.3622         73.2734         15.5718 
        1.36833         73.1428         15.4072 
        1.37445         72.6878          15.245 
        1.38059         72.1654         15.0847 
        1.38675         71.8231         14.9263 
        1.39288         71.3392         14.7709 
        1.39901         71.2272         14.6177 
        1.40515         70.8209         14.4663 
         1.4113         70.3448         14.3172 
        1.41742         70.0718         14.1707 
        1.42355         69.5656          14.026 
         1.4297         69.2214         13.8829 
        1.43585         68.8012         13.7418 
        1.44198         68.5598         13.6032 
        1.44809         68.1258         13.4668 
        1.45423         67.8849         13.3318 
        1.46036         67.5047         13.1989 
        1.46649         67.0922         13.0677 
        1.47263          66.748         12.9383 
        1.47877         66.5515         12.8106 
        1.48491         66.1858         12.6845 
        1.49104         65.7125         12.5603 
        1.49718         65.3003         12.4377 
        1.50333         65.0594         12.3165 
        1.50947          64.644         12.1972 
         1.5156         64.3928         12.0797 
        1.52172         64.0979         11.9637 
        1.52787         63.8874          11.849 
          1.534         63.5259         11.7359 
        1.54013         63.1289         11.6245 
        1.54627         62.8923         11.5142 
        1.55241         62.4734         11.4054 
        1.55855         62.0558         11.2982 
        1.56467         61.6449         11.1926 
         1.5708         61.6097         11.0881 
        1.57695         61.2924         10.9848 
        1.58308         60.9635          10.883 
        1.58922         60.8068         10.7824 
        1.59535          60.496         10.6832 
         1.6015         59.9835          10.585 
        1.60764         59.8819         10.4882 
        1.61376         59.4986         10.3928 
        1.61989         59.0641         10.2985 
        1.62604         58.9451         10.2052 
        1.63218         58.7329         10.1131 
        1.63831         58.3706         10.0224 
        1.64444         58.1258         9.93268 
        1.65059         57.6178          9.8439 
        1.65673         57.4673         9.75629 
        1.66285         57.2106         9.66999 
        1.66898         56.8821         9.58472 
        1.67512          56.558          9.5003 
        1.68127         56.2358         9.41683 
         1.6874         56.1139         9.33454 
        1.69353         55.7461         9.25329 
        1.69967         55.5217         9.17281 
        1.70581         55.4091         9.09332 
        1.71193         55.0516         9.01508 
        1.71806         54.6204         8.93759 
        1.72421         54.4961         8.86085 
        1.73035         54.1444         8.78511 
        1.73649         53.8035         8.71026 
        1.74262         53.7017         8.63635 
        1.74876         53.5317         8.56325 
        1.75489         53.1279         8.49114 
        1.76101           52.97         8.41988 
        1.76715         52.6247         8.34935 
        1.77329         52.3825         8.27953 
        1.77943         52.2182         8.21048 
        1.78557         52.0148         8.14233 
        1.79171         51.6486         8.07493 
        1.79785         51.4342         8.00828 
        1.80399         51.1789          7.9424 
        1.81012          51.055         7.87735 
        1.81625          50.557         7.81306 
        1.82239         50.4322         7.74939 
        1.82853         50.0554         7.68645 
        1.83466         49.9886         7.62428 
        1.84078         49.5614         7.56286 
        1.84692         49.4102         7.50202 
        1.85306         49.1921         7.44177 
         1.8592         48.9403         7.38228 
        1.86533         48.7017         7.32347 
        1.87147         48.5216         7.26523 
        1.87761          48.352          7.2076 
        1.88375         48.1119         7.15066 
        1.88988         48.0477          7.0944 
        1.89601         47.6288         7.03871 
        1.90215         47.4462         6.98357 
        1.90829         47.3099         6.92905 
        1.91442         47.0417         6.87511 
        1.92056         46.8325         6.82179 
         1.9267         46.4803         6.76898 
        1.93284         46.2709          6.7167 
        1.93897         46.1599         6.66507 
        1.94509         45.8725          6.6141 
        1.95123          45.735         6.56352 
        1.95737         45.5053         6.51344 
        1.96349         45.2595         6.46401 
        1.96964         45.0535         6.41495 
        1.97578         44.8708         6.36638 
        1.98192          44.655         6.31841 
        1.98805         44.4884         6.27093 
        1.99419         44.1554         6.22393 
        2.00033         43.9908         6.17739 
        2.00647         43.8415         6.13133 
         2.0126         43.6169         6.08583 
        2.01874         43.4317         6.04072 
        2.02488         43.2956         5.99602 
        2.03101         42.9922         5.95186 
        2.03714         42.8012         5.90818 
        2.04328          42.575         5.86489 
        2.04941         42.3751         5.82208 
        2.05554         42.1493         5.77972 
        2.06167         42.0699         5.73772 
        2.06781         41.8337         5.69613 
        2.07396         41.6009          5.6549 
        2.08009          41.462         5.61415 
        2.08622         41.2225         5.57384 
        2.09237         41.0371         5.53385 
        2.09851         40.7978         5.49425 
        2.10464          40.687         5.45509 
        2.11077         40.5026         5.41637 
        2.11691         40.3161         5.37794 
        2.12305         40.0673         5.33987 
        2.12918         39.9782         5.30227 
        2.13531         39.7635         5.26503 
        2.14145         39.6315         5.22805 
         2.1476          39.381         5.19139 
        2.15372         39.1771         5.15526 
        2.15985         39.0868         5.11944 
        2.16599         38.9641         5.08386 
        2.17213         38.8705         5.04865 
        2.17827          38.484         5.01379 
         2.1844         38.3285         4.97928 
        2.19054         38.1533         4.94509 
        2.19666         38.0104         4.91126 
         2.2028         37.8723         4.87772 
        2.20893         37.7255         4.84448 
        2.21508         37.5299         4.81151 
        2.22122         37.3229         4.77884 
        2.22736          37.163         4.74654 
        2.23349         37.0362         4.71454 
        2.23962         36.8182         4.68282 
        2.24577         36.6217         4.65136 
         2.2519         36.4681         4.62024 
        2.25802         36.3987         4.58945 
        2.26417         36.1841         4.55886 
        2.27031         36.0672         4.52851 
        2.27644         35.8208         4.49853 
        2.28257          35.707         4.46883 
        2.28872          35.523         4.43933 
        2.29486         35.4041         4.41011 
        2.30099         35.2869         4.38121 
        2.30712         35.0903         4.35255 
        2.31326         34.9659          4.3241 
         2.3194         34.8042         4.29592 
        2.32553         34.6147         4.26804 
        2.33166         34.4446         4.24042 
         2.3378         34.3439         4.21301 
        2.34394         34.1143         4.18583 
        2.35007         33.9808         4.15892 
        2.35619         33.9404         4.13229 
        2.36233         33.7654         4.10582 
        2.36848         33.5307         4.07953 
        2.37462         33.4645         4.05353 
        2.38075          33.252         4.02778 
        2.38689         33.1625         4.00223 
        2.39303         33.0037         3.97691 
        2.39916         32.8135         3.95183 
        2.40529         32.6226         3.92697 
        2.41143         32.5482          3.9023 
        2.41757         32.4024         3.87784 
         2.4237         32.2652         3.85363 
        2.42983          32.152         3.82963 
        2.43598         31.9658         3.80577 
        2.44211         31.8636         3.78215 
        2.44823         31.6893         3.75878 
        2.45437         31.6078         3.73555 
        2.46052         31.4279          3.7125 
        2.46665         31.3087         3.68967 
        2.47279         31.1897         3.66705 
        2.47892         30.9927         3.64461 
        2.48507         30.8728         3.62232 
         2.4912         30.7581         3.60027 
