# k  (h/Mpc)    Pcb(k)  (Mpc/h)^3    Pcb_linear(k)  (Mpc/h)^3
     0.00783031         17686.8         17954.5 
       0.013688         22740.2         22518.3 
       0.019231         23008.4           22983 
      0.0249154         20791.8         21307.8 
      0.0312784         18157.7         18424.1 
      0.0375637         15597.3           15637 
      0.0433917         13282.7         13584.1 
      0.0492413         11991.2         12121.2 
      0.0555754         10654.7         11070.7 
      0.0619321         10280.5         10323.7 
       0.067871         9329.67         9685.02 
      0.0738098         8639.91         8969.36 
      0.0800417         7711.73         8101.84 
      0.0862327         6955.49         7182.81 
      0.0921407         6305.52         6349.87 
      0.0982031         5586.07         5625.81 
       0.104506         5215.16         5058.86 
       0.110769         4819.49         4676.14 
       0.116806         4555.52         4433.26 
       0.122832         4356.17         4253.49 
       0.129052         4060.44         4072.24 
       0.135211         3855.92          3855.2 
       0.141259         3688.17         3594.64 
       0.147318         3462.13         3302.73 
       0.153489         3156.41         3005.73 
       0.159709          2971.9         2739.56 
       0.165845         2858.34         2529.85 
       0.171974            2702         2376.87 
       0.178125         2574.87         2269.96 
       0.184229         2465.11         2191.52 
        0.19034         2347.83         2120.08 
       0.196428         2300.07         2039.75 
       0.202534         2208.99         1942.25 
       0.208729         2109.49         1827.86 
       0.214876         2025.49         1708.02 
       0.220989         1951.58         1594.05 
       0.227147         1870.99         1493.99 
        0.23329          1797.6         1413.59 
       0.239377         1772.27         1352.51 
       0.245482         1666.79         1305.17 
       0.251667         1659.18         1264.47 
       0.257832         1593.93         1224.33 
       0.263955         1541.64         1180.32 
       0.270079          1489.8         1130.63 
        0.27624         1471.38         1076.55 
       0.282372         1410.88         1022.11 
        0.28843         1405.77         971.408 
       0.294538         1337.51          926.25 
       0.300721         1327.91         887.731 
        0.30691         1279.59         855.922 
       0.313033          1253.6         829.104 
       0.319153         1235.93         804.604 
       0.325316         1195.14         779.971 
        0.33145          1169.6         754.244 
       0.337538         1147.12         727.131 
       0.343633         1124.92         699.164 
       0.349808         1087.97         671.136 
       0.355968         1079.37         644.761 
       0.362074         1070.05          621.08 
       0.368217         1035.51          599.97 
       0.374374         999.278         581.338 
       0.380519         1001.69         564.486 
       0.386598         972.337         548.763 
       0.392688         968.163         533.252 
        0.39888         940.859          517.24 
       0.405048         930.705         501.058 
       0.411186         917.604         484.909 
       0.417313         898.201         469.132 
       0.423458         882.108         454.113 
       0.429607         872.098         440.125 
       0.435692          854.44         427.364 
       0.441815         846.815         415.566 
       0.447964         829.513         404.488 
       0.454126          823.76         393.852 
       0.460267         802.691         383.508 
       0.466387         792.272         373.325 
        0.47254          790.21         363.128 
       0.478662         779.896          353.12 
       0.484765         758.189         343.429 
       0.490885         753.476         334.111 
       0.497035         737.696         325.203 
       0.503198         733.465         316.776 
       0.509342         725.171         308.858 
       0.515458         721.518         301.361 
       0.521598         703.597         294.105 
       0.527764         691.534         287.001 
       0.533884         688.974         280.107 
           0.54         682.734         273.367 
       0.546137         675.305          266.75 
       0.552299         667.193         260.275 
       0.558452         661.412         254.023 
       0.564573         653.163         248.053 
       0.570708         645.959         242.332 
       0.576825         629.145         236.866 
       0.582926         631.988         231.611 
       0.589034         625.034         226.512 
       0.595184         619.399         221.521 
       0.601379         610.484         216.629 
       0.607522         601.647         211.907 
       0.613639          601.68         207.326 
       0.619772         589.898         202.854 
       0.625918         585.613         198.499 
       0.632068         578.132         194.272 
       0.638161         575.504          190.22 
         0.6443         565.982         186.274 
       0.650464          564.06         182.446 
       0.656582         558.435         178.763 
       0.662703         556.662         175.182 
       0.668861           547.3         171.674 
       0.675024         542.624         168.247 
       0.681124         538.863         164.938 
       0.687237         534.708         161.706 
       0.693381         527.438         158.543 
       0.699536         518.626         155.463 
       0.705665         518.453         152.484 
       0.711789         515.544         149.593 
       0.717957         510.623         146.763 
        0.72409         508.021         144.025 
       0.730186         500.113         141.375 
       0.736317         497.539         138.776 
       0.742472         494.094         136.231 
       0.748622         488.771         133.749 
        0.75476          481.35         131.333 
       0.760888         477.408         128.979 
       0.767043         476.974         126.674 
       0.773185         472.526          124.43 
       0.779291         467.356         122.254 
       0.785407         463.727         120.129 
       0.791564         458.811         118.043 
       0.797719         457.042         116.008 
       0.803834           451.3         114.036 
       0.809972         450.152         112.103 
       0.816124         448.477         110.212 
       0.822261         442.056         108.369 
       0.828378         439.721         106.574 
       0.834502         434.641         104.818 
       0.840667         431.447          103.09 
       0.846816         429.354         101.406 
       0.852925         426.264         99.7708 
       0.859047           424.4         98.1681 
       0.865192         418.634         96.5955 
       0.871341          415.13         95.0565 
       0.877463         415.015         93.5584 
       0.883569         410.437         92.0967 
       0.889708         407.952          90.659 
       0.895864         406.712         89.2486 
       0.902008         402.757         87.8715 
       0.908149         397.187         86.5245 
       0.914301          395.49         85.2037 
       0.920448         393.627          83.912 
       0.926574          387.27         82.6518 
       0.932687         386.704         81.4202 
       0.938823           382.9         80.2095 
       0.944975         382.949         79.0208 
       0.951105         378.444         77.8606 
       0.957225         375.922         76.7258 
       0.963368         371.401         75.6099 
       0.969511         370.503         74.5162 
       0.975621         368.356         73.4503 
       0.981748         365.552         72.4025 
       0.987916          363.55         71.3687 
        0.99406          358.07         70.3591 
        1.00019         356.315         69.3711 
        1.00632         354.882         68.4031 
        1.01246         351.806         67.4523 
        1.01859         351.618         66.5211 
        1.02471         346.584         65.6088 
        1.03085         345.197         64.7105 
        1.03698         343.455         63.8311 
        1.04314         340.547         62.9644 
        1.04929         336.967         62.1158 
        1.05541          337.87         61.2865 
        1.06154         332.064         60.4703 
        1.06769         330.883         59.6679 
        1.07382         328.201         58.8827 
        1.07993         326.607         58.1136 
        1.08607         325.524         57.3551 
        1.09222         321.618         56.6094 
        1.09836         319.568         55.8779 
        1.10449         317.251         55.1603 
        1.11063         313.408         54.4546 
        1.11677         314.116         53.7616 
         1.1229         311.298         53.0819 
        1.12903         309.343         52.4134 
        1.13518         306.051         51.7559 
        1.14131         304.722         51.1102 
        1.14745         302.718         50.4758 
        1.15359         300.868         49.8522 
        1.15973         298.891         49.2389 
        1.16584         296.466         48.6386 
        1.17197         296.058         48.0476 
        1.17811         292.582         47.4647 
        1.18424         290.284         46.8931 
        1.19038         289.336         46.3294 
        1.19652          287.08         45.7752 
        1.20267         285.964           45.23 
        1.20881         283.725         44.6939 
        1.21495         281.576         44.1674 
        1.22108         279.863         43.6495 
         1.2272         278.184         43.1411 
        1.23334         276.693         42.6397 
        1.23949         273.789          42.145 
        1.24562         272.925         41.6597 
        1.25174         271.326         41.1827 
        1.25789         268.732         40.7117 
        1.26402         266.823          40.249 
        1.27014         265.184         39.7947 
        1.27628         263.328          39.346 
        1.28244         263.198         38.9034 
        1.28858         260.484         38.4683 
        1.29471         259.256         38.0408 
        1.30084         256.882         37.6202 
        1.30697         255.906         37.2053 
        1.31312         253.082         36.7962 
        1.31925         251.791         36.3945 
        1.32537         251.086         35.9993 
        1.33151         248.679         35.6085 
        1.33765         246.608         35.2238 
        1.34378          245.93         34.8455 
        1.34992         244.439         34.4726 
        1.35606         243.295         34.1043 
         1.3622         240.939         33.7421 
        1.36833         239.518         33.3861 
        1.37445         237.974         33.0353 
        1.38059         236.084         32.6886 
        1.38675         235.006          32.346 
        1.39288         233.677         32.0098 
        1.39901         232.295         31.6784 
        1.40515         230.881         31.3511 
         1.4113         229.396         31.0284 
        1.41742         227.512         30.7116 
        1.42355         226.557         30.3986 
         1.4297         224.664         30.0891 
        1.43585         223.441         29.7839 
        1.44198         222.619         29.4842 
        1.44809         220.547         29.1892 
        1.45423          219.41         28.8971 
        1.46036         218.069         28.6096 
        1.46649         216.647         28.3259 
        1.47263         215.525         28.0458 
        1.47877         213.788         27.7697 
        1.48491         211.757         27.4968 
        1.49104         211.145         27.2282 
        1.49718         209.491          26.963 
        1.50333         208.771         26.7009 
        1.50947         207.265         26.4428 
         1.5156         205.439         26.1886 
        1.52172         204.668         25.9377 
        1.52787         202.907         25.6896 
          1.534         202.381          25.445 
        1.54013         200.486         25.2039 
        1.54627         199.542         24.9655 
        1.55241         198.361         24.7301 
        1.55855         196.471         24.4982 
        1.56467         195.972         24.2698 
         1.5708         194.846         24.0437 
        1.57695         193.584         23.8202 
        1.58308         192.272            23.6 
        1.58922         190.543         23.3825 
        1.59535         189.301         23.1678 
         1.6015         188.399         22.9555 
        1.60764         187.407         22.7459 
        1.61376         186.399         22.5396 
        1.61989         185.337         22.3357 
        1.62604         183.877         22.1338 
        1.63218         182.981         21.9346 
        1.63831         181.465         21.7383 
        1.64444          180.65         21.5443 
        1.65059         179.765         21.3522 
        1.65673         178.462         21.1627 
        1.66285         177.056          20.976 
        1.66898         176.285         20.7915 
        1.67512         175.464         20.6088 
        1.68127          173.61         20.4282 
         1.6874         173.055         20.2502 
        1.69353         171.837         20.0744 
        1.69967         170.555         19.9003 
        1.70581         169.783         19.7283 
        1.71193         168.412          19.559 
        1.71806         167.836         19.3913 
        1.72421         166.579         19.2253 
        1.73035         165.836         19.0614 
        1.73649         164.777         18.8995 
        1.74262         163.733         18.7395 
        1.74876         162.417         18.5814 
        1.75489         161.825         18.4253 
        1.76101         160.284         18.2712 
        1.76715         159.861         18.1185 
        1.77329         158.679         17.9675 
        1.77943         158.008         17.8181 
        1.78557         156.861         17.6706 
        1.79171          156.17         17.5247 
        1.79785         154.855         17.3805 
        1.80399         154.114          17.238 
        1.81012         153.168         17.0972 
        1.81625         152.537         16.9581 
        1.82239         151.196         16.8203 
        1.82853         150.659         16.6841 
        1.83466         149.643         16.5496 
        1.84078          148.84         16.4166 
        1.84692          147.62          16.285 
        1.85306         147.093         16.1546 
         1.8592         146.117         16.0258 
        1.86533         145.539         15.8986 
        1.87147         144.379         15.7725 
        1.87761         143.426         15.6478 
        1.88375         142.586         15.5246 
        1.88988         141.239         15.4028 
        1.89601         141.098         15.2823 
        1.90215         140.105          15.163 
        1.90829         139.087          15.045 
        1.91442         138.585         14.9282 
        1.92056          137.58         14.8128 
         1.9267         136.651         14.6985 
        1.93284         135.758         14.5854 
        1.93897         135.353         14.4736 
        1.94509         134.521         14.3633 
        1.95123         133.748         14.2538 
        1.95737         132.816         14.1454 
        1.96349         132.137         14.0384 
        1.96964         131.196         13.9322 
        1.97578         130.413          13.827 
        1.98192         129.708         13.7232 
        1.98805         129.068         13.6204 
        1.99419         128.134         13.5187 
        2.00033         127.499         13.4179 
        2.00647         126.745         13.3182 
         2.0126         125.828         13.2197 
        2.01874         125.319          13.122 
        2.02488         124.888         13.0253 
        2.03101         123.616         12.9297 
        2.03714         123.198         12.8351 
        2.04328         122.205         12.7414 
        2.04941         121.827         12.6487 
        2.05554         120.794          12.557 
        2.06167          120.36          12.466 
        2.06781         119.391          12.376 
        2.07396         118.963         12.2867 
        2.08009          118.15         12.1985 
        2.08622         117.267         12.1112 
        2.09237         116.853         12.0246 
        2.09851         116.143         11.9388 
        2.10464         115.721         11.8541 
        2.11077         114.986         11.7702 
        2.11691         114.299          11.687 
        2.12305         113.702         11.6045 
        2.12918         112.887         11.5231 
        2.13531         112.292         11.4425 
        2.14145         111.579         11.3624 
         2.1476         110.709          11.283 
        2.15372         110.602         11.2048 
        2.15985         109.813         11.1272 
        2.16599         109.075         11.0501 
        2.17213          108.57         10.9739 
        2.17827          107.86         10.8984 
         2.1844          107.19         10.8236 
        2.19054         106.756         10.7496 
        2.19666         105.964         10.6763 
         2.2028         105.372         10.6037 
        2.20893         105.006         10.5317 
        2.21508         104.221         10.4603 
        2.22122         103.688         10.3895 
        2.22736         103.153         10.3195 
        2.23349         102.631         10.2502 
        2.23962         102.057         10.1815 
        2.24577         101.352         10.1134 
         2.2519         100.925          10.046 
        2.25802         100.105         9.97927 
        2.26417         99.8594         9.91299 
        2.27031         99.1114         9.84726 
        2.27644         98.6654         9.78231 
        2.28257         98.0158         9.71795 
        2.28872         97.5357         9.65405 
        2.29486         96.8941         9.59075 
        2.30099         96.3584         9.52813 
        2.30712         95.8587         9.46605 
        2.31326         95.3026         9.40442 
         2.3194         94.7743         9.34337 
        2.32553         94.1703         9.28297 
        2.33166         93.7015         9.22312 
         2.3378         93.4171         9.16372 
        2.34394         92.7399         9.10483 
        2.35007         92.1799         9.04654 
        2.35619          91.747         8.98883 
        2.36233         91.3172         8.93148 
        2.36848         90.7295         8.87452 
        2.37462         90.3324         8.81818 
        2.38075          89.678         8.76237 
        2.38689         89.2297         8.70701 
        2.39303          88.704         8.65213 
        2.39916         88.2953         8.59778 
        2.40529         88.0785         8.54391 
        2.41143         87.4554         8.49045 
        2.41757         86.8552         8.43743 
         2.4237         86.3672         8.38496 
        2.42983         85.8869         8.33295 
        2.43598         85.3782         8.28123 
        2.44211         85.1027         8.23004 
        2.44823         84.5481          8.1794 
        2.45437         84.0502         8.12905 
        2.46052         83.4593         8.07908 
        2.46665         83.2807         8.02962 
        2.47279         82.7777         7.98058 
        2.47892         82.2327         7.93193 
        2.48507         81.8784         7.88363 
         2.4912         81.4618         7.83583 
