# k  (h/Mpc)    Pcb(k)  (Mpc/h)^3    Pcb_linear(k)  (Mpc/h)^3
     0.00783031         984.777          991.25 
       0.013688         1272.35         1285.37 
       0.019231         1354.06          1360.1 
      0.0249154         1314.56         1314.91 
      0.0312784          1190.2         1192.41 
      0.0375637         1049.29         1052.68 
      0.0433917         936.867         935.773 
      0.0492413         840.416         841.903 
      0.0555754         768.593          766.78 
      0.0619321         705.909         711.664 
       0.067871         667.972         669.452 
      0.0738098         627.735         628.649 
      0.0800417         582.887         582.574 
      0.0862327         531.566         532.717 
      0.0921407         482.674          483.72 
      0.0982031         436.678         435.829 
       0.104506          390.87         392.347 
       0.110769         356.867         357.659 
       0.116806         334.105         332.358 
       0.122832         313.447         313.613 
       0.129052         299.525         298.639 
       0.135211         287.308         285.527 
       0.141259          272.63         272.239 
       0.147318         256.294         257.425 
       0.153489         240.814          240.78 
       0.159709         224.535         223.307 
       0.165845         205.894         206.664 
       0.171974         194.029         191.788 
       0.178125         181.671         179.305 
       0.184229         170.729         169.458 
        0.19034         164.375         161.753 
       0.196428         157.917          155.52 
       0.202534         150.572         149.922 
       0.208729         146.178         144.213 
       0.214876         140.826         138.102 
       0.220989         132.421         131.505 
       0.227147         127.484         124.548 
        0.23329         121.015         117.669 
       0.239377         115.159         111.295 
       0.245482         109.136         105.621 
       0.251667         103.741         100.723 
       0.257832         100.839         96.6325 
       0.263955         96.3719         93.1743 
       0.270079         93.2249         90.0714 
        0.27624         89.6075         87.0746 
       0.282372         86.7517         84.0484 
        0.28843         84.8169         80.9404 
       0.294538         81.2581         77.7138 
       0.300721          77.484         74.4396 
        0.30691         75.2278          71.275 
       0.313033         72.0531         68.3577 
       0.319153         70.2844         65.7194 
       0.325316         66.9823         63.3516 
        0.33145         64.8015         61.2502 
       0.337538          63.035         59.3491 
       0.343633           61.39         57.5584 
       0.349808         59.4317         55.7916 
       0.355968         57.5972         54.0377 
       0.362074          56.324         52.2922 
       0.368217           54.53         50.5456 
       0.374374         53.2687         48.8314 
       0.380519         51.0121         47.1898 
       0.386598         49.4177         45.6616 
       0.392688         47.9359         44.2362 
        0.39888         46.9004         42.8956 
       0.405048          45.746         41.6538 
       0.411186         44.5129         40.4885 
       0.417313         43.3281         39.3747 
       0.423458         42.0527         38.2878 
       0.429607         41.3281         37.2198 
       0.435692         40.5051         36.1818 
       0.441815         39.0242         35.1584 
       0.447964         37.8544         34.1605 
       0.454126         37.1612         33.2001 
       0.460267         36.6731         32.2875 
       0.466387         35.5865         31.4239 
        0.47254         34.9793         30.6011 
       0.478662         33.9661         29.8222 
       0.484765         33.2327         29.0776 
       0.490885         32.3086          28.357 
       0.497035         31.6638         27.6543 
       0.503198         31.0009         26.9682 
       0.509342         30.1772         26.3007 
       0.515458          29.754         25.6545 
       0.521598         29.0728         25.0259 
       0.527764         28.6436         24.4163 
       0.533884         27.8538         23.8335 
           0.54         27.3439          23.274 
       0.546137         26.5498         22.7347 
       0.552299         26.0988         22.2132 
       0.558452           25.57         21.7101 
       0.564573         25.2426         21.2249 
       0.570708         24.6459         20.7528 
       0.576825         24.2405         20.2952 
       0.582926         23.7739         19.8512 
       0.589034         23.3327         19.4186 
       0.595184         23.0234         18.9956 
       0.601379         22.4156         18.5827 
       0.607522          22.052         18.1864 
       0.613639         21.6079         17.8045 
       0.619772         21.2917         17.4335 
       0.625918         20.8521          17.073 
       0.632068         20.6368         16.7229 
       0.638161         20.2272         16.3859 
         0.6443         19.8703         16.0558 
       0.650464         19.3925         15.7333 
       0.656582         19.2648         15.4217 
       0.662703         19.0114         15.1181 
       0.668861         18.5025         14.8208 
       0.675024         18.2425         14.5313 
       0.681124         18.1717         14.2528 
       0.687237         17.7844         13.9815 
       0.693381         17.3545         13.7163 
       0.699536         17.2783         13.4578 
       0.705665         16.9595         13.2072 
       0.711789         16.6308         12.9633 
       0.717957         16.3012         12.7238 
        0.72409         16.1606         12.4916 
       0.730186         16.0453         12.2667 
       0.736317         15.7052         12.0461 
       0.742472         15.5091         11.8302 
       0.748622         15.2764         11.6198 
        0.75476         14.8996         11.4152 
       0.760888         14.8112         11.2159 
       0.767043         14.5296         11.0206 
       0.773185         14.3646         10.8305 
       0.779291         14.2759         10.6459 
       0.785407         14.0017         10.4655 
       0.791564         13.8577         10.2882 
       0.797719         13.5869         10.1151 
       0.803834         13.4888         9.94715 
       0.809972         13.2438         9.78246 
       0.816124         13.0939         9.62119 
       0.822261         12.9368         9.46404 
       0.828378         12.7598         9.31092 
       0.834502         12.6258          9.1611 
       0.840667         12.4995         9.01366 
       0.846816         12.2456         8.86993 
       0.852925         12.1473         8.73027 
       0.859047         11.9978         8.59336 
       0.865192         11.8364         8.45897 
       0.871341         11.6703         8.32739 
       0.877463         11.5415         8.19923 
       0.883569          11.443         8.07412 
       0.889708         11.2697         7.95101 
       0.895864         11.1321         7.83017 
       0.902008         10.9891         7.71212 
       0.908149         10.8468          7.5966 
       0.914301         10.7692         7.48329 
       0.920448         10.6199         7.37241 
       0.926574         10.5644         7.26419 
       0.932687         10.3932          7.1584 
       0.938823         10.2476         7.05436 
       0.944975         10.1703         6.95216 
       0.951105         10.0215         6.85238 
       0.957225         9.96268         6.75475 
       0.963368         9.84302         6.65871 
       0.969511         9.73215         6.56456 
       0.975621         9.62145         6.47275 
       0.981748         9.47091         6.38248 
       0.987916           9.399         6.29338 
        0.99406           9.338         6.20634 
        1.00019         9.24338         6.12113 
        1.00632         9.15248         6.03762 
        1.01246          9.0338         5.95556 
        1.01859         8.93785         5.87517 
        1.02471         8.81426         5.79638 
        1.03085         8.78298         5.71878 
        1.03698         8.68988         5.64279 
        1.04314         8.60396         5.56786 
        1.04929         8.48013         5.49449 
        1.05541         8.41963         5.42275 
        1.06154          8.3466         5.35212 
        1.06769         8.31065         5.28266 
        1.07382         8.16456         5.21468 
        1.07993         8.07914         5.14805 
        1.08607         8.04079         5.08233 
        1.09222         7.93512          5.0177 
        1.09836         7.92159         4.95428 
        1.10449         7.76214         4.89204 
        1.11063         7.73741         4.83081 
        1.11677         7.67481         4.77066 
         1.1229         7.59926         4.71165 
        1.12903         7.54779         4.65359 
        1.13518         7.43302         4.59647 
        1.14131         7.37469         4.54034 
        1.14745         7.28858          4.4852 
        1.15359         7.23657         4.43096 
        1.15973         7.16687         4.37761 
        1.16584         7.11228         4.32538 
        1.17197         7.04513         4.27394 
        1.17811         6.97996         4.22318 
        1.18424         6.92244          4.1734 
        1.19038         6.87103         4.12429 
        1.19652         6.82393         4.07599 
        1.20267         6.76465         4.02847 
        1.20881          6.6982         3.98172 
        1.21495         6.64172          3.9358 
        1.22108         6.59465         3.89061 
         1.2272         6.51856         3.84625 
        1.23334         6.51099         3.80248 
        1.23949          6.4297         3.75929 
        1.24562         6.38192          3.7169 
        1.25174         6.34063         3.67523 
        1.25789         6.25336         3.63408 
        1.26402         6.21883         3.59364 
        1.27014         6.17775         3.55392 
        1.27628         6.11147         3.51469 
        1.28244         6.08682         3.47598 
        1.28858         6.04789         3.43791 
        1.29471         5.96621          3.4005 
        1.30084         5.91924         3.36368 
        1.30697         5.89585         3.32736 
        1.31312         5.84387         3.29153 
        1.31925         5.79748         3.25634 
        1.32537         5.76326         3.22171 
        1.33151          5.7092         3.18746 
        1.33765         5.66843         3.15373 
        1.34378         5.64513         3.12056 
        1.34992         5.59295         3.08785 
        1.35606          5.5546         3.05554 
         1.3622         5.51385         3.02376 
        1.36833         5.46193          2.9925 
        1.37445         5.41542         2.96171 
        1.38059         5.38351         2.93126 
        1.38675         5.34249         2.90116 
        1.39288         5.31663         2.87161 
        1.39901         5.25973         2.84249 
        1.40515         5.23269         2.81371 
         1.4113         5.19489         2.78534 
        1.41742         5.15555         2.75747 
        1.42355         5.11598         2.72993 
         1.4297         5.09155         2.70269 
        1.43585         5.05604         2.67584 
        1.44198         5.01645         2.64945 
        1.44809         4.99338         2.62348 
        1.45423          4.9551         2.59775 
        1.46036         4.92318         2.57242 
        1.46649         4.87624         2.54743 
        1.47263         4.86211         2.52274 
        1.47877         4.82795          2.4984 
        1.48491         4.79294         2.47434 
        1.49104         4.75911         2.45065 
        1.49718         4.73477         2.42726 
        1.50333         4.69835         2.40414 
        1.50947         4.65792         2.38136 
         1.5156         4.64114         2.35892 
        1.52172          4.6127         2.33677 
        1.52787         4.58279         2.31486 
          1.534         4.55509         2.29326 
        1.54013         4.52235         2.27197 
        1.54627         4.49343          2.2509 
        1.55241         4.45745          2.2301 
        1.55855         4.44162          2.2096 
        1.56467         4.41112         2.18941 
         1.5708         4.38345         2.16941 
        1.57695         4.34349         2.14964 
        1.58308         4.31769         2.13016 
        1.58922         4.30699         2.11092 
        1.59535         4.27391         2.09191 
         1.6015         4.24042         2.07312 
        1.60764         4.22369         2.05457 
        1.61376         4.19322          2.0363 
        1.61989         4.16255         2.01823 
        1.62604         4.13846         2.00035 
        1.63218         4.12368          1.9827 
        1.63831         4.10701          1.9653 
        1.64444         4.07373          1.9481 
        1.65059          4.0568         1.93107 
        1.65673         4.02333         1.91426 
        1.66285         4.00227         1.89771 
        1.66898         3.98042         1.88134 
        1.67512         3.94968         1.86514 
        1.68127         3.92599         1.84911 
         1.6874          3.9206         1.83331 
        1.69353         3.87747          1.8177 
        1.69967         3.86431         1.80224 
        1.70581         3.84675         1.78697 
        1.71193         3.81295         1.77193 
        1.71806         3.79743         1.75703 
        1.72421          3.7794         1.74228 
        1.73035         3.75389         1.72771 
        1.73649         3.73903         1.71332 
        1.74262         3.71735          1.6991 
        1.74876         3.69533         1.68503 
        1.75489         3.67715         1.67116 
        1.76101         3.65166         1.65744 
        1.76715         3.64143         1.64386 
        1.77329         3.61507         1.63042 
        1.77943         3.59554         1.61712 
        1.78557         3.57723         1.60399 
        1.79171         3.56479         1.59101 
        1.79785         3.54233         1.57816 
        1.80399         3.52045         1.56547 
        1.81012         3.50109         1.55293 
        1.81625          3.4804         1.54053 
        1.82239         3.46721         1.52825 
        1.82853         3.44679         1.51611 
        1.83466         3.41977         1.50412 
        1.84078         3.40644         1.49227 
        1.84692         3.39059         1.48053 
        1.85306         3.37556          1.4689 
         1.8592         3.35917         1.45741 
        1.86533         3.33947         1.44606 
        1.87147         3.32519         1.43481 
        1.87761         3.31214         1.42368 
        1.88375         3.29161         1.41268 
        1.88988         3.27697         1.40181 
        1.89601         3.25221         1.39105 
        1.90215         3.23482         1.38039 
        1.90829         3.23082         1.36985 
        1.91442         3.20579         1.35942 
        1.92056         3.19746         1.34911 
         1.9267         3.18126          1.3389 
        1.93284         3.16595         1.32878 
        1.93897         3.14002         1.31879 
        1.94509         3.13464         1.30893 
        1.95123         3.11525         1.29914 
        1.95737         3.10408         1.28945 
        1.96349         3.08519         1.27988 
        1.96964         3.07143         1.27038 
        1.97578         3.05707         1.26097 
        1.98192         3.03687         1.25168 
        1.98805         3.03124         1.24248 
        1.99419         3.01224         1.23337 
        2.00033         2.99283         1.22435 
        2.00647         2.98943         1.21542 
         2.0126           2.974          1.2066 
        2.01874         2.96029         1.19785 
        2.02488         2.94235         1.18918 
        2.03101         2.92917         1.18061 
        2.03714         2.92142         1.17214 
        2.04328         2.90399         1.16374 
        2.04941         2.89235         1.15543 
        2.05554         2.88052         1.14721 
        2.06167         2.86223         1.13906 
        2.06781         2.85219         1.13098 
        2.07396         2.83782         1.12297 
        2.08009         2.83001         1.11506 
        2.08622         2.81436         1.10723 
        2.09237         2.80823         1.09946 
        2.09851         2.78468         1.09176 
        2.10464         2.78184         1.08415 
        2.11077         2.77088         1.07662 
        2.11691         2.75171         1.06915 
        2.12305          2.7401         1.06175 
        2.12918         2.72673         1.05444 
        2.13531         2.71582         1.04719 
        2.14145         2.70673            1.04 
         2.1476         2.68803         1.03287 
        2.15372         2.67844         1.02584 
        2.15985         2.66745         1.01886 
        2.16599         2.66138         1.01194 
        2.17213         2.64912         1.00508 
        2.17827         2.63385        0.998294 
         2.1844         2.62238        0.991574 
        2.19054         2.61303        0.984913 
        2.19666         2.60154        0.978324 
         2.2028         2.58734        0.971789 
        2.20893         2.57928        0.965312 
        2.21508         2.57223        0.958886 
        2.22122         2.55902        0.952517 
        2.22736         2.54394        0.946219 
        2.23349         2.53404         0.93998 
        2.23962         2.52852        0.933795 
        2.24577         2.51519        0.927659 
         2.2519         2.50286        0.921588 
        2.25802         2.49777        0.915581 
        2.26417         2.48581        0.909611 
        2.27031         2.47395        0.903689 
        2.27644         2.46691        0.897838 
        2.28257         2.45063        0.892038 
        2.28872         2.44592        0.886279 
        2.29486         2.43384        0.880573 
        2.30099         2.42149        0.874928 
        2.30712           2.418         0.86933 
        2.31326          2.4062        0.863773 
         2.3194         2.39504        0.858267 
        2.32553          2.3897        0.852819 
        2.33166         2.38259         0.84742 
         2.3378         2.36999        0.842062 
        2.34394         2.35825        0.836748 
        2.35007         2.34508        0.831487 
        2.35619         2.34188        0.826279 
        2.36233         2.33203        0.821103 
        2.36848         2.32381         0.81596 
        2.37462          2.3149        0.810873 
        2.38075         2.30558        0.805835 
        2.38689         2.29914        0.800835 
        2.39303         2.29114        0.795879 
        2.39916          2.2762        0.790969 
        2.40529          2.2717        0.786102 
        2.41143         2.26386        0.781273 
        2.41757         2.25683        0.776482 
         2.4237          2.2464         0.77174 
        2.42983         2.23742        0.767039 
        2.43598         2.23156        0.762364 
        2.44211          2.2213        0.757736 
        2.44823         2.21369        0.753157 
        2.45437         2.20493        0.748604 
        2.46052         2.19704        0.744085 
        2.46665         2.19052         0.73961 
        2.47279         2.17848        0.735175 
        2.47892         2.17286        0.730773 
        2.48507         2.16225        0.726403 
         2.4912          2.1581        0.722077 
