# k  (h/Mpc)    P(k)  (Mpc/h)^3    P_linear(k)  (Mpc/h)^3
     0.00783031          7018.7         7063.23 
       0.013688         8780.41         8958.35 
       0.019231         9235.08         9339.26 
      0.0249154         8911.51         8908.99 
      0.0312784         7913.11         7975.09 
      0.0375637         6880.98         6974.11 
      0.0433917         6142.52         6169.21 
      0.0492413         5480.24         5542.53 
      0.0555754         5029.12         5051.17 
      0.0619321         4554.86         4688.49 
       0.067871            4327         4399.16 
      0.0738098         4057.36         4106.86 
      0.0800417         3736.28         3771.58 
      0.0862327         3367.92         3414.45 
      0.0921407         3043.65         3075.15 
      0.0982031         2761.31         2757.38 
       0.104506         2461.11         2482.49 
       0.110769         2266.78         2273.57 
       0.116806         2156.76         2126.52 
       0.122832         2023.14         2017.46 
       0.129052         1933.37         1924.46 
       0.135211         1867.18          1833.8 
       0.141259         1746.61         1735.08 
       0.147318         1618.18         1624.08 
       0.153489         1518.45         1503.69 
       0.159709         1433.85         1384.43 
       0.165845         1302.82          1278.2 
       0.171974         1258.67         1189.51 
       0.178125         1200.29         1119.52 
       0.184229          1117.1         1066.31 
        0.19034         1093.71         1023.99 
       0.196428         1059.85         986.567 
       0.202534         995.825         948.505 
       0.208729         976.089         906.139 
       0.214876          935.95         859.902 
       0.220989         874.646         811.609 
       0.227147          850.92          763.72 
        0.23329         814.996         719.728 
       0.239377         796.287         681.862 
       0.245482         754.749         650.218 
       0.251667         725.216         623.896 
       0.257832         717.185         601.681 
       0.263955         680.135         581.588 
       0.270079         658.539         561.684 
        0.27624         631.379         540.743 
       0.282372         617.466         518.768 
        0.28843         611.916         496.403 
       0.294538         580.515         474.126 
       0.300721         561.258         452.839 
        0.30691         551.581          433.55 
       0.313033         527.744         416.746 
       0.319153         518.833         402.059 
       0.325316         508.052         388.915 
        0.33145         496.547         376.823 
       0.337538         479.378         365.196 
       0.343633         465.282         353.536 
       0.349808          453.38         341.528 
       0.355968         444.348         329.463 
       0.362074          431.51         317.656 
       0.368217         427.103         306.258 
       0.374374         418.076         295.558 
       0.380519         401.366         285.741 
       0.386598         396.131         276.873 
       0.392688         387.293          268.69 
        0.39888         377.461         260.906 
       0.405048         370.952         253.474 
       0.411186         368.311         246.227 
       0.417313         362.148         239.079 
       0.423458         352.045         231.972 
       0.429607         343.719         224.988 
       0.435692         337.712         218.299 
       0.441815         331.872         211.863 
       0.447964         323.782         205.749 
       0.454126         319.272         200.002 
       0.460267         314.912         194.608 
       0.466387         309.259         189.506 
        0.47254         305.239         184.593 
       0.478662         297.039          179.86 
       0.484765         293.724         175.246 
       0.490885         290.035         170.714 
       0.497035         285.798         166.269 
       0.503198         283.384         161.941 
       0.509342         275.859         157.771 
       0.515458         272.643         153.784 
       0.521598         266.943         149.961 
       0.527764         263.788         146.293 
       0.533884          263.15         142.802 
           0.54         257.655         139.442 
       0.546137         252.063         136.182 
       0.552299         250.687         133.006 
       0.558452         246.479         129.917 
       0.564573         244.642         126.919 
       0.570708         239.827         123.995 
       0.576825         236.334         121.169 
       0.582926         233.915         118.443 
       0.589034         230.852         115.807 
       0.595184         229.233         113.242 
       0.601379         224.724         110.747 
       0.607522         220.865         108.356 
       0.613639         219.354         106.049 
       0.619772          217.49         103.806 
       0.625918         215.412         101.619 
       0.632068         210.939         99.4873 
       0.638161         209.009         97.4299 
         0.6443         207.875          95.413 
       0.650464         204.158         93.4459 
       0.656582         202.865         91.5512 
       0.662703         201.089         89.7125 
       0.668861         197.311          87.917 
       0.675024         197.135         86.1714 
       0.681124         194.334         84.4918 
       0.687237         191.937         82.8536 
       0.693381         190.384         81.2508 
       0.699536          188.14         79.6872 
       0.705665         186.027         78.1713 
       0.711789         184.065         76.6962 
       0.717957         182.105          75.249 
        0.72409          180.65         73.8474 
       0.730186         180.587         72.4902 
       0.736317         177.488         71.1599 
       0.742472         175.218         69.8585 
       0.748622         172.725         68.5912 
        0.75476         173.287         67.3585 
       0.760888         171.383         66.1584 
       0.767043         168.734         64.9831 
       0.773185         167.179         63.8392 
       0.779291         165.163         62.7295 
       0.785407         164.075         61.6449 
       0.791564         162.903         60.5792 
       0.797719         160.762         59.5393 
       0.803834         160.737         58.5306 
       0.809972          159.61         57.5417 
       0.816124         157.351         56.5736 
       0.822261         155.861         55.6305 
       0.828378         155.757         54.7118 
       0.834502         153.181         53.8133 
       0.840667         152.734         52.9292 
       0.846816         151.237         52.0676 
       0.852925         149.778         51.2308 
       0.859047         148.529         50.4107 
       0.865192         147.673          49.606 
       0.871341         145.952         48.8184 
       0.877463         144.933         48.0516 
       0.883569         144.765         47.3034 
       0.889708         143.522         46.5673 
       0.895864         142.121         45.8451 
       0.902008         140.884         45.1399 
       0.908149         139.149         44.4499 
       0.914301         139.264         43.7734 
       0.920448         138.428         43.1117 
       0.926574         136.255          42.466 
       0.932687         136.062          41.835 
       0.938823         135.002         41.2147 
       0.944975         133.583         40.6055 
       0.951105         132.588          40.011 
       0.957225         132.407         39.4294 
       0.963368         130.896         38.8574 
       0.969511         129.833         38.2969 
       0.975621         128.827         37.7504 
       0.981748         127.829         37.2133 
       0.987916          127.18         36.6833 
        0.99406         126.562         36.1657 
        1.00019         125.319         35.6591 
        1.00632         124.655         35.1628 
        1.01246         123.812         34.6752 
        1.01859         123.114         34.1976 
        1.02471         122.159         33.7297 
        1.03085         121.108          33.269 
        1.03698         120.381         32.8179 
        1.04314         119.681         32.3733 
        1.04929         119.263          31.938 
        1.05541          118.42         31.5125 
        1.06154          117.65         31.0937 
        1.06769         116.633         30.6819 
        1.07382         115.827          30.279 
        1.07993          115.35         29.8842 
        1.08607         114.369         29.4949 
        1.09222         114.035         29.1121 
        1.09836          112.84         28.7366 
        1.10449         112.249         28.3682 
        1.11063         111.568         28.0059 
        1.11677         110.856           27.65 
         1.1229         110.056          27.301 
        1.12903         109.684         26.9577 
        1.13518         109.035           26.62 
        1.14131         108.329         26.2884 
        1.14745         107.616         25.9626 
        1.15359         106.449         25.6423 
        1.15973         106.226         25.3272 
        1.16584         105.548         25.0189 
        1.17197         104.957         24.7154 
        1.17811         104.184         24.4159 
        1.18424         103.476         24.1223 
        1.19038         103.365         23.8327 
        1.19652          102.54         23.5479 
        1.20267         101.842         23.2679 
        1.20881         101.264         22.9924 
        1.21495          100.78         22.7219 
        1.22108         100.241         22.4558 
         1.2272         99.3302         22.1946 
        1.23334         99.1119         21.9369 
        1.23949         98.5069         21.6828 
        1.24562         97.6858         21.4333 
        1.25174         97.0977         21.1882 
        1.25789         97.0194         20.9462 
        1.26402         96.2442         20.7084 
        1.27014         95.7979         20.4749 
        1.27628         94.8913         20.2443 
        1.28244         94.7223         20.0168 
        1.28858         94.0194         19.7931 
        1.29471         93.4937         19.5734 
        1.30084         92.8267         19.3572 
        1.30697         92.7896         19.1439 
        1.31312         92.0064         18.9336 
        1.31925         91.4753         18.7271 
        1.32537         91.0008         18.5239 
        1.33151          90.812         18.3229 
        1.33765          90.022         18.1251 
        1.34378         89.7619         17.9306 
        1.34992         89.3181         17.7388 
        1.35606           88.69         17.5494 
         1.3622         88.3998         17.3631 
        1.36833         87.6137           17.18 
        1.37445         87.0502         16.9996 
        1.38059          86.837         16.8213 
        1.38675         86.0235         16.6451 
        1.39288         85.9677         16.4721 
        1.39901         85.1058         16.3017 
        1.40515         84.8946         16.1333 
         1.4113         84.5456         15.9673 
        1.41742         83.9765         15.8043 
        1.42355           83.58         15.6433 
         1.4297         83.0886         15.4841 
        1.43585         82.5773         15.3271 
        1.44198          82.208         15.1729 
        1.44809         81.6742         15.0212 
        1.45423         81.3199         14.8709 
        1.46036         80.7175          14.723 
        1.46649         80.4668         14.5771 
        1.47263         80.0884          14.433 
        1.47877         79.7445         14.2909 
        1.48491         79.2501         14.1505 
        1.49104         78.6355         14.0124 
        1.49718         78.4262         13.8759 
        1.50333         77.9776         13.7411 
        1.50947         77.7259         13.6083 
         1.5156         77.3626         13.4775 
        1.52172         76.7925         13.3484 
        1.52787         76.3301         13.2207 
          1.534         76.0882         13.0949 
        1.54013         75.8054         12.9708 
        1.54627         75.1149         12.8481 
        1.55241         74.7524          12.727 
        1.55855         74.5248         12.6076 
        1.56467          73.825           12.49 
         1.5708         73.7178         12.3737 
        1.57695         73.3074         12.2586 
        1.58308         72.9222         12.1453 
        1.58922         72.5883         12.0333 
        1.59535          72.367         11.9228 
         1.6015         72.1811         11.8135 
        1.60764         71.7256         11.7057 
        1.61376         71.2222         11.5995 
        1.61989         70.6661         11.4945 
        1.62604         70.4944         11.3906 
        1.63218         70.2117          11.288 
        1.63831         69.9157          11.187 
        1.64444         69.6056         11.0871 
        1.65059         69.2093         10.9882 
        1.65673         68.6848         10.8907 
        1.66285         68.4031         10.7946 
        1.66898          67.916         10.6996 
        1.67512         67.8137         10.6056 
        1.68127         67.4681         10.5126 
         1.6874         67.0218          10.421 
        1.69353         66.7876         10.3305 
        1.69967         66.4975         10.2408 
        1.70581         66.1315         10.1523 
        1.71193         65.7882         10.0652 
        1.71806         65.3707         9.97884 
        1.72421         65.2222         9.89337 
        1.73035         64.9444           9.809 
        1.73649         64.5101         9.72563 
        1.74262         64.0211          9.6433 
        1.74876          63.907         9.56186 
        1.75489         63.4355         9.48154 
        1.76101         63.1604         9.40216 
        1.76715         63.1428         9.32358 
        1.77329         62.5053          9.2458 
        1.77943         62.4175         9.16887 
        1.78557         62.1643         9.09293 
        1.79171         61.7823         9.01784 
        1.79785         61.4847         8.94358 
        1.80399         61.1541         8.87018 
        1.81012         60.8827         8.79769 
        1.81625         60.6079         8.72605 
        1.82239         60.3396          8.6551 
        1.82853         60.0042         8.58497 
        1.83466          59.749         8.51569 
        1.84078         59.4161         8.44724 
        1.84692         59.1782         8.37944 
        1.85306         58.8829          8.3123 
         1.8592          58.692         8.24599 
        1.86533         58.2701         8.18045 
        1.87147          58.036         8.11555 
        1.87761         57.7112         8.05132 
        1.88375         57.4712         7.98787 
        1.88988         57.2538         7.92516 
        1.89601         56.9004          7.8631 
        1.90215         56.6162         7.80165 
        1.90829          56.448         7.74088 
        1.91442         56.1143         7.68076 
        1.92056         55.8744         7.62133 
         1.9267         55.6261         7.56247 
        1.93284         55.4177         7.50419 
        1.93897          55.174         7.44664 
        1.94509          54.734         7.38982 
        1.95123         54.5136         7.33345 
        1.95737         54.2194         7.27762 
        1.96349         54.0493         7.22252 
        1.96964         53.7456         7.16783 
        1.97578         53.5231         7.11368 
        1.98192         53.2622          7.0602 
        1.98805         53.0255         7.00727 
        1.99419         52.7759         6.95487 
        2.00033         52.5792         6.90299 
        2.00647         52.3392         6.85165 
         2.0126         51.9958         6.80092 
        2.01874         51.8224         6.75062 
        2.02488         51.5288         6.70079 
        2.03101         51.3358         6.65155 
        2.03714         51.1012         6.60285 
        2.04328         50.8527         6.55459 
        2.04941         50.5559         6.50685 
        2.05554         50.4627         6.45961 
        2.06167         50.2644         6.41278 
        2.06781         49.8067         6.36641 
        2.07396         49.6157         6.32043 
        2.08009          49.503         6.27498 
        2.08622         49.2364         6.23003 
        2.09237         48.9971         6.18543 
        2.09851         48.7515         6.14127 
        2.10464         48.5359          6.0976 
        2.11077         48.3475         6.05441 
        2.11691         48.0258         6.01155 
        2.12305         47.8165          5.9691 
        2.12918         47.6356         5.92716 
        2.13531         47.4806         5.88562 
        2.14145         47.1721         5.84438 
         2.1476         46.9891         5.80349 
        2.15372           46.88         5.76319 
        2.15985         46.5088         5.72324 
        2.16599         46.3505         5.68355 
        2.17213         46.1429         5.64428 
        2.17827         45.8996         5.60539 
         2.1844         45.6632          5.5669 
        2.19054         45.4821         5.52876 
        2.19666          45.233         5.49103 
         2.2028         45.0149         5.45362 
        2.20893         44.8088         5.41654 
        2.21508         44.6404         5.37976 
        2.22122         44.4337         5.34331 
        2.22736         44.1452         5.30727 
        2.23349         44.0451         5.27157 
        2.23962         43.8044         5.23618 
        2.24577         43.6355         5.20109 
         2.2519         43.3617         5.16637 
        2.25802         43.2619         5.13202 
        2.26417         43.0336         5.09788 
        2.27031         42.8387         5.06403 
        2.27644         42.7215         5.03058 
        2.28257         42.2945         4.99743 
        2.28872         42.3585         4.96452 
        2.29486         42.0768         4.93191 
        2.30099         41.8192         4.89967 
        2.30712         41.7445         4.86769 
        2.31326         41.4449         4.83595 
         2.3194         41.2369         4.80451 
        2.32553         41.1309          4.7734 
        2.33166         40.8589         4.74258 
         2.3378         40.6949         4.71199 
        2.34394         40.5339         4.68166 
        2.35007         40.3378         4.65163 
        2.35619         40.2728         4.62191 
        2.36233         39.9257         4.59238 
        2.36848         39.8168         4.56304 
        2.37462         39.6337         4.53403 
        2.38075         39.5197         4.50529 
        2.38689         39.3571         4.47677 
        2.39303         39.1632         4.44851 
        2.39916         38.8734         4.42052 
        2.40529         38.7241         4.39277 
        2.41143         38.5691         4.36524 
        2.41757         38.4532         4.33794 
         2.4237         38.2631         4.31092 
        2.42983         38.0647         4.28413 
        2.43598         37.9266          4.2575 
        2.44211         37.7568         4.23113 
        2.44823         37.5163         4.20505 
        2.45437         37.4362         4.17912 
        2.46052         37.1804         4.15339 
        2.46665         37.0446         4.12791 
        2.47279         36.8102         4.10266 
        2.47892         36.7297          4.0776 
        2.48507         36.5911         4.05273 
         2.4912          36.403         4.02812 
