# k  (h/Mpc)    P(k)  (Mpc/h)^3    P_linear(k)  (Mpc/h)^3
     0.00783031         13069.9         13175.5 
       0.013688         16095.1         16542.1 
       0.019231           16797         17079.4 
      0.0249154         16146.7         16162.6 
      0.0312784           14189           14379 
      0.0375637         12268.8         12532.3 
      0.0433917         10961.1         11072.8 
      0.0492413         9761.03         9944.72 
      0.0555754         8949.11         9056.56 
      0.0619321         8036.57         8388.12 
       0.067871         7620.56         7842.56 
      0.0738098         7139.71          7288.3 
      0.0800417         6539.45         6661.23 
      0.0862327          5877.7         6008.63 
      0.0921407          5322.9         5403.17 
      0.0982031         4854.58         4847.98 
       0.104506         4335.63          4375.7 
       0.110769         4014.37         4019.55 
       0.116806         3833.43         3766.51 
       0.122832         3600.57         3572.45 
       0.129052         3416.41         3398.72 
       0.135211         3310.16         3224.59 
       0.141259         3075.33         3036.76 
       0.147318         2849.51         2831.82 
       0.153489         2681.86         2617.14 
       0.159709         2562.81         2411.18 
       0.165845          2337.5         2232.22 
       0.171974         2271.62         2084.87 
       0.178125         2190.05         1968.23 
       0.184229         2023.32         1877.08 
        0.19034         1992.43         1800.75 
       0.196428         1935.32         1729.85 
       0.202534         1819.35         1656.59 
       0.208729         1784.16         1576.73 
       0.214876         1706.28         1492.81 
       0.220989         1615.73         1408.54 
       0.227147         1571.92         1327.63 
        0.23329         1509.84         1254.87 
       0.239377         1496.63         1192.62 
       0.245482         1424.74         1139.92 
       0.251667         1372.38         1094.54 
       0.257832         1352.49         1054.38 
       0.263955          1290.5         1016.67 
       0.270079         1255.82         978.954 
        0.27624          1204.1         940.049 
       0.282372         1188.05         900.585 
        0.28843         1170.19         861.829 
       0.294538         1115.09         824.329 
       0.300721         1091.85           789.1 
        0.30691         1067.84         757.257 
       0.313033          1025.8         729.092 
       0.319153         1013.75         703.778 
       0.325316         1000.85         680.311 
        0.33145          979.65         658.153 
       0.337538         946.795         636.659 
       0.343633         924.251         615.346 
       0.349808          906.07         593.909 
       0.355968         889.004         572.943 
       0.362074         861.059         552.897 
       0.368217          858.49         533.791 
       0.374374         845.487         515.906 
       0.380519         814.953         499.319 
       0.386598         809.732         484.053 
       0.392688          790.73          469.66 
        0.39888         772.515         455.705 
       0.405048         758.588         442.286 
       0.411186         756.571         429.257 
       0.417313         752.332         416.559 
       0.423458         729.045         404.161 
       0.429607         709.178         392.162 
       0.435692          702.66         380.779 
       0.441815         689.715         369.867 
       0.447964         680.279         359.454 
       0.454126         671.888         349.549 
       0.460267         662.339         340.143 
       0.466387         651.792         331.149 
        0.47254         641.101         322.423 
       0.478662         631.626         314.017 
       0.484765         625.163         305.879 
       0.490885         618.449         297.953 
       0.497035         606.675         290.243 
       0.503198         606.216         282.791 
       0.509342         594.351         275.639 
       0.515458         583.012         268.793 
       0.521598         579.348         262.191 
       0.527764         567.262         255.816 
       0.533884         562.974         249.715 
           0.54         557.592         243.819 
       0.546137         548.713         238.087 
       0.552299         546.549         232.507 
       0.558452         539.185         227.104 
       0.564573         534.399         221.889 
       0.570708         529.188         216.823 
       0.576825         518.731         211.932 
       0.582926         517.068         207.215 
       0.589034         509.434         202.648 
       0.595184          505.02         198.196 
       0.601379         497.346         193.854 
       0.607522          489.24         189.678 
       0.613639         488.372         185.644 
       0.619772         485.889         181.717 
       0.625918         477.019         177.895 
       0.632068         474.307         174.179 
       0.638161         469.379           170.6 
         0.6443         464.135         167.097 
       0.650464          459.76          163.68 
       0.656582         456.099         160.387 
       0.662703         451.807         157.187 
       0.668861         445.802         154.059 
       0.675024         443.336         151.015 
       0.681124         436.412         148.086 
       0.687237         435.259         145.228 
       0.693381         428.947         142.432 
       0.699536         427.732         139.705 
       0.705665         422.542         137.061 
       0.711789         421.314         134.489 
       0.717957         415.295         131.967 
        0.72409         411.279         129.524 
       0.730186         412.584         127.159 
       0.736317         405.528          124.84 
       0.742472         401.752         122.572 
       0.748622         399.135         120.364 
        0.75476         396.104         118.214 
       0.760888         393.068         116.121 
       0.767043         390.169         114.071 
       0.773185         387.615         112.075 
       0.779291         382.738         110.139 
       0.785407         380.629         108.246 
       0.791564         377.912         106.387 
       0.797719         372.182         104.572 
       0.803834         374.398         102.812 
       0.809972         368.381         101.087 
       0.816124         365.005         99.3978 
       0.822261         362.435         97.7523 
       0.828378          360.96         96.1494 
       0.834502         355.442         94.5815 
       0.840667         355.669         93.0386 
       0.846816         349.982         91.5349 
       0.852925         350.566         90.0741 
       0.859047         347.265         88.6424 
       0.865192         345.676         87.2375 
       0.871341         341.005         85.8623 
       0.877463         339.192         84.5233 
       0.883569         336.731         83.2164 
       0.889708         333.681         81.9307 
       0.895864          330.67         80.6692 
       0.902008         329.285          79.437 
       0.908149         326.399         78.2316 
       0.914301         324.898         77.0494 
       0.920448         322.403          75.893 
       0.926574         320.357         74.7645 
       0.932687          318.95         73.6616 
       0.938823          315.34         72.5772 
       0.944975         314.576         71.5122 
       0.951105         311.647         70.4727 
       0.957225         308.051         69.4557 
       0.963368         308.647         68.4556 
       0.969511         302.982         67.4753 
       0.975621         302.356         66.5196 
       0.981748         301.006         65.5802 
       0.987916         299.267         64.6532 
        0.99406         296.482         63.7477 
        1.00019         293.876         62.8615 
        1.00632         293.637         61.9931 
        1.01246         291.093           61.14 
        1.01859         287.825         60.3045 
        1.02471         286.121         59.4858 
        1.03085         285.244         58.6795 
        1.03698         283.635         57.8901 
        1.04314         282.594          57.112 
        1.04929          280.68         56.3501 
        1.05541         277.672         55.6053 
        1.06154         276.119         54.8722 
        1.06769         273.704         54.1514 
        1.07382         272.736         53.4459 
        1.07993         270.505         52.7548 
        1.08607         268.973          52.073 
        1.09222         267.008         51.4028 
        1.09836         266.255         50.7452 
        1.10449         264.212         50.0999 
        1.11063         262.194         49.4652 
        1.11677         259.927         48.8419 
         1.1229          259.41         48.2304 
        1.12903          257.27         47.6289 
        1.13518         255.464         47.0373 
        1.14131         254.742         46.4561 
        1.14745         251.785         45.8851 
        1.15359         250.068         45.3236 
        1.15973          249.25         44.7713 
        1.16584          247.85         44.2308 
        1.17197         246.274         43.6985 
        1.17811         244.135         43.1734 
        1.18424          242.86         42.6584 
        1.19038         241.772         42.1505 
        1.19652         239.005         41.6511 
        1.20267         238.552         41.1598 
        1.20881         236.724         40.6766 
        1.21495         236.219         40.2019 
        1.22108         234.373          39.735 
         1.2272         231.783         39.2766 
        1.23334         231.165         38.8245 
        1.23949         230.066         38.3784 
        1.24562         228.493         37.9407 
        1.25174         227.105         37.5105 
        1.25789         225.111         37.0857 
        1.26402         224.935         36.6682 
        1.27014         223.888         36.2583 
        1.27628         221.586         35.8535 
        1.28244         220.377         35.4541 
        1.28858           219.1         35.0613 
        1.29471          217.98         34.6755 
        1.30084         216.878         34.2958 
        1.30697         214.773         33.9213 
        1.31312         213.655         33.5518 
        1.31925         212.434         33.1891 
        1.32537         211.774         32.8321 
        1.33151         210.266         32.4791 
        1.33765         208.694         32.1316 
        1.34378          207.75         31.7898 
        1.34992         206.164         31.4528 
        1.35606         205.278           31.12 
         1.3622         203.937         30.7926 
        1.36833         202.512         30.4707 
        1.37445          202.34         30.1537 
        1.38059         200.119         29.8401 
        1.38675         198.851         29.5304 
        1.39288           197.9         29.2262 
        1.39901         196.481         28.9265 
        1.40515         195.889         28.6304 
         1.4113         194.314         28.3385 
        1.41742         192.764         28.0519 
        1.42355         192.981         27.7687 
         1.4297         191.227         27.4885 
        1.43585         190.308         27.2124 
        1.44198         188.516         26.9411 
        1.44809         187.939          26.674 
        1.45423         186.877         26.4096 
        1.46036         185.696         26.1493 
        1.46649         184.603         25.8924 
        1.47263         183.968         25.6388 
        1.47877         182.503         25.3887 
        1.48491           181.1         25.1416 
        1.49104         179.589         24.8982 
        1.49718         179.209          24.658 
        1.50333         177.737         24.4205 
        1.50947         177.033         24.1867 
         1.5156         175.964         23.9563 
        1.52172         175.119          23.729 
        1.52787         174.064         23.5041 
          1.534           173.2         23.2824 
        1.54013         172.033         23.0639 
        1.54627         171.143         22.8477 
        1.55241         170.363         22.6343 
        1.55855          169.57          22.424 
        1.56467         168.337         22.2169 
         1.5708         166.942         22.0119 
        1.57695         166.424         21.8091 
        1.58308         165.187         21.6094 
        1.58922         164.428         21.4121 
        1.59535         163.137         21.2173 
         1.6015         162.527         21.0247 
        1.60764         161.434         20.8346 
        1.61376         160.308         20.6473 
        1.61989         159.645         20.4622 
        1.62604         158.476          20.279 
        1.63218         157.819         20.0982 
        1.63831         156.984         19.9199 
        1.64444         155.767         19.7438 
        1.65059         155.109         19.5694 
        1.65673         154.118         19.3973 
        1.66285         153.565         19.2277 
        1.66898         152.447         19.0602 
        1.67512         151.573         18.8943 
        1.68127         150.883         18.7302 
         1.6874         149.845         18.5685 
        1.69353         149.406         18.4088 
        1.69967          148.13         18.2505 
        1.70581         147.733         18.0943 
        1.71193         146.563         17.9404 
        1.71806         145.344          17.788 
        1.72421         144.939         17.6371 
        1.73035         144.034         17.4881 
        1.73649         143.012         17.3409 
        1.74262         142.616         17.1955 
        1.74876         141.755         17.0517 
        1.75489          141.11         16.9098 
        1.76101         139.891         16.7696 
        1.76715         139.068         16.6308 
        1.77329         138.327         16.4934 
        1.77943          137.42         16.3575 
        1.78557         136.962         16.2233 
        1.79171         136.179         16.0907 
        1.79785         135.122         15.9595 
        1.80399         134.539         15.8297 
        1.81012          133.65         15.7017 
        1.81625         133.085          15.575 
        1.82239         132.288         15.4496 
        1.82853         131.532         15.3257 
        1.83466         130.538         15.2032 
        1.84078         130.195         15.0822 
        1.84692         129.676         14.9624 
        1.85306         128.629         14.8437 
         1.8592         128.148         14.7265 
        1.86533         127.042         14.6106 
        1.87147         126.633         14.4958 
        1.87761         125.681         14.3822 
        1.88375         124.827           14.27 
        1.88988         124.343         14.1591 
        1.89601         124.013         14.0493 
        1.90215         123.452         13.9406 
        1.90829         122.135         13.8331 
        1.91442         121.371         13.7267 
        1.92056         120.871         13.6215 
         1.9267         120.212         13.5174 
        1.93284         119.478         13.4142 
        1.93897         118.885         13.3124 
        1.94509         118.207         13.2118 
        1.95123         117.654          13.112 
        1.95737         117.068         13.0132 
        1.96349         116.331         12.9156 
        1.96964         115.643         12.8188 
        1.97578         115.024         12.7229 
        1.98192         114.634         12.6282 
        1.98805         113.916         12.5345 
        1.99419         112.929         12.4417 
        2.00033         112.597         12.3498 
        2.00647         112.099         12.2589 
         2.0126         111.348          12.169 
        2.01874         110.955         12.0799 
        2.02488         109.989         11.9916 
        2.03101         109.642         11.9044 
        2.03714         108.893         11.8181 
        2.04328         108.572         11.7326 
        2.04941          108.01          11.648 
        2.05554         107.367         11.5643 
        2.06167         106.515         11.4813 
        2.06781         105.984         11.3991 
        2.07396         105.494         11.3176 
        2.08009         104.686         11.2371 
        2.08622          104.35         11.1574 
        2.09237         103.593         11.0783 
        2.09851         103.171              11 
        2.10464          102.74         10.9226 
        2.11077         102.068          10.846 
        2.11691          101.67           10.77 
        2.12305         101.074         10.6948 
        2.12918         100.446         10.6204 
        2.13531         99.8893         10.5467 
        2.14145         99.3876         10.4736 
         2.1476         98.8591          10.401 
        2.15372         98.2508         10.3296 
        2.15985         97.7734         10.2587 
        2.16599         97.0892         10.1883 
        2.17213         96.6517         10.1186 
        2.17827         96.0078         10.0496 
         2.1844         95.8172         9.98131 
        2.19054         95.1026         9.91363 
        2.19666         94.5093         9.84667 
         2.2028          94.207         9.78027 
        2.20893         93.7622         9.71445 
        2.21508          93.134         9.64917 
        2.22122         92.6681         9.58446 
        2.22736         92.3221         9.52049 
        2.23349         91.6338         9.45712 
        2.23962         91.1192         9.39429 
        2.24577         90.7686         9.33198 
         2.2519         90.1735         9.27032 
        2.25802         89.7722         9.20932 
        2.26417         89.1945          9.1487 
        2.27031         88.6261         9.08857 
        2.27644         88.3319         9.02915 
        2.28257         87.8111         8.97028 
        2.28872          87.429         8.91182 
        2.29486          87.225         8.85389 
        2.30099         86.3732          8.7966 
        2.30712         86.1377         8.73979 
        2.31326         85.6565         8.68339 
         2.3194         85.1093         8.62752 
        2.32553         84.6483         8.57224 
        2.33166         84.1593         8.51747 
         2.3378         83.9159          8.4631 
        2.34394          83.419         8.40919 
        2.35007         82.7438         8.35582 
        2.35619         82.5308         8.30299 
        2.36233         82.0681         8.25049 
        2.36848         81.5651         8.19833 
        2.37462         81.2824         8.14674 
        2.38075         80.7267         8.09564 
        2.38689         80.4042         8.04494 
        2.39303         80.0063         7.99468 
        2.39916          79.567          7.9449 
        2.40529         79.2432         7.89556 
        2.41143         78.8151          7.8466 
        2.41757         78.2962         7.79803 
         2.4237          77.823         7.74996 
        2.42983         77.4421         7.70231 
        2.43598         77.1869         7.65493 
        2.44211         76.8184         7.60803 
        2.44823          76.383         7.56162 
        2.45437         75.9877         7.51548 
        2.46052         75.5557         7.46969 
        2.46665         74.9759         7.42436 
        2.47279         74.8026         7.37942 
        2.47892         74.4269         7.33483 
        2.48507         74.0434         7.29056 
         2.4912         73.5291         7.24674 
