# k  (h/Mpc)    Pcb(k)  (Mpc/h)^3    Pcb_linear(k)  (Mpc/h)^3
     0.00783031         3739.17         3781.59 
       0.013688          4407.1          4398.5 
       0.019231         4239.31         4232.36 
      0.0249154         3687.05         3717.26 
      0.0312784         3041.43         3044.46 
      0.0375637         2482.82         2470.92 
      0.0433917          2077.9         2082.14 
      0.0492413         1827.37         1823.08 
      0.0555754            1635         1647.97 
      0.0619321         1539.16         1527.48 
       0.067871          1413.9         1422.56 
      0.0738098         1293.73         1301.87 
      0.0800417         1143.93         1155.23 
      0.0862327         1000.94         1002.85 
      0.0921407         874.272          869.14 
      0.0982031         759.469         757.566 
       0.104506         687.529         674.531 
       0.110769         632.647         621.783 
       0.116806         595.708         590.141 
       0.122832         574.377         566.738 
       0.129052         542.396         541.304 
       0.135211         510.569         508.909 
       0.141259         476.081         469.478 
       0.147318          435.76         425.955 
       0.153489          391.37          382.96 
       0.159709         357.085         345.867 
       0.165845         332.925         317.897 
       0.171974         310.148         298.413 
       0.178125         297.366         285.289 
       0.184229         287.343         275.601 
        0.19034         272.389         266.216 
       0.196428         264.699         255.062 
       0.202534         253.815         241.331 
       0.208729         236.774         225.439 
       0.214876         219.856         209.226 
       0.220989         207.769         194.274 
       0.227147         193.736         181.553 
        0.23329          183.97         171.606 
       0.239377         177.813         164.155 
       0.245482          168.12         158.322 
       0.251667         165.269         153.118 
       0.257832         159.707         147.788 
       0.263955         153.462         141.881 
       0.270079         146.745         135.301 
        0.27624         141.963          128.31 
       0.282372         135.434         121.462 
        0.28843         128.717         115.234 
       0.294538          122.81         109.783 
       0.300721         119.821          105.16 
        0.30691         114.373         101.302 
       0.313033         111.078         97.9677 
       0.319153         106.147          94.837 
       0.325316         104.303         91.6498 
        0.33145         100.187         88.3434 
       0.337538         97.6559         84.9286 
       0.343633         93.7987         81.4889 
       0.349808         90.6518         78.1143 
       0.355968         88.0194         74.9889 
       0.362074         85.0148         72.1945 
       0.368217         82.3509         69.6914 
       0.374374          79.841         67.4443 
       0.380519         77.9277         65.3716 
       0.386598         75.7751         63.4109 
       0.392688         74.2019         61.4703 
        0.39888         71.9865         59.4896 
       0.405048         70.0776         57.5224 
       0.411186         68.2925         55.5942 
       0.417313         66.1442         53.7402 
       0.423458         64.3845         51.9882 
       0.429607         62.6652         50.3546 
       0.435692         60.5261         48.8553 
       0.441815         59.6848         47.4498 
       0.447964         58.5989         46.1129 
       0.454126         56.0525          44.822 
       0.460267         55.2406          43.569 
       0.466387         53.7968         42.3433 
        0.47254         52.8208         41.1325 
       0.478662         51.9701           39.96 
       0.484765         50.3132         38.8344 
       0.490885         49.2169         37.7554 
       0.497035         48.5661         36.7233 
       0.503198         47.1709         35.7427 
       0.509342         45.9667         34.8136 
       0.515458          45.088          33.927 
       0.521598          44.329         33.0663 
       0.527764         43.4493         32.2268 
       0.533884         42.7241         31.4166 
           0.54         41.7128         30.6292 
       0.546137          41.145         29.8611 
       0.552299          40.464         29.1146 
       0.558452         39.2498         28.3965 
       0.564573          38.569         27.7106 
       0.570708         37.9873         27.0505 
       0.576825         37.1828         26.4165 
       0.582926         36.3757         25.8056 
       0.589034         35.5213         25.2129 
       0.595184         35.0614         24.6342 
       0.601379         34.4246         24.0686 
       0.607522         33.6739          23.524 
       0.613639         33.4198         22.9972 
       0.619772         32.5724         22.4845 
       0.625918         32.3315         21.9863 
       0.632068         31.8301         21.5038 
       0.638161         31.2162         21.0413 
         0.6443         30.6323         20.5903 
       0.650464          30.108         20.1518 
       0.656582         29.8654         19.7293 
       0.662703         29.2617         19.3186 
       0.668861         28.7559         18.9167 
       0.675024         28.2878         18.5252 
       0.681124         27.7835         18.1485 
       0.687237         27.2958         17.7815 
       0.693381         27.0806          17.423 
       0.699536         26.4179         17.0741 
       0.705665         26.4187         16.7366 
       0.711789         25.7474         16.4089 
       0.717957         25.4126         16.0878 
        0.72409         25.0652         15.7771 
       0.730186         24.6751         15.4766 
       0.736317         24.4445         15.1821 
       0.742472         24.0057         14.8941 
       0.748622         23.7811         14.6138 
        0.75476          23.395         14.3413 
       0.760888         23.0109         14.0762 
       0.767043         22.7287         13.8167 
       0.773185          22.366         13.5645 
       0.779291         22.2548           13.32 
       0.785407         22.0128         13.0813 
       0.791564         21.6145         12.8471 
       0.797719         21.1159         12.6187 
       0.803834         21.0922         12.3973 
       0.809972         20.8539         12.1805 
       0.816124         20.4245         11.9684 
       0.822261         20.2203         11.7619 
       0.828378         20.0572         11.5609 
       0.834502         19.8381         11.3644 
       0.840667         19.5725         11.1712 
       0.846816         19.2214         10.9831 
       0.852925         19.0416         10.8005 
       0.859047          18.827         10.6217 
       0.865192         18.6285         10.4463 
       0.871341         18.5097         10.2749 
       0.877463         18.1573          10.108 
       0.883569         17.9558         9.94531 
       0.889708         17.7161         9.78537 
       0.895864         17.5451         9.62855 
       0.902008         17.4107         9.47551 
       0.908149         17.2191         9.32589 
       0.914301         17.1467         9.17928 
       0.920448         16.8209         9.03596 
       0.926574         16.6657         8.89621 
       0.932687         16.4753         8.75972 
       0.938823         16.2568         8.62561 
       0.944975         16.1133         8.49401 
       0.951105         15.9497         8.36563 
       0.957225         15.7764         8.24014 
       0.963368         15.6899          8.1168 
       0.969511         15.5229         7.99599 
       0.975621         15.3882         7.87829 
       0.981748         15.1532         7.76267 
       0.987916         15.0731         7.64865 
        0.99406         14.8817         7.53735 
        1.00019         14.6909         7.42849 
        1.00632         14.6146         7.32188 
        1.01246          14.513         7.21722 
        1.01859         14.2609         7.11477 
        1.02471         14.2228         7.01444 
        1.03085         14.0798         6.91571 
        1.03698          13.845         6.81909 
        1.04314         13.7715         6.72391 
        1.04929          13.612         6.63076 
        1.05541         13.4652         6.53976 
        1.06154           13.39         6.45024 
        1.06769         13.3139         6.36227 
        1.07382         13.1423         6.27622 
        1.07993         13.0511         6.19197 
        1.08607         12.9018         6.10891 
        1.09222         12.8269          6.0273 
        1.09836         12.6673         5.94728 
        1.10449         12.5799          5.8688 
        1.11063         12.4263         5.79165 
        1.11677         12.3849         5.71592 
         1.1229         12.3081         5.64168 
        1.12903         12.1413         5.56869 
        1.13518         12.0044         5.49693 
        1.14131         11.9739         5.42647 
        1.14745         11.8614          5.3573 
        1.15359         11.7865         5.28931 
        1.15973         11.6566         5.22248 
        1.16584         11.5033          5.1571 
        1.17197         11.4789         5.09275 
        1.17811         11.3654         5.02931 
        1.18424         11.2702         4.96713 
        1.19038         11.2239         4.90582 
        1.19652          11.115         4.84557 
        1.20267         11.0201         4.78634 
        1.20881         10.9553         4.72811 
        1.21495         10.8844         4.67094 
        1.22108         10.7606         4.61472 
         1.2272         10.6722         4.55956 
        1.23334         10.6044         4.50518 
        1.23949         10.4978         4.45156 
        1.24562         10.4553         4.39896 
        1.25174         10.3819         4.34729 
        1.25789         10.2901         4.29629 
        1.26402          10.252         4.24621 
        1.27014         10.1461         4.19704 
        1.27628         10.0366          4.1485 
        1.28244          9.9811         4.10064 
        1.28858         9.95936          4.0536 
        1.29471         9.85343          4.0074 
        1.30084          9.7616         3.96196 
        1.30697         9.71889         3.91716 
        1.31312         9.60547         3.87298 
        1.31925         9.53516         3.82962 
        1.32537         9.50492         3.78697 
        1.33151         9.43528         3.74482 
        1.33765          9.3701         3.70333 
        1.34378         9.30389         3.66255 
        1.34992          9.2083         3.62236 
        1.35606         9.18741         3.58268 
         1.3622         9.12879         3.54367 
        1.36833         9.02834         3.50534 
        1.37445          8.9995         3.46759 
        1.38059         8.93642         3.43028 
        1.38675         8.83888         3.39342 
        1.39288         8.82566         3.35726 
        1.39901         8.73956         3.32164 
        1.40515         8.70195         3.28646 
         1.4113         8.63484          3.2518 
        1.41742         8.57052         3.21777 
        1.42355          8.5144         3.18416 
         1.4297         8.48573         3.15093 
        1.43585         8.43633          3.1182 
        1.44198         8.37996         3.08605 
        1.44809         8.32051         3.05441 
        1.45423         8.26318          3.0231 
        1.46036         8.20569         2.99229 
        1.46649         8.17633         2.96189 
        1.47263         8.09604         2.93189 
        1.47877         8.05054         2.90232 
        1.48491          8.0219         2.87311 
        1.49104         7.97017         2.84437 
        1.49718         7.91598         2.81599 
        1.50333         7.87406         2.78796 
        1.50947         7.81472         2.76036 
         1.5156         7.77093         2.73318 
        1.52172         7.74176         2.70637 
        1.52787         7.68403         2.67986 
          1.534          7.6266         2.65373 
        1.54013            7.58         2.62798 
        1.54627         7.52834         2.60253 
        1.55241         7.49725         2.57741 
        1.55855         7.45746         2.55265 
        1.56467         7.40378         2.52829 
         1.5708         7.39587         2.50418 
        1.57695         7.33045         2.48035 
        1.58308         7.27986         2.45688 
        1.58922         7.25555         2.43369 
        1.59535         7.21566         2.41082 
         1.6015         7.15464          2.3882 
        1.60764          7.1116         2.36589 
        1.61376         7.09339         2.34392 
        1.61989         7.04036         2.32221 
        1.62604         7.02083         2.30073 
        1.63218         6.98289         2.27953 
        1.63831         6.93978         2.25865 
        1.64444         6.89014         2.23802 
        1.65059         6.84078         2.21761 
        1.65673         6.84059         2.19746 
        1.66285         6.76589         2.17762 
        1.66898         6.74579         2.15803 
        1.67512           6.716         2.13863 
        1.68127         6.67642         2.11945 
         1.6874         6.64227         2.10055 
        1.69353         6.58539          2.0819 
        1.69967         6.57194         2.06342 
        1.70581         6.54763         2.04518 
        1.71193         6.49296         2.02723 
        1.71806         6.47059         2.00945 
        1.72421         6.43282         1.99185 
        1.73035         6.40355         1.97448 
        1.73649         6.37427         1.95732 
        1.74262         6.33977         1.94038 
        1.74876         6.32093         1.92363 
        1.75489         6.27834         1.90711 
        1.76101         6.23459         1.89078 
        1.76715         6.22072         1.87463 
        1.77329         6.16813         1.85865 
        1.77943         6.14092         1.84284 
        1.78557         6.13086         1.82724 
        1.79171         6.09846         1.81182 
        1.79785         6.05195         1.79657 
        1.80399         6.02984          1.7815 
        1.81012         6.00847         1.76663 
        1.81625         5.97057         1.75193 
        1.82239         5.94295         1.73737 
        1.82853         5.90747         1.72299 
        1.83466          5.8799         1.70878 
        1.84078         5.85219         1.69475 
        1.84692         5.83714         1.68085 
        1.85306         5.79924          1.6671 
         1.8592          5.7685         1.65351 
        1.86533         5.75038         1.64009 
        1.87147         5.72085          1.6268 
        1.87761         5.69801         1.61365 
        1.88375         5.64989         1.60066 
        1.88988         5.65124         1.58782 
        1.89601           5.619         1.57512 
        1.90215         5.58673         1.56255 
        1.90829         5.55833         1.55012 
        1.91442         5.53266         1.53783 
        1.92056         5.51775         1.52568 
         1.9267         5.48523         1.51364 
        1.93284         5.45428         1.50173 
        1.93897         5.42867         1.48997 
        1.94509         5.41247         1.47837 
        1.95123         5.39077         1.46685 
        1.95737         5.36205         1.45545 
        1.96349         5.34337          1.4442 
        1.96964         5.30819         1.43304 
        1.97578         5.28429         1.42199 
        1.98192          5.2691         1.41107 
        1.98805         5.24869         1.40027 
        1.99419         5.21625         1.38959 
        2.00033         5.20508           1.379 
        2.00647         5.17525         1.36854 
         2.0126         5.15554         1.35819 
        2.01874         5.13468         1.34794 
        2.02488         5.10689         1.33779 
        2.03101         5.08889         1.32775 
        2.03714         5.05578         1.31783 
        2.04328         5.04551           1.308 
        2.04941         5.00987         1.29828 
        2.05554         5.00466         1.28866 
        2.06167          4.9702         1.27913 
        2.06781          4.9611         1.26969 
        2.07396         4.94571         1.26034 
        2.08009         4.92209         1.25109 
        2.08622         4.88845         1.24195 
        2.09237         4.87779         1.23288 
        2.09851         4.86291          1.2239 
        2.10464         4.83526         1.21502 
        2.11077         4.80532         1.20624 
        2.11691         4.78706         1.19753 
        2.12305          4.7741         1.18891 
        2.12918         4.75952         1.18039 
        2.13531          4.7376         1.17195 
        2.14145         4.71598         1.16357 
         2.1476         4.70086         1.15527 
        2.15372         4.68039         1.14709 
        2.15985         4.66998         1.13898 
        2.16599         4.64229         1.13092 
        2.17213         4.62404         1.12296 
        2.17827         4.61206         1.11507 
         2.1844         4.59079         1.10726 
        2.19054         4.55756         1.09952 
        2.19666         4.55072         1.09187 
         2.2028         4.53316         1.08429 
        2.20893         4.51782         1.07677 
        2.21508         4.49645         1.06932 
        2.22122         4.47592         1.06193 
        2.22736         4.46268         1.05463 
        2.23349          4.4459          1.0474 
        2.23962         4.43334         1.04023 
        2.24577         4.41232         1.03312 
         2.2519         4.40059         1.02609 
        2.25802         4.37472         1.01914 
        2.26417         4.36296         1.01223 
        2.27031         4.33948         1.00538 
        2.27644          4.3246        0.998609 
        2.28257         4.30374        0.991903 
        2.28872         4.29818        0.985246 
        2.29486         4.28103        0.978651 
        2.30099         4.26588         0.97213 
        2.30712         4.24536        0.965665 
        2.31326         4.22426        0.959247 
         2.3194         4.21197        0.952892 
        2.32553         4.20242        0.946604 
        2.33166          4.1856        0.940376 
         2.3378         4.16628        0.934195 
        2.34394         4.15299        0.928067 
        2.35007         4.13501        0.922003 
        2.35619          4.1192           0.916 
        2.36233         4.10492        0.910037 
        2.36848         4.09312        0.904114 
        2.37462         4.07997        0.898256 
        2.38075         4.06476        0.892455 
        2.38689         4.05069        0.886701 
        2.39303         4.02748        0.880998 
        2.39916         4.01622        0.875351 
        2.40529         4.00283        0.869754 
        2.41143         3.98652        0.864202 
        2.41757         3.98683        0.858696 
         2.4237         3.96369        0.853247 
        2.42983         3.94756        0.847847 
        2.43598         3.93666        0.842478 
        2.44211         3.91916        0.837165 
        2.44823          3.9056        0.831909 
        2.45437         3.89531        0.826684 
        2.46052         3.88149        0.821499 
        2.46665         3.86849        0.816368 
        2.47279         3.84558        0.811282 
        2.47892         3.83611        0.806236 
        2.48507         3.82492        0.801228 
         2.4912         3.80952        0.796272 
