# k  (h/Mpc)    P(k)  (Mpc/h)^3    P_linear(k)  (Mpc/h)^3
     0.00783031         3702.84         3753.14 
       0.013688         4363.49         4360.07 
       0.019231         4197.04         4193.24 
      0.0249154         3650.14         3681.85 
      0.0312784         3010.89         3014.89 
      0.0375637         2457.85         2446.63 
      0.0433917         2056.98         2061.53 
      0.0492413         1808.96         1804.94 
      0.0555754         1618.51          1631.5 
      0.0619321         1523.64         1512.17 
       0.067871         1399.63         1408.26 
      0.0738098         1280.67         1288.77 
      0.0800417         1132.38         1143.58 
      0.0862327          990.83         992.735 
      0.0921407         865.443         860.361 
      0.0982031         751.798         749.908 
       0.104506         680.583         667.707 
       0.110769         626.256         615.489 
       0.116806         589.689         584.164 
       0.122832         568.573         560.996 
       0.129052         536.915         535.817 
       0.135211         505.409          503.75 
       0.141259          471.27         464.717 
       0.147318         431.357         421.634 
       0.153489         387.415         379.074 
       0.159709         353.476         342.357 
       0.165845          329.56         314.669 
       0.171974         307.013         295.383 
       0.178125          294.36         282.392 
       0.184229         284.439         272.802 
        0.19034         269.636         263.512 
       0.196428         262.023         252.471 
       0.202534         251.249         238.879 
       0.208729          234.38         223.149 
       0.214876         217.633           207.1 
       0.220989         205.668         192.301 
       0.227147         191.777         179.709 
        0.23329          182.11         169.862 
       0.239377         176.015         162.487 
       0.245482          166.42         156.713 
       0.251667         163.598         151.562 
       0.257832         158.092         146.285 
       0.263955         151.911         140.439 
       0.270079         145.261         133.926 
        0.27624         140.527         127.006 
       0.282372         134.064         120.227 
        0.28843         127.415         114.062 
       0.294538         121.568         108.667 
       0.300721         118.609         104.091 
        0.30691         113.217         100.272 
       0.313033         109.955         96.9714 
       0.319153         105.074         93.8728 
       0.325316         103.248         90.7177 
        0.33145         99.1735         87.4455 
       0.337538         96.6682         84.0648 
       0.343633           92.85         80.6601 
       0.349808         89.7349         77.3199 
       0.355968         87.1291          74.226 
       0.362074         84.1549         71.4602 
       0.368217         81.5179         68.9827 
       0.374374         79.0334         66.7582 
       0.380519         77.1395         64.7068 
       0.386598         75.0086         62.7657 
       0.392688         73.4512         60.8451 
        0.39888         71.2583         58.8844 
       0.405048         69.3687         56.9373 
       0.411186         67.6016         55.0286 
       0.417313         65.4751         53.1932 
       0.423458         63.7332         51.4594 
       0.429607         62.0312         49.8423 
       0.435692         59.9138         48.3582 
       0.441815         59.0809         46.9671 
       0.447964          58.006         45.6439 
       0.454126         55.4854          44.366 
       0.460267         54.6817         43.1257 
       0.466387         53.2524         41.9127 
        0.47254         52.2864          40.714 
       0.478662         51.4442         39.5534 
       0.484765         49.8041         38.4393 
       0.490885         48.7189         37.3713 
       0.497035         48.0747         36.3496 
       0.503198         46.6935         35.3791 
       0.509342         45.5016         34.4594 
       0.515458         44.6317         33.5818 
       0.521598         43.8804         32.7299 
       0.527764         43.0096         31.8989 
       0.533884         42.2917          31.097 
           0.54         41.2907         30.3176 
       0.546137         40.7286         29.5573 
       0.552299         40.0545         28.8184 
       0.558452         38.8526         28.1075 
       0.564573         38.1787         27.4287 
       0.570708         37.6028         26.7752 
       0.576825         36.8064         26.1477 
       0.582926         36.0075          25.543 
       0.589034         35.1618         24.9564 
       0.595184         34.7065         24.3835 
       0.601379         34.0761         23.8237 
       0.607522         33.3331         23.2846 
       0.613639         33.0815         22.7632 
       0.619772         32.2427         22.2557 
       0.625918         32.0043         21.7626 
       0.632068         31.5079          21.285 
       0.638161         30.9002         20.8272 
         0.6443         30.3222         20.3808 
       0.650464         29.8032         19.9467 
       0.656582         29.5631         19.5286 
       0.662703         28.9655         19.1221 
       0.668861         28.4648         18.7242 
       0.675024         28.0014         18.3367 
       0.681124         27.5022         17.9639 
       0.687237         27.0195         17.6005 
       0.693381         26.8064         17.2457 
       0.699536         26.1505         16.9004 
       0.705665         26.1512         16.5663 
       0.711789         25.4868         16.2419 
       0.717957         25.1554         15.9241 
        0.72409         24.8114         15.6166 
       0.730186         24.4253         15.3191 
       0.736317          24.197         15.0276 
       0.742472         23.7626         14.7425 
       0.748622         23.5404         14.4651 
        0.75476         23.1581         14.1953 
       0.760888         22.7779         13.9329 
       0.767043         22.4986         13.6761 
       0.773185         22.1396         13.4264 
       0.779291         22.0295         13.1845 
       0.785407         21.7899         12.9482 
       0.791564         21.3956         12.7163 
       0.797719         20.9021         12.4903 
       0.803834         20.8787         12.2712 
       0.809972         20.6428         12.0565 
       0.816124         20.2177         11.8466 
       0.822261         20.0156         11.6422 
       0.828378         19.8541         11.4432 
       0.834502         19.6373         11.2488 
       0.840667         19.3743         11.0576 
       0.846816         19.0268         10.8713 
       0.852925         18.8488         10.6906 
       0.859047         18.6364         10.5136 
       0.865192         18.4399           10.34 
       0.871341         18.3223         10.1703 
       0.877463         17.9734         10.0052 
       0.883569          17.774          9.8441 
       0.889708         17.5367         9.68579 
       0.895864         17.3674         9.53057 
       0.902008         17.2344         9.37908 
       0.908149         17.0447         9.23099 
       0.914301          16.973         9.08586 
       0.920448         16.6506           8.944 
       0.926574         16.4969         8.80567 
       0.932687         16.3084         8.67057 
       0.938823         16.0922         8.53783 
       0.944975         15.9501         8.40757 
       0.951105         15.7882          8.2805 
       0.957225         15.6166         8.15628 
       0.963368          15.531          8.0342 
       0.969511         15.3657         7.91462 
       0.975621         15.2324         7.79812 
       0.981748         14.9997         7.68367 
       0.987916         14.9205         7.57081 
        0.99406          14.731         7.46064 
        1.00019         14.5422         7.35289 
        1.00632         14.4666         7.24737 
        1.01246          14.366         7.14377 
        1.01859         14.1165         7.04237 
        1.02471         14.0788         6.94306 
        1.03085         13.9372         6.84533 
        1.03698         13.7048         6.74969 
        1.04314         13.6321         6.65548 
        1.04929         13.4742         6.56328 
        1.05541         13.3288         6.47321 
        1.06154         13.2544          6.3846 
        1.06769         13.1791         6.29752 
        1.07382         13.0091         6.21235 
        1.07993         12.9189         6.12895 
        1.08607         12.7711         6.04675 
        1.09222          12.697         5.96596 
        1.09836          12.539         5.88675 
        1.10449         12.4525         5.80907 
        1.11063         12.3004         5.73271 
        1.11677         12.2594         5.65775 
         1.1229         12.1834         5.58426 
        1.12903         12.0183         5.51202 
        1.13518         11.8828         5.44099 
        1.14131         11.8526         5.37125 
        1.14745         11.7412         5.30278 
        1.15359         11.6672         5.23548 
        1.15973         11.5385         5.16933 
        1.16584         11.3868         5.10462 
        1.17197         11.3626         5.04093 
        1.17811         11.2503         4.97813 
        1.18424         11.1561         4.91658 
        1.19038         11.1102          4.8559 
        1.19652         11.0024         4.79626 
        1.20267         10.9085         4.73763 
        1.20881         10.8444         4.67999 
        1.21495         10.7742          4.6234 
        1.22108         10.6516         4.56776 
         1.2272         10.5641         4.51316 
        1.23334          10.497         4.45934 
        1.23949         10.3915         4.40626 
        1.24562         10.3494         4.35419 
        1.25174         10.2768         4.30305 
        1.25789         10.1859         4.25257 
        1.26402         10.1482         4.20299 
        1.27014         10.0433         4.15433 
        1.27628         9.93496         4.10629 
        1.28244         9.88001         4.05891 
        1.28858         9.85848         4.01235 
        1.29471         9.75363         3.96662 
        1.30084         9.66273         3.92164 
        1.30697         9.62045         3.87729 
        1.31312         9.50818         3.83357 
        1.31925         9.43858         3.79065 
        1.32537         9.40865         3.74843 
        1.33151         9.33972         3.70671 
        1.33765          9.2752         3.66564 
        1.34378         9.20965         3.62528 
        1.34992         9.11503          3.5855 
        1.35606         9.09435         3.54622 
         1.3622         9.03632         3.50761 
        1.36833         8.93689         3.46966 
        1.37445         8.90835          3.4323 
        1.38059          8.8459         3.39537 
        1.38675         8.74936         3.35889 
        1.39288         8.73627         3.32309 
        1.39901         8.65104         3.28784 
        1.40515         8.61381         3.25301 
         1.4113         8.54738          3.2187 
        1.41742         8.48371         3.18502 
        1.42355         8.42816         3.15176 
         1.4297         8.39978         3.11887 
        1.43585         8.35088         3.08646 
        1.44198         8.29508         3.05464 
        1.44809         8.23624         3.02332 
        1.45423         8.17948         2.99233 
        1.46036         8.12257         2.96183 
        1.46649         8.09352         2.93175 
        1.47263         8.01404         2.90205 
        1.47877         7.96899         2.87278 
        1.48491         7.94065         2.84387 
        1.49104         7.88944         2.81542 
        1.49718          7.8358         2.78733 
        1.50333          7.7943         2.75959 
        1.50947         7.73557         2.73227 
         1.5156         7.69222         2.70537 
        1.52172         7.66335         2.67882 
        1.52787          7.6062         2.65258 
          1.534         7.54935         2.62673 
        1.54013         7.50322         2.60124 
        1.54627         7.45208         2.57604 
        1.55241         7.42131         2.55118 
        1.55855         7.38193         2.52668 
        1.56467         7.32879         2.50256 
         1.5708         7.32095          2.4787 
        1.57695          7.2562          2.4551 
        1.58308         7.20613         2.43187 
        1.58922         7.18206         2.40892 
        1.59535         7.14257         2.38628 
         1.6015         7.08218          2.3639 
        1.60764         7.03956         2.34181 
        1.61376         7.02154         2.32007 
        1.61989         6.96905         2.29858 
        1.62604         6.94971         2.27732 
        1.63218         6.91216         2.25634 
        1.63831         6.86948         2.23567 
        1.64444         6.82035         2.21525 
        1.65059         6.77149         2.19504 
        1.65673          6.7713          2.1751 
        1.66285         6.69736         2.15546 
        1.66898         6.67746         2.13606 
        1.67512         6.64797         2.11686 
        1.68127          6.6088         2.09788 
         1.6874         6.57499         2.07918 
        1.69353         6.51869         2.06071 
        1.69967         6.50538         2.04242 
        1.70581         6.48131         2.02437 
        1.71193         6.42719         2.00659 
        1.71806         6.40505           1.989 
        1.72421         6.36766         1.97158 
        1.73035         6.33869         1.95439 
        1.73649         6.30971          1.9374 
        1.74262         6.27555         1.92063 
        1.74876          6.2569         1.90405 
        1.75489         6.21475          1.8877 
        1.76101         6.17144         1.87154 
        1.76715         6.15771         1.85555 
        1.77329         6.10566         1.83973 
        1.77943         6.07872         1.82408 
        1.78557         6.06876         1.80864 
        1.79171         6.03669         1.79338 
        1.79785         5.99065         1.77829 
        1.80399         5.96877         1.76337 
        1.81012         5.94761         1.74865 
        1.81625         5.91009          1.7341 
        1.82239         5.88275         1.71969 
        1.82853         5.84763         1.70545 
        1.83466         5.82035         1.69139 
        1.84078         5.79292          1.6775 
        1.84692         5.77801         1.66375 
        1.85306          5.7405         1.65013 
         1.8592         5.71007         1.63668 
        1.86533         5.69213          1.6234 
        1.87147          5.6629         1.61024 
        1.87761         5.64029         1.59722 
        1.88375         5.59266         1.58437 
        1.88988           5.594         1.57166 
        1.89601         5.56209         1.55909 
        1.90215         5.53014         1.54665 
        1.90829         5.50203         1.53435 
        1.91442         5.47662         1.52218 
        1.92056         5.46186         1.51015 
         1.9267         5.42967         1.49824 
        1.93284         5.39904         1.48645 
        1.93897         5.37368         1.47481 
        1.94509         5.35765         1.46332 
        1.95123         5.33617         1.45192 
        1.95737         5.30773         1.44064 
        1.96349         5.28925          1.4295 
        1.96964         5.25442         1.41845 
        1.97578         5.23077         1.40751 
        1.98192         5.21573         1.39671 
        1.98805         5.19553         1.38602 
        1.99419         5.16342         1.37544 
        2.00033         5.15236         1.36497 
        2.00647         5.12283         1.35461 
         2.0126         5.10332         1.34437 
        2.01874         5.08267         1.33422 
        2.02488         5.05516         1.32417 
        2.03101         5.03735         1.31424 
        2.03714         5.00457         1.30442 
        2.04328         4.99441         1.29469 
        2.04941         4.95913         1.28507 
        2.05554         4.95397         1.27555 
        2.06167         4.91986         1.26611 
        2.06781         4.91085         1.25677 
        2.07396         4.89562         1.24751 
        2.08009         4.87223         1.23836 
        2.08622         4.83894         1.22931 
        2.09237         4.82838         1.22033 
        2.09851         4.81365         1.21144 
        2.10464         4.78629         1.20266 
        2.11077         4.75665         1.19397 
        2.11691         4.73857         1.18534 
        2.12305         4.72574         1.17681 
        2.12918         4.71131         1.16837 
        2.13531         4.68962         1.16002 
        2.14145         4.66821         1.15173 
         2.1476         4.65324         1.14351 
        2.15372         4.63298         1.13542 
        2.15985         4.62268         1.12739 
        2.16599         4.59527         1.11942 
        2.17213          4.5772         1.11153 
        2.17827         4.56534         1.10372 
         2.1844         4.54429         1.09599 
        2.19054          4.5114         1.08833 
        2.19666         4.50462         1.08076 
         2.2028         4.48725         1.07325 
        2.20893         4.47206         1.06581 
        2.21508          4.4509         1.05843 
        2.22122         4.43058         1.05112 
        2.22736         4.41748          1.0439 
        2.23349         4.40086         1.03674 
        2.23962         4.38843         1.02964 
        2.24577         4.36763         1.02261 
         2.2519         4.35602         1.01565 
        2.25802         4.33041         1.00877 
        2.26417         4.31877         1.00193 
        2.27031         4.29552        0.995146 
        2.27644          4.2808        0.988446 
        2.28257         4.26015        0.981808 
        2.28872         4.25464        0.975219 
        2.29486         4.23767        0.968691 
        2.30099         4.22267        0.962236 
        2.30712         4.20236        0.955837 
        2.31326         4.18147        0.949485 
         2.3194         4.16931        0.943194 
        2.32553         4.15985         0.93697 
        2.33166          4.1432        0.930805 
         2.3378         4.12408        0.924687 
        2.34394         4.11092        0.918622 
        2.35007         4.09313         0.91262 
        2.35619         4.07747        0.906678 
        2.36233         4.06334        0.900775 
        2.36848         4.05167        0.894912 
        2.37462         4.03864        0.889114 
        2.38075         4.02359        0.883373 
        2.38689         4.00966        0.877677 
        2.39303         3.98669        0.872032 
        2.39916         3.97554        0.866443 
        2.40529         3.96229        0.860903 
        2.41143         3.94615        0.855407 
        2.41757         3.94645        0.849957 
         2.4237         3.92354        0.844564 
        2.42983         3.90758        0.839218 
        2.43598         3.89679        0.833904 
        2.44211         3.87946        0.828645 
        2.44823         3.86604        0.823443 
        2.45437         3.85586        0.818271 
        2.46052         3.84217        0.813139 
        2.46665         3.82931         0.80806 
        2.47279         3.80663        0.803026 
        2.47892         3.79725        0.798031 
        2.48507         3.78618        0.793074 
         2.4912         3.77093        0.788168 
