# k  (h/Mpc)    Pcb(k)  (Mpc/h)^3    Pcb_linear(k)  (Mpc/h)^3
     0.00783031         424.621         428.733 
       0.013688         525.209         526.946 
       0.019231         525.306         525.607 
      0.0249154         474.229         476.019 
      0.0312784         403.364         403.212 
      0.0375637         340.095         339.133 
      0.0433917         295.641         295.504 
      0.0492413         266.707         266.323 
      0.0555754         245.057         245.612 
      0.0619321         229.613         229.056 
       0.067871         211.989         212.447 
      0.0738098         192.408          192.89 
      0.0800417         169.694         170.282 
      0.0862327         148.432         148.519 
      0.0921407         131.048         130.897 
      0.0982031         117.256          117.31 
       0.104506         108.308         107.868 
       0.110769         102.146         101.892 
       0.116806         97.4275         97.5986 
       0.122832         93.2428         93.1816 
       0.129052         87.2894         87.5123 
       0.135211         80.4934         80.7047 
       0.141259         73.5871         73.4954 
       0.147318         66.9593         66.6452 
       0.153489         60.9942         60.7942 
       0.159709         56.5935         56.3807 
       0.165845         53.8215         53.3643 
       0.171974         51.3593         51.2413 
       0.178125         49.5943         49.4455 
       0.184229          47.733         47.5174 
        0.19034         45.1387         45.1882 
       0.196428         42.6384         42.4866 
       0.202534         40.0146         39.6153 
       0.208729         37.1225          36.838 
       0.214876         34.6376         34.4606 
       0.220989         32.9772         32.5778 
       0.227147         31.3059          31.132 
        0.23329         30.1674         29.9995 
       0.239377         29.2056         29.0044 
       0.245482         28.0668         27.9793 
       0.251667         27.0687         26.8251 
       0.257832         25.7631         25.5569 
       0.263955         24.4958         24.2492 
       0.270079         23.2601          22.985 
        0.27624         22.2293         21.8401 
       0.282372         21.2558         20.8681 
        0.28843         20.3696         20.0663 
       0.294538         19.6673         19.3788 
       0.300721         19.1174          18.747 
        0.30691         18.3987         18.1263 
       0.313033         17.7686         17.4887 
       0.319153         16.9713         16.8247 
       0.325316          16.491         16.1436 
        0.33145         15.8022         15.4838 
       0.337538         15.1997         14.8718 
       0.343633         14.6056         14.3192 
       0.349808         14.1464         13.8218 
       0.355968         13.7064         13.3774 
       0.362074         13.2736         12.9707 
       0.368217         12.8822         12.5763 
       0.374374         12.4397         12.1845 
       0.380519         12.0946         11.7909 
       0.386598         11.7253         11.4026 
       0.392688         11.3794          11.023 
        0.39888         10.9862         10.6541 
       0.405048         10.6592         10.3107 
       0.411186         10.3527         9.99514 
       0.417313          10.021         9.70251 
       0.423458          9.7654         9.42714 
       0.429607         9.47294         9.16389 
       0.435692         9.21171         8.90977 
       0.441815         8.96966          8.6584 
       0.447964         8.76426         8.41079 
       0.454126         8.46832         8.16852 
       0.460267         8.24525         7.93534 
       0.466387         7.99663         7.71384 
        0.47254         7.81001         7.50296 
       0.478662         7.62857         7.30392 
       0.484765         7.41038         7.11498 
       0.490885         7.23099         6.93349 
       0.497035          7.1035         6.75732 
       0.503198         6.90443         6.58542 
       0.509342         6.74313         6.41808 
       0.515458         6.56341         6.25615 
       0.521598         6.41429         6.09882 
       0.527764         6.24332          5.9465 
       0.533884         6.12783         5.80101 
           0.54         5.97701         5.66136 
       0.546137         5.84919         5.52682 
       0.552299         5.71994         5.39686 
       0.558452         5.56307         5.27148 
       0.564573         5.46393         5.15037 
       0.570708         5.34346         5.03223 
       0.576825         5.21179          4.9177 
       0.582926         5.11521          4.8069 
       0.589034         4.96961         4.69944 
       0.595184         4.87826         4.59481 
       0.601379         4.77059         4.49287 
       0.607522         4.69241         4.39502 
       0.613639         4.61388         4.30064 
       0.619772          4.4898          4.2089 
       0.625918         4.41822         4.11973 
       0.632068         4.34352         4.03313 
       0.638161         4.23912         3.94978 
         0.6443         4.15298         3.86815 
       0.650464         4.05955         3.78848 
       0.656582         4.00341         3.71159 
       0.662703         3.92552         3.63682 
       0.668861         3.86077         3.56372 
       0.675024         3.77613         3.49262 
       0.681124         3.69892         3.42427 
       0.687237         3.64359         3.35768 
       0.693381         3.57846         3.29261 
       0.699536         3.48685         3.22918 
       0.705665         3.43204         3.16772 
       0.711789         3.37794         3.10791 
       0.717957          3.3104         3.04924 
        0.72409         3.25397          2.9924 
       0.730186         3.19734         2.93736 
       0.736317         3.16176         2.88341 
       0.742472         3.10436         2.83063 
       0.748622         3.04354         2.77923 
        0.75476         2.98082         2.72924 
       0.760888         2.93383         2.68058 
       0.767043         2.90054         2.63292 
       0.773185         2.83872         2.58655 
       0.779291         2.80022         2.54157 
       0.785407         2.75243          2.4976 
       0.791564         2.71068         2.45442 
       0.797719          2.6708         2.41229 
       0.803834         2.63287         2.37142 
       0.809972         2.59029         2.33137 
       0.816124         2.54178         2.29216 
       0.822261         2.49616         2.25398 
       0.828378         2.46494         2.21678 
       0.834502         2.43611         2.18041 
       0.840667         2.38391         2.14463 
       0.846816          2.3482         2.10976 
       0.852925         2.32518         2.07589 
       0.859047         2.28896          2.0427 
       0.865192          2.2533         2.01014 
       0.871341          2.2221         1.97828 
       0.877463         2.19502         1.94726 
       0.883569         2.15451         1.91698 
       0.889708         2.12252         1.88721 
       0.895864         2.09335           1.858 
       0.902008         2.06017         1.82947 
       0.908149         2.03442         1.80157 
       0.914301         1.99554          1.7742 
       0.920448         1.97151         1.74744 
       0.926574         1.94261         1.72133 
       0.932687         1.91719         1.69581 
       0.938823         1.89821         1.67073 
       0.944975         1.87024          1.6461 
       0.951105         1.84687         1.62205 
       0.957225         1.82957         1.59854 
       0.963368          1.8017         1.57541 
       0.969511         1.77351         1.55275 
       0.975621         1.74627         1.53065 
       0.981748         1.73085         1.50893 
       0.987916          1.7055          1.4875 
        0.99406         1.67914         1.46658 
        1.00019         1.66352         1.44609 
        1.00632         1.63729         1.42603 
        1.01246         1.61757         1.40631 
        1.01859         1.59969         1.38701 
        1.02471          1.5771         1.36809 
        1.03085         1.56137         1.34947 
        1.03698         1.53819         1.33123 
        1.04314         1.52182         1.31326 
        1.04929         1.50087         1.29566 
        1.05541         1.48519         1.27846 
        1.06154         1.46511         1.26153 
        1.06769          1.4481         1.24489 
        1.07382         1.43064          1.2286 
        1.07993         1.40905         1.21265 
        1.08607         1.40048         1.19691 
        1.09222         1.37977         1.18145 
        1.09836         1.36935         1.16627 
        1.10449         1.35261         1.15138 
        1.11063         1.33164         1.13674 
        1.11677         1.31556         1.12236 
         1.1229         1.30187         1.10826 
        1.12903         1.28549         1.09439 
        1.13518         1.27468         1.08074 
        1.14131         1.25661         1.06734 
        1.14745         1.23556         1.05418 
        1.15359         1.22855         1.04123 
        1.15973         1.20926          1.0285 
        1.16584         1.20482         1.01605 
        1.17197          1.1885         1.00378 
        1.17811         1.17696        0.991676 
        1.18424         1.16722         0.97981 
        1.19038         1.15016        0.968106 
        1.19652         1.13637        0.956598 
        1.20267         1.12865        0.945278 
        1.20881         1.11212        0.934145 
        1.21495         1.10439         0.92321 
        1.22108         1.09217        0.912453 
         1.2272         1.08317        0.901894 
        1.23334         1.06876        0.891479 
        1.23949         1.05735        0.881205 
        1.24562         1.04813        0.871123 
        1.25174         1.03721        0.861214 
        1.25789         1.02732        0.851431 
        1.26402         1.01302        0.841818 
        1.27014         1.00334        0.832379 
        1.27628        0.998068        0.823057 
        1.28244        0.982714        0.813861 
        1.28858        0.974476        0.804818 
        1.29471        0.966111        0.795935 
        1.30084        0.954494        0.787194 
        1.30697        0.945683        0.778573 
        1.31312        0.932394        0.770069 
        1.31925        0.926916         0.76172 
        1.32537        0.918663        0.753505 
        1.33151         0.91108        0.745381 
        1.33765         0.90086        0.737384 
        1.34378        0.889713         0.72952 
        1.34992        0.884703        0.721766 
        1.35606        0.873749        0.714109 
         1.3622         0.86717        0.706578 
        1.36833        0.858103        0.699174 
        1.37445         0.84758         0.69188 
        1.38059        0.840632        0.684669 
        1.38675         0.83866        0.677543 
        1.39288        0.826665        0.670549 
        1.39901        0.819297        0.663656 
        1.40515        0.812416        0.656846 
         1.4113        0.803567        0.650134 
        1.41742        0.796483        0.643543 
        1.42355        0.793387        0.637031 
         1.4297         0.78225         0.63059 
        1.43585        0.775978        0.624241 
        1.44198        0.772525        0.618005 
        1.44809        0.761816        0.611866 
        1.45423         0.75594        0.605788 
        1.46036        0.749391        0.599804 
        1.46649        0.742981        0.593899 
        1.47263        0.735611         0.58807 
        1.47877        0.728552        0.582322 
        1.48491        0.722695        0.576642 
        1.49104        0.715468         0.57105 
        1.49718        0.711246        0.565529 
        1.50333        0.704175        0.560072 
        1.50947         0.69913        0.554699 
         1.5156        0.692268        0.549404 
        1.52172        0.686466         0.54418 
        1.52787        0.680053        0.539013 
          1.534        0.675563         0.53392 
        1.54013        0.667799        0.528898 
        1.54627        0.662852        0.523932 
        1.55241         0.65693         0.51903 
        1.55855        0.651278        0.514198 
        1.56467        0.648372        0.509441 
         1.5708        0.640839        0.504731 
        1.57695         0.63733        0.500073 
        1.58308        0.631459        0.495486 
        1.58922        0.626339        0.490953 
        1.59535        0.621097        0.486479 
         1.6015        0.616244        0.482055 
        1.60764        0.611891        0.477688 
        1.61376        0.605179        0.473387 
        1.61989        0.601831        0.469137 
        1.62604        0.596614        0.464929 
        1.63218        0.593132        0.460776 
        1.63831         0.58761        0.456683 
        1.64444        0.582581        0.452639 
        1.65059        0.578488        0.448635 
        1.65673        0.573589        0.444683 
        1.66285        0.569317        0.440791 
        1.66898        0.566213        0.436944 
        1.67512        0.559814        0.433136 
        1.68127        0.555638        0.429369 
         1.6874         0.55324        0.425657 
        1.69353        0.547671         0.42199 
        1.69967        0.543897        0.418359 
        1.70581        0.539708        0.414772 
        1.71193        0.535732         0.41124 
        1.71806        0.531642        0.407743 
        1.72421        0.527815        0.404279 
        1.73035        0.523079         0.40086 
        1.73649        0.520681        0.397481 
        1.74262        0.516505        0.394144 
        1.74876        0.512015        0.390844 
        1.75489        0.508186        0.387588 
        1.76101        0.504098         0.38437 
        1.76715        0.500746        0.381185 
        1.77329        0.497287        0.378032 
        1.77943        0.493191        0.374914 
        1.78557        0.490029        0.371836 
        1.79171        0.486951        0.368791 
        1.79785        0.483132        0.365781 
        1.80399          0.4796        0.362805 
        1.81012        0.476575        0.359866 
        1.81625        0.472893        0.356961 
        1.82239        0.470317        0.354084 
        1.82853        0.465056         0.35124 
        1.83466        0.462873         0.34843 
        1.84078        0.458975        0.345654 
        1.84692        0.456732        0.342904 
        1.85306        0.453725        0.340181 
         1.8592        0.450539        0.337492 
        1.86533        0.447662        0.334833 
        1.87147        0.444247          0.3322 
        1.87761        0.441736        0.329595 
        1.88375        0.437187         0.32702 
        1.88988        0.435352        0.324476 
        1.89601        0.431777        0.321958 
        1.90215        0.429384        0.319465 
        1.90829        0.425944        0.316999 
        1.91442        0.423379        0.314559 
        1.92056        0.420485        0.312147 
         1.9267        0.417288        0.309759 
        1.93284        0.414858        0.307394 
        1.93897        0.412256        0.305058 
        1.94509        0.409748        0.302751 
        1.95123        0.406278        0.300463 
        1.95737        0.404377        0.298197 
        1.96349        0.401116         0.29596 
        1.96964        0.398684         0.29374 
        1.97578        0.395864        0.291541 
        1.98192        0.394316         0.28937 
        1.98805        0.391371        0.287221 
        1.99419        0.388571        0.285093 
        2.00033        0.386677        0.282986 
        2.00647        0.383903        0.280901 
         2.0126        0.381121        0.278841 
        2.01874        0.379143        0.276798 
        2.02488        0.377058        0.274774 
        2.03101        0.373899        0.272774 
        2.03714        0.371292        0.270796 
        2.04328        0.369758        0.268835 
        2.04941        0.367329        0.266896 
        2.05554        0.364827        0.264977 
        2.06167        0.362928        0.263074 
        2.06781        0.359467         0.26119 
        2.07396        0.357398        0.259322 
        2.08009        0.355479        0.257476 
        2.08622        0.353547        0.255649 
        2.09237        0.352343        0.253837 
        2.09851        0.349947        0.252042 
        2.10464        0.347606        0.250268 
        2.11077        0.345326        0.248512 
        2.11691        0.343022         0.24677 
        2.12305        0.341037        0.245045 
        2.12918        0.339126         0.24334 
        2.13531        0.336846        0.241651 
        2.14145        0.335165        0.239975 
         2.1476        0.333138        0.238312 
        2.15372         0.33177        0.236674 
        2.15985        0.329018        0.235049 
        2.16599        0.326733        0.233436 
        2.17213        0.325417        0.231839 
        2.17827        0.323832        0.230257 
         2.1844        0.322085        0.228692 
        2.19054        0.319909        0.227141 
        2.19666        0.317492        0.225606 
         2.2028        0.316361        0.224084 
        2.20893        0.314567        0.222576 
        2.21508        0.312224         0.22108 
        2.22122        0.310082        0.219597 
        2.22736        0.308763        0.218131 
        2.23349        0.307415        0.216679 
        2.23962        0.305791        0.215239 
        2.24577        0.303101        0.213811 
         2.2519        0.302284        0.212398 
        2.25802        0.300034        0.211001 
        2.26417        0.298385        0.209612 
        2.27031        0.296542        0.208234 
        2.27644        0.295398        0.206872 
        2.28257        0.293488        0.205523 
        2.28872        0.291918        0.204184 
        2.29486        0.290166        0.202856 
        2.30099        0.288655        0.201544 
        2.30712        0.287463        0.200242 
        2.31326        0.285304         0.19895 
         2.3194        0.285034         0.19767 
        2.32553          0.2833        0.196403 
        2.33166        0.281659        0.195148 
         2.3378         0.28017        0.193902 
        2.34394        0.277697        0.192667 
        2.35007        0.276576        0.191444 
        2.35619        0.275107        0.190234 
        2.36233        0.273074        0.189031 
        2.36848        0.272321        0.187836 
        2.37462        0.270502        0.186654 
        2.38075        0.269809        0.185484 
        2.38689        0.267843        0.184322 
        2.39303        0.267055        0.183171 
        2.39916        0.264795         0.18203 
        2.40529        0.263654          0.1809 
        2.41143         0.26253        0.179778 
        2.41757         0.26104        0.178666 
         2.4237        0.259765        0.177565 
        2.42983        0.258467        0.176473 
        2.43598        0.257554        0.175388 
        2.44211        0.256049        0.174313 
        2.44823        0.255046         0.17325 
        2.45437        0.252781        0.172193 
        2.46052        0.252302        0.171144 
        2.46665        0.250648        0.170106 
        2.47279        0.249343        0.169076 
        2.47892        0.248071        0.168055 
        2.48507        0.246911        0.167041 
         2.4912         0.24584        0.166037 
