# k  (h/Mpc)    Pcb(k)  (Mpc/h)^3    Pcb_linear(k)  (Mpc/h)^3
     0.00783031         9940.12         10069.1 
       0.013688         12662.5         12579.4 
       0.019231         12888.6         12870.4 
      0.0249154         11806.7         12011.2 
      0.0312784         10382.6         10473.8 
      0.0375637          8934.1         8933.09 
      0.0433917         7642.38         7750.99 
      0.0492413         6837.48         6871.81 
      0.0555754         6070.06         6219.79 
      0.0619321            5784         5767.16 
       0.067871         5297.76         5416.96 
      0.0738098         4940.94         5056.91 
      0.0800417         4477.14         4628.61 
      0.0862327         4069.78         4159.42 
      0.0921407         3683.55         3708.16 
      0.0982031         3254.01         3286.13 
       0.104506         2987.37         2926.36 
       0.110769         2722.96         2661.12 
       0.116806         2531.87         2483.48 
       0.122832         2415.01         2360.07 
       0.129052         2264.44         2260.03 
       0.135211         2167.47         2161.41 
       0.141259          2082.1         2048.17 
       0.147318         1964.56         1914.33 
       0.153489         1800.96         1764.29 
       0.159709         1685.52         1613.24 
       0.165845         1593.44          1478.5 
       0.171974         1483.43         1367.41 
       0.178125         1403.24          1282.2 
       0.184229         1342.24         1220.38 
        0.19034         1262.39         1173.95 
       0.196428         1244.24         1134.36 
       0.202534         1207.16         1093.65 
       0.208729         1151.75         1046.42 
       0.214876         1095.48          992.65 
       0.220989         1057.47          934.75 
       0.227147         1000.96         876.317 
        0.23329         955.882         822.352 
       0.239377         932.063         776.206 
       0.245482         869.194         738.338 
       0.251667         861.404           707.8 
       0.257832         830.152         682.979 
       0.263955         804.195         661.098 
       0.270079         776.397         639.482 
        0.27624         768.085         616.315 
       0.282372         736.081         591.352 
        0.28843         720.219         565.389 
       0.294538         684.296         539.088 
       0.300721         679.633         513.778 
        0.30691         648.505         490.831 
       0.313033         635.426         471.044 
       0.319153         617.054         454.023 
       0.325316         598.786         439.113 
        0.33145          582.53         425.622 
       0.337538          574.79          412.77 
       0.343633         557.278         399.806 
       0.349808         538.858         386.334 
       0.355968         534.212         372.592 
       0.362074         524.447         359.001 
       0.368217         509.796         345.774 
       0.374374         489.195         333.318 
       0.380519         485.767         321.935 
       0.386598         473.734         311.709 
       0.392688         470.965         302.388 
        0.39888          457.32         293.608 
       0.405048         448.386         285.275 
       0.411186         440.239         277.186 
       0.417313          432.04          269.17 
       0.423458          424.32         261.152 
       0.429607         416.094         253.235 
       0.435692         406.221         245.601 
       0.441815         403.096         238.225 
       0.447964         394.851         231.232 
       0.454126         383.639         224.664 
       0.460267         378.071         218.522 
       0.466387          373.78         212.754 
        0.47254         366.315         207.226 
       0.478662         365.206         201.905 
       0.484765         353.626         196.725 
       0.490885          349.95          191.64 
       0.497035         343.865         186.632 
       0.503198         337.909         181.734 
       0.509342         335.244         177.009 
       0.515458         331.304         172.494 
       0.521598         324.597         168.161 
       0.527764         319.164         164.002 
       0.533884         316.562         160.056 
           0.54         312.128         156.274 
       0.546137         310.823         152.613 
       0.552299         304.407         149.044 
       0.558452         302.063          145.57 
       0.564573         297.378         142.202 
       0.570708         292.091         138.917 
       0.576825         287.511         135.738 
       0.582926         284.906         132.664 
       0.589034         282.092         129.687 
       0.595184         279.322         126.794 
       0.601379         276.211         123.986 
       0.607522         271.374         121.299 
       0.613639         270.097          118.71 
       0.619772         263.949         116.189 
       0.625918           262.7         113.731 
       0.632068         258.911         111.336 
       0.638161         257.816         109.028 
         0.6443         253.554         106.766 
       0.650464         251.143          104.56 
       0.656582          249.52         102.433 
       0.662703         247.582         100.366 
       0.668861         243.226         98.3456 
       0.675024         240.561         96.3827 
       0.681124         239.599         94.4964 
       0.687237         236.433         92.6594 
       0.693381         232.956         90.8641 
       0.699536         231.159         89.1137 
       0.705665         229.882         87.4162 
       0.711789         226.886         85.7628 
       0.717957         225.839         84.1396 
        0.72409         223.199         82.5666 
       0.730186         220.535         81.0432 
       0.736317         218.338         79.5507 
       0.742472         217.291         78.0914 
       0.748622         215.508         76.6715 
        0.75476         213.767         75.2914 
       0.760888         210.837         73.9482 
       0.767043          210.57         72.6331 
       0.773185         208.052         71.3531 
       0.779291         204.404         70.1112 
       0.785407         203.931         68.8969 
       0.791564         201.986         67.7036 
       0.797719         199.476          66.539 
       0.803834         198.471         65.4093 
       0.809972         196.946         64.3019 
       0.816124         196.868         63.2179 
       0.822261         194.044         62.1622 
       0.828378         192.411         61.1342 
       0.834502         192.148         60.1289 
       0.840667          189.14         59.1401 
       0.846816         187.846         58.1766 
       0.852925         186.989         57.2409 
       0.859047         185.043          56.324 
       0.865192         183.559         55.4244 
       0.871341         181.872         54.5439 
       0.877463         180.642         53.6866 
       0.883569         179.699         52.8501 
       0.889708         178.127         52.0272 
       0.895864         176.011         51.2198 
       0.902008         175.332         50.4313 
       0.908149         174.638           49.66 
       0.914301         172.616         48.9037 
       0.920448         171.342          48.164 
       0.926574         170.471         47.4423 
       0.932687         170.022          46.737 
       0.938823         167.833         46.0436 
       0.944975         166.321         45.3628 
       0.951105         165.723         44.6983 
       0.957225         163.962         44.0484 
       0.963368         162.283         43.4093 
       0.969511         161.844          42.783 
       0.975621         160.861         42.1725 
       0.981748         160.347         41.5724 
       0.987916         158.467         40.9803 
        0.99406         157.362         40.4021 
        1.00019         157.109         39.8362 
        1.00632         155.596         39.2818 
        1.01246         154.657         38.7372 
        1.01859         153.633         38.2039 
        1.02471         152.454         37.6813 
        1.03085          150.94         37.1668 
        1.03698         150.306         36.6631 
        1.04314         149.058         36.1667 
        1.04929         148.026         35.6806 
        1.05541         147.514         35.2055 
        1.06154         146.458          34.738 
        1.06769         146.351         34.2782 
        1.07382         145.113         33.8284 
        1.07993         143.867         33.3877 
        1.08607         142.972         32.9531 
        1.09222         142.407         32.5258 
        1.09836         141.155         32.1067 
        1.10449         140.035         31.6955 
        1.11063         139.086         31.2911 
        1.11677         138.777         30.8939 
         1.1229         137.326         30.5043 
        1.12903         136.665         30.1211 
        1.13518         136.528         29.7442 
        1.14131          135.07         29.3741 
        1.14745         134.526         29.0104 
        1.15359         133.563         28.6529 
        1.15973         133.187         28.3013 
        1.16584         131.803         27.9572 
        1.17197          131.23         27.6183 
        1.17811         130.486         27.2841 
        1.18424         129.827         26.9564 
        1.19038         129.389         26.6332 
        1.19652         128.428         26.3154 
        1.20267          127.61         26.0028 
        1.20881         126.636         25.6954 
        1.21495          126.05         25.3935 
        1.22108         125.447         25.0966 
         1.2272         124.341          24.805 
        1.23334         123.823         24.5175 
        1.23949         122.685         24.2339 
        1.24562         122.312         23.9556 
        1.25174         121.164         23.6821 
        1.25789         120.772         23.4121 
        1.26402         120.167         23.1467 
        1.27014         119.403         22.8862 
        1.27628         118.825         22.6289 
        1.28244         118.217         22.3751 
        1.28858          117.77         22.1256 
        1.29471         116.521         21.8804 
        1.30084         116.162         21.6392 
        1.30697         115.431         21.4012 
        1.31312         115.084         21.1666 
        1.31925         114.042         20.9362 
        1.32537         113.637         20.7094 
        1.33151         112.534         20.4853 
        1.33765         112.209         20.2646 
        1.34378         111.493         20.0476 
        1.34992         111.312         19.8336 
        1.35606         110.527         19.6223 
         1.3622         109.642         19.4145 
        1.36833         109.245         19.2102 
        1.37445          108.51          19.009 
        1.38059         108.065           18.81 
        1.38675         107.231         18.6134 
        1.39288         106.852         18.4204 
        1.39901         106.477         18.2303 
        1.40515         105.736         18.0424 
         1.4113          104.86         17.8572 
        1.41742         104.758         17.6754 
        1.42355          103.91         17.4958 
         1.4297         103.397         17.3181 
        1.43585         102.624          17.143 
        1.44198         102.377         16.9709 
        1.44809         101.634         16.8016 
        1.45423         101.002          16.634 
        1.46036         100.812         16.4689 
        1.46649         100.127         16.3061 
        1.47263         99.5699         16.1453 
        1.47877         99.2766         15.9868 
        1.48491         98.3867         15.8302 
        1.49104         98.0862          15.676 
        1.49718         97.3725         15.5238 
        1.50333         96.9278         15.3733 
        1.50947         96.4467         15.2252 
         1.5156         95.9457         15.0792 
        1.52172         95.3549         14.9352 
        1.52787         95.0895         14.7927 
          1.534         94.4384         14.6523 
        1.54013         93.8056         14.5139 
        1.54627         93.4712          14.377 
        1.55241         92.9023         14.2419 
        1.55855          92.596         14.1087 
        1.56467         92.0709         13.9775 
         1.5708         91.4776         13.8477 
        1.57695         91.3407         13.7194 
        1.58308         90.3559         13.5929 
        1.58922         90.3373          13.468 
        1.59535         89.8419         13.3447 
         1.6015         89.2336         13.2228 
        1.60764         88.7984         13.1024 
        1.61376         88.5121         12.9839 
        1.61989         87.9111         12.8668 
        1.62604         87.6216         12.7508 
        1.63218         87.1666         12.6364 
        1.63831          86.451         12.5236 
        1.64444         86.1645         12.4122 
        1.65059         85.6054         12.3018 
        1.65673           85.05          12.193 
        1.66285         84.8435         12.0857 
        1.66898         84.2847         11.9797 
        1.67512         83.8479         11.8748 
        1.68127         83.4628          11.771 
         1.6874         83.0662         11.6688 
        1.69353         82.6233         11.5678 
        1.69967         82.0599         11.4677 
        1.70581          81.925         11.3689 
        1.71193          81.616         11.2716 
        1.71806         80.9033         11.1753 
        1.72421         80.5856         11.0799 
        1.73035         80.1615         10.9857 
        1.73649          79.764         10.8927 
        1.74262         79.3996         10.8008 
        1.74876         79.0332         10.7099 
        1.75489         78.4174         10.6202 
        1.76101         78.2256         10.5316 
        1.76715         77.7419         10.4439 
        1.77329         77.4526         10.3571 
        1.77943         76.8964         10.2713 
        1.78557         76.7279         10.1865 
        1.79171         76.1898         10.1027 
        1.79785         75.8859         10.0198 
        1.80399         75.5754         9.93787 
        1.81012         75.2679         9.85696 
        1.81625         74.7045           9.777 
        1.82239         74.4036          9.6978 
        1.82853         74.1337         9.61952 
        1.83466         73.6826         9.54219 
        1.84078         73.4015         9.46579 
        1.84692         72.8356          9.3901 
        1.85306         72.5345         9.31515 
         1.8592         72.0678         9.24113 
        1.86533         71.8416         9.16796 
        1.87147         71.3349          9.0955 
        1.87761         71.0981          9.0238 
        1.88375         70.7534         8.95295 
        1.88988         70.4814         8.88294 
        1.89601         70.0162         8.81364 
        1.90215         69.7192         8.74503 
        1.90829         69.4928         8.67718 
        1.91442         69.0417         8.61005 
        1.92056         68.5301         8.54369 
         1.9267         68.4038         8.47797 
        1.93284         67.9266         8.41289 
        1.93897         67.5385         8.34863 
        1.94509          67.231         8.28518 
        1.95123         66.9579         8.22222 
        1.95737         66.7676         8.15988 
        1.96349         66.2258         8.09835 
        1.96964         66.0344         8.03727 
        1.97578         65.7518          7.9768 
        1.98192         65.3682         7.91708 
        1.98805         65.2138         7.85796 
        1.99419         64.6793         7.79944 
        2.00033         64.4093         7.74149 
        2.00647         64.1762         7.68415 
         2.0126         63.6651         7.62748 
        2.01874         63.4203         7.57131 
        2.02488         63.2395         7.51565 
        2.03101         62.9327         7.46065 
        2.03714         62.5237         7.40626 
        2.04328         62.3327         7.35235 
        2.04941         61.9364         7.29902 
        2.05554          61.618         7.24626 
        2.06167         61.3592         7.19395 
        2.06781         61.0991         7.14215 
        2.07396         60.7343         7.09079 
        2.08009         60.5227         7.04002 
        2.08622         60.2281         6.98981 
        2.09237         59.8608         6.93999 
        2.09851         59.7039         6.89066 
        2.10464         59.3105         6.84188 
        2.11077         58.9606         6.79363 
        2.11691         58.7315         6.74575 
        2.12305         58.4835         6.69832 
        2.12918         58.1818         6.65147 
        2.13531         57.8547         6.60506 
        2.14145         57.6003         6.55898 
         2.1476         57.3978          6.5133 
        2.15372         57.0807         6.46827 
        2.15985         56.7575         6.42363 
        2.16599         56.4938         6.37928 
        2.17213         56.2789          6.3354 
        2.17827         55.9781         6.29195 
         2.1844         55.6417         6.24894 
        2.19054         55.3448         6.20632 
        2.19666         55.1354         6.16415 
         2.2028         55.0163         6.12234 
        2.20893         54.7406          6.0809 
        2.21508         54.4214          6.0398 
        2.22122         54.1864         5.99907 
        2.22736         53.9558         5.95879 
        2.23349         53.7066          5.9189 
        2.23962         53.3275         5.87935 
        2.24577         53.0478         5.84013 
         2.2519         52.7685         5.80132 
        2.25802         52.6884         5.76292 
        2.26417         52.3378         5.72477 
        2.27031         52.1578         5.68693 
        2.27644         51.8786         5.64954 
        2.28257         51.6091         5.61249 
        2.28872         51.3265          5.5757 
        2.29486         51.1492         5.53925 
        2.30099         50.9412         5.50321 
        2.30712         50.6869         5.46746 
        2.31326         50.3615         5.43197 
         2.3194         50.1358         5.39683 
        2.32553         49.8775         5.36205 
        2.33166          49.676         5.32759 
         2.3378         49.3845         5.29338 
        2.34394         49.0961         5.25947 
        2.35007         48.8475          5.2259 
        2.35619         48.7388         5.19267 
        2.36233         48.6231         5.15965 
        2.36848         48.2339         5.12685 
        2.37462         48.0304          5.0944 
        2.38075         47.8213         5.06227 
        2.38689         47.6533         5.03038 
        2.39303         47.4291         4.99878 
        2.39916         47.2178         4.96748 
        2.40529         46.9694         4.93645 
        2.41143         46.7654         4.90567 
        2.41757         46.4875         4.87513 
         2.4237         46.3784         4.84491 
        2.42983         46.1033         4.81495 
        2.43598         45.8357         4.78517 
        2.44211         45.6712         4.75569 
        2.44823         45.4203         4.72652 
        2.45437         45.2465         4.69751 
        2.46052         44.9048         4.66873 
        2.46665         44.7711         4.64024 
        2.47279         44.6257         4.61199 
        2.47892         44.4111         4.58397 
        2.48507          44.151         4.55615 
         2.4912         44.0219         4.52861 
