# k  (h/Mpc)    Pcb(k)  (Mpc/h)^3    Pcb_linear(k)  (Mpc/h)^3
     0.00783031         12361.6           12532 
       0.013688         15505.6         15387.6 
       0.019231           15539           15514 
      0.0249154         14042.2         14309.2 
      0.0312784         12267.5         12387.6 
      0.0375637         10568.1         10569.7 
      0.0433917         9081.34         9229.45 
      0.0492413         8200.48         8255.05 
      0.0555754          7311.8         7523.23 
      0.0619321         6980.11         6971.59 
       0.067871         6327.83         6493.05 
      0.0738098         5826.91         5977.19 
      0.0800417         5198.23         5383.43 
      0.0862327         4681.69         4779.97 
      0.0921407         4235.62         4246.71 
      0.0982031         3764.65         3787.72 
       0.104506         3511.12         3425.13 
       0.110769         3245.66         3170.65 
       0.116806         3050.24         2996.01 
       0.122832         2912.43         2854.98 
       0.129052         2709.07         2710.98 
       0.135211         2562.36         2549.74 
       0.141259         2434.52         2370.51 
       0.147318         2276.64            2181 
       0.153489         2077.37         1995.08 
       0.159709         1953.48         1830.99 
       0.165845         1867.94          1700.5 
       0.171974         1760.36          1601.2 
       0.178125         1677.47         1525.78 
       0.184229         1610.21         1464.56 
        0.19034         1515.95         1406.57 
       0.196428         1485.79         1344.84 
       0.202534         1430.29         1276.31 
       0.208729          1358.1         1201.81 
       0.214876         1291.44         1127.62 
       0.220989         1245.51         1058.69 
       0.227147         1186.19         997.935 
        0.23329         1138.11         947.398 
       0.239377         1116.49         906.288 
       0.245482         1044.79         871.468 
       0.251667         1038.04         839.564 
       0.257832         998.452         808.317 
       0.263955         965.492         776.192 
       0.270079         930.536         742.719 
        0.27624         919.512         708.519 
       0.282372         880.484         675.387 
        0.28843          866.59         644.862 
       0.294538         822.903         617.165 
       0.300721         818.899         592.476 
        0.30691          783.53         570.662 
       0.313033         768.598         551.128 
       0.319153         749.922         532.713 
       0.325316         726.722         514.573 
        0.33145          707.96         496.527 
       0.337538         697.652          478.63 
       0.343633         677.763         460.976 
       0.349808          654.53         443.748 
       0.355968         650.099         427.576 
       0.362074         640.606         412.719 
       0.368217         622.147         398.979 
       0.374374         596.456         386.236 
       0.380519         594.861         374.312 
       0.386598         579.465         363.037 
       0.392688         577.139         352.058 
        0.39888         560.087         341.137 
       0.405048          550.14         330.485 
       0.411186         541.432         320.179 
       0.417313          530.77         310.289 
       0.423458         521.495         300.836 
       0.429607         512.802         291.884 
       0.435692         500.922         283.526 
       0.441815         497.087          275.55 
       0.447964         486.793         267.906 
       0.454126         476.567         260.546 
       0.460267         468.183          253.45 
       0.466387         462.927         246.575 
        0.47254         454.853         239.865 
       0.478662         453.408         233.405 
       0.484765         438.674          227.19 
       0.490885         435.003         221.198 
       0.497035          426.92          215.43 
       0.503198         421.457         209.897 
       0.509342         418.224         204.602 
       0.515458         414.117         199.527 
       0.521598         404.566          194.61 
       0.527764         397.542         189.832 
       0.533884         395.477         185.234 
           0.54         390.018         180.777 
       0.546137          388.52         176.443 
       0.552299         380.797         172.234 
       0.558452         378.801         168.176 
       0.564573         373.228         164.278 
       0.570708         367.155         160.503 
       0.576825         359.661         156.865 
       0.582926         358.146         153.356 
       0.589034          355.02         149.953 
       0.595184         351.786         146.631 
       0.601379         347.188         143.383 
       0.607522         341.919         140.256 
       0.613639         340.633         137.234 
       0.619772         332.717         134.294 
       0.625918         331.788         131.436 
       0.632068         326.706         128.664 
       0.638161         325.468         125.999 
         0.6443         319.934         123.392 
       0.650464         317.263         120.851 
       0.656582         315.429         118.401 
       0.662703           313.9         116.018 
       0.668861         308.282         113.688 
       0.675024         305.245          111.42 
       0.681124         303.509         109.238 
       0.687237         300.326          107.11 
       0.693381         295.978         105.029 
       0.699536         293.267             103 
       0.705665         291.137         101.035 
       0.711789         288.897         99.1232 
       0.717957         286.983         97.2487 
        0.72409         284.147         95.4338 
       0.730186         281.142          93.677 
       0.736317         278.182         91.9554 
       0.742472         276.916         90.2714 
       0.748622         274.371         88.6315 
        0.75476         271.875         87.0363 
       0.760888         268.646         85.4831 
       0.767043         268.891          83.962 
       0.773185         265.448         82.4815 
       0.779291         261.058         81.0455 
       0.785407         260.554         79.6419 
       0.791564         257.708         78.2632 
       0.797719         255.161         76.9181 
       0.803834         253.557         75.6135 
       0.809972         252.316         74.3348 
       0.816124         252.108         73.0833 
       0.822261         248.503         71.8642 
       0.828378         246.543         70.6769 
       0.834502         245.635         69.5158 
       0.840667         242.491         68.3734 
       0.846816         241.026         67.2602 
       0.852925         239.866          66.179 
       0.859047         237.878         65.1195 
       0.865192         235.418           64.08 
       0.871341         233.591         63.0627 
       0.877463         232.117         62.0723 
       0.883569         231.287         61.1058 
       0.889708         228.887         60.1552 
       0.895864          226.32         59.2225 
       0.902008         225.511         58.3117 
       0.908149         224.599         57.4207 
       0.914301          221.72         56.5471 
       0.920448         220.304         55.6927 
       0.926574         218.856          54.859 
       0.932687         218.873         54.0443 
       0.938823         216.203         53.2434 
       0.944975         214.742         52.4571 
       0.951105          213.73         51.6896 
       0.957225         211.899         50.9389 
       0.963368          209.35         50.2007 
       0.969511         208.582         49.4772 
       0.975621         206.755          48.772 
       0.981748         206.886         48.0789 
       0.987916         204.725         47.3951 
        0.99406         202.653         46.7272 
        1.00019         202.752         46.0736 
        1.00632         200.911         45.4333 
        1.01246         199.492         44.8042 
        1.01859         199.129         44.1882 
        1.02471         196.727         43.5847 
        1.03085         194.842         42.9904 
        1.03698         194.133         42.4085 
        1.04314         192.487         41.8351 
        1.04929         191.311         41.2737 
        1.05541         191.266         40.7249 
        1.06154         189.213         40.1848 
        1.06769         189.048         39.6538 
        1.07382         187.438         39.1342 
        1.07993         185.863         38.6252 
        1.08607         185.211         38.1231 
        1.09222         184.249         37.6296 
        1.09836         182.694         37.1454 
        1.10449          180.91         36.6703 
        1.11063         179.456         36.2031 
        1.11677         179.284         35.7442 
         1.1229         177.819         35.2942 
        1.12903         176.981         34.8515 
        1.13518         176.144         34.4162 
        1.14131         174.477         33.9885 
        1.14745         174.263         33.5684 
        1.15359         172.912         33.1554 
        1.15973         172.098         32.7493 
        1.16584         170.394         32.3517 
        1.17197         169.935         31.9603 
        1.17811         168.811         31.5742 
        1.18424         167.927         31.1956 
        1.19038         167.517         30.8222 
        1.19652         166.142         30.4551 
        1.20267         165.498          30.094 
        1.20881         163.979         29.7389 
        1.21495         163.345         29.3901 
        1.22108         162.451          29.047 
         1.2272         161.064         28.7102 
        1.23334         160.539         28.3781 
        1.23949         159.375         28.0504 
        1.24562         158.608         27.7289 
        1.25174         157.089         27.4129 
        1.25789         156.345         27.1009 
        1.26402         155.416         26.7943 
        1.27014           154.4         26.4933 
        1.27628         153.881          26.196 
        1.28244         153.452         25.9028 
        1.28858         152.348         25.6145 
        1.29471         150.804         25.3312 
        1.30084         150.522         25.0525 
        1.30697          149.39         24.7776 
        1.31312          148.78         24.5064 
        1.31925         147.815         24.2402 
        1.32537         147.115         23.9782 
        1.33151          145.74         23.7192 
        1.33765         145.348         23.4642 
        1.34378         144.549         23.2134 
        1.34992         144.061         22.9662 
        1.35606         143.504          22.722 
         1.3622         142.201         22.4819 
        1.36833         141.214         22.2458 
        1.37445         140.517         22.0132 
        1.38059         139.893         21.7832 
        1.38675         139.089          21.556 
        1.39288         138.585          21.333 
        1.39901         138.212         21.1133 
        1.40515         136.922         20.8961 
         1.4113         135.922         20.6821 
        1.41742         135.416          20.472 
        1.42355         134.557         20.2644 
         1.4297         133.939          20.059 
        1.43585         132.847         19.8566 
        1.44198         132.569         19.6578 
        1.44809         131.768         19.4621 
        1.45423         130.974         19.2684 
        1.46036         130.374         19.0776 
        1.46649         129.476         18.8894 
        1.47263         128.863         18.7036 
        1.47877         128.395         18.5204 
        1.48491         127.067         18.3394 
        1.49104         126.975         18.1611 
        1.49718         125.789         17.9852 
        1.50333         125.386         17.8113 
        1.50947         124.896           17.64 
         1.5156         124.012         17.4713 
        1.52172         123.311         17.3048 
        1.52787         122.686         17.1402 
          1.534         122.028         16.9779 
        1.54013         121.275         16.8179 
        1.54627         120.846         16.6596 
        1.55241         119.908         16.5034 
        1.55855         119.296         16.3494 
        1.56467         119.018         16.1978 
         1.5708         118.061         16.0477 
        1.57695          117.76         15.8993 
        1.58308         116.925         15.7531 
        1.58922         116.626         15.6087 
        1.59535         115.791         15.4661 
         1.6015         115.281         15.3251 
        1.60764         114.653          15.186 
        1.61376         114.328         15.0489 
        1.61989         113.403         14.9135 
        1.62604         113.026         14.7794 
        1.63218         112.458         14.6471 
        1.63831         111.556         14.5167 
        1.64444         111.284         14.3879 
        1.65059         110.692         14.2603 
        1.65673         109.659         14.1344 
        1.66285         109.505         14.0104 
        1.66898         108.933         13.8878 
        1.67512         108.393         13.7665 
        1.68127         107.722         13.6465 
         1.6874         106.931         13.5283 
        1.69353         106.507         13.4115 
        1.69967         106.133         13.2958 
        1.70581         105.536         13.1815 
        1.71193         105.176          13.069 
        1.71806         104.491         12.9576 
        1.72421         103.777         12.8473 
        1.73035         103.494         12.7384 
        1.73649         102.797         12.6308 
        1.74262         102.216         12.5245 
        1.74876         101.914         12.4194 
        1.75489         101.036         12.3157 
        1.76101         100.658         12.2132 
        1.76715         99.9996         12.1118 
        1.77329         99.7627         12.0113 
        1.77943         98.9174          11.912 
        1.78557          98.718          11.814 
        1.79171         97.9337          11.717 
        1.79785         97.5537         11.6212 
        1.80399         97.0438         11.5264 
        1.81012          96.655         11.4328 
        1.81625         96.1054         11.3403 
        1.82239         95.7985         11.2487 
        1.82853         95.3101         11.1581 
        1.83466         94.5996         11.0686 
        1.84078         94.4593         10.9802 
        1.84692         93.6943         10.8927 
        1.85306          93.182          10.806 
         1.8592         92.8458         10.7203 
        1.86533         92.2849         10.6357 
        1.87147         91.7406         10.5518 
        1.87761         91.4119         10.4689 
        1.88375         90.8409         10.3869 
        1.88988         90.3972         10.3059 
        1.89601          89.939         10.2257 
        1.90215         89.5502         10.1464 
        1.90829         89.0039         10.0679 
        1.91442         88.6962         9.99018 
        1.92056         88.0261          9.9134 
         1.9267         87.7708         9.83735 
        1.93284         87.2547         9.76206 
        1.93897          86.817          9.6877 
        1.94509          86.514         9.61428 
        1.95123         86.0183         9.54143 
        1.95737         85.5741         9.46929 
        1.96349         85.0147         9.39809 
        1.96964         84.6096         9.32741 
        1.97578         84.2632         9.25743 
        1.98192         83.9626         9.18832 
        1.98805         83.2634          9.1199 
        1.99419         82.9498         9.05218 
        2.00033         82.6828         8.98512 
        2.00647         82.1744         8.91876 
         2.0126         81.7104         8.85318 
        2.01874          81.173         8.78817 
        2.02488         80.8073         8.72375 
        2.03101         80.4759          8.6601 
        2.03714         79.9311         8.59715 
        2.04328          79.676         8.53475 
        2.04941         79.2842         8.47303 
        2.05554         79.0038         8.41196 
        2.06167         78.4833         8.35141 
        2.06781         77.9913         8.29146 
        2.07396         77.6408           8.232 
        2.08009         77.3416         8.17324 
        2.08622         76.9704         8.11511 
        2.09237         76.5279         8.05744 
        2.09851         76.3252         8.00032 
        2.10464         75.7863         7.94385 
        2.11077         75.4364           7.888 
        2.11691         75.1413         7.83256 
        2.12305         74.6413         7.77765 
        2.12918         74.3118          7.7234 
        2.13531          73.955         7.66967 
        2.14145         73.4969         7.61633 
         2.1476         73.1685         7.56343 
        2.15372         72.8615          7.5113 
        2.15985         72.4362         7.45962 
        2.16599         72.1423         7.40827 
        2.17213         71.7987         7.35746 
        2.17827         71.3885         7.30715 
         2.1844         71.0172         7.25735 
        2.19054         70.8264           7.208 
        2.19666         70.3627         7.15918 
         2.2028         70.2728         7.11077 
        2.20893         69.7393         7.06278 
        2.21508         69.3766         7.01519 
        2.22122         69.0828         6.96802 
        2.22736         68.7364         6.92138 
        2.23349         68.3407         6.87518 
        2.23962          67.944         6.82938 
        2.24577         67.6602         6.78396 
         2.2519         67.4111         6.73901 
        2.25802         67.0847         6.69455 
        2.26417         66.6072         6.65037 
        2.27031         66.3664         6.60654 
        2.27644         66.1057         6.56324 
        2.28257         65.7247         6.52033 
        2.28872         65.3978         6.47772 
        2.29486         64.9788         6.43551 
        2.30099         64.6814         6.39375 
        2.30712         64.5479         6.35236 
        2.31326         64.1874         6.31125 
         2.3194         63.8437         6.27054 
        2.32553         63.4923         6.23026 
        2.33166         63.1294         6.19035 
         2.3378         62.8067         6.15073 
        2.34394         62.5565         6.11145 
        2.35007         62.2073         6.07257 
        2.35619         61.9353         6.03408 
        2.36233         61.7137         5.99583 
        2.36848         61.3762         5.95783 
        2.37462         60.9941         5.92024 
        2.38075         60.8396         5.88302 
        2.38689         60.4861         5.84608 
        2.39303         60.1797         5.80947 
        2.39916         59.9518         5.77321 
        2.40529         59.6601         5.73727 
        2.41143         59.3798          5.7016 
        2.41757         59.0133         5.66622 
         2.4237         58.8874         5.63121 
        2.42983         58.4094          5.5965 
        2.43598         58.1633         5.56199 
        2.44211         57.9456         5.52783 
        2.44823         57.6474         5.49403 
        2.45437         57.3113         5.46043 
        2.46052         57.0466         5.42707 
        2.46665          56.834         5.39406 
        2.47279         56.4935         5.36133 
        2.47892         56.2798         5.32886 
        2.48507         55.9945         5.29662 
         2.4912         55.8228         5.26471 
