# k  (h/Mpc)    Pcb(k)  (Mpc/h)^3    Pcb_linear(k)  (Mpc/h)^3
     0.00783031         15062.2         15279.7 
       0.013688           18926         18759.9 
       0.019231         18942.2         18913.3 
      0.0249154           17076         17444.1 
      0.0312784         14924.3         15101.3 
      0.0375637         12869.8         12885.1 
      0.0433917         11037.9         11251.1 
      0.0492413          9977.7         10063.2 
      0.0555754         8872.06         9171.09 
      0.0619321         8492.91          8498.6 
       0.067871          7677.2         7915.22 
      0.0738098         7072.01         7286.36 
      0.0800417          6302.8         6562.55 
      0.0862327         5685.74          5826.9 
      0.0921407         5158.95         5176.83 
      0.0982031         4588.78         4617.31 
       0.104506         4292.23         4175.31 
       0.110769         3968.71         3865.09 
       0.116806         3735.41          3652.2 
       0.122832         3561.58         3480.27 
       0.129052         3307.47         3304.74 
       0.135211         3130.23         3108.18 
       0.141259         2981.93         2889.69 
       0.147318         2795.05         2658.68 
       0.153489         2552.23         2432.04 
       0.159709         2405.89            2232 
       0.165845         2309.14         2072.94 
       0.171974         2180.68         1951.89 
       0.178125         2076.96         1859.95 
       0.184229         1989.82         1785.32 
        0.19034         1881.01         1714.63 
       0.196428         1842.37         1639.39 
       0.202534         1771.26         1555.84 
       0.208729         1686.91         1465.03 
       0.214876         1612.64         1374.59 
       0.220989         1555.75         1290.56 
       0.227147         1487.86          1216.5 
        0.23329         1428.73         1154.89 
       0.239377         1405.08         1104.78 
       0.245482         1317.24         1062.33 
       0.251667          1310.3         1023.44 
       0.257832         1259.03         985.351 
       0.263955         1217.68          946.19 
       0.270079         1175.19         905.386 
        0.27624         1161.89         863.696 
       0.282372         1113.18         823.308 
        0.28843         1103.31         786.097 
       0.294538            1048         752.334 
       0.300721         1042.63         722.238 
        0.30691         1000.78         695.645 
       0.313033         981.568         671.834 
       0.319153         962.647         649.385 
       0.325316         931.914         627.273 
        0.33145         910.272         605.274 
       0.337538         895.316         583.457 
       0.343633         873.654         561.937 
       0.349808         843.937         540.936 
       0.355968         838.522         521.221 
       0.362074         829.425          503.11 
       0.368217         804.144         486.361 
       0.374374         772.667         470.828 
       0.380519         773.227         456.291 
       0.386598         752.082         442.547 
       0.392688         749.796         429.164 
        0.39888         727.728         415.851 
       0.405048         717.478         402.866 
       0.411186         707.336         390.303 
       0.417313         692.733         378.246 
       0.423458         680.831         366.724 
       0.429607         671.585          355.81 
       0.435692         656.813         345.623 
       0.441815         651.627           335.9 
       0.447964         638.296         326.582 
       0.454126         630.286          317.61 
       0.460267         616.193         308.959 
       0.466387         609.355         300.579 
        0.47254          602.61         292.399 
       0.478662          598.63         284.523 
       0.484765         580.041         276.948 
       0.490885         576.239         269.644 
       0.497035         564.862         262.612 
       0.503198         560.395         255.868 
       0.509342         555.441         249.413 
       0.515458         551.395         243.227 
       0.521598         537.759         237.232 
       0.527764         528.365         231.408 
       0.533884         526.627         225.803 
           0.54         520.268          220.37 
       0.546137         517.345         215.086 
       0.552299         508.899         209.956 
       0.558452          506.03         205.009 
       0.564573          499.31         200.257 
       0.570708         492.896         195.655 
       0.576825         480.327          191.22 
       0.582926         481.183         186.943 
       0.589034          477.02         182.795 
       0.595184         472.846         178.745 
       0.601379         465.991         174.786 
       0.607522         459.582         170.975 
       0.613639         459.032          167.29 
       0.619772         448.806         163.706 
       0.625918         447.219         160.223 
       0.632068         440.663         156.843 
       0.638161         439.105         153.594 
         0.6443         431.655         150.417 
       0.650464         429.128         147.319 
       0.656582         426.233         144.332 
       0.662703         424.749         141.427 
       0.668861         417.499         138.587 
       0.675024         414.194         135.823 
       0.681124         411.173         133.162 
       0.687237         407.586         130.568 
       0.693381         402.141         128.032 
       0.699536         397.107         125.559 
       0.705665         395.427         123.163 
       0.711789         393.435         120.833 
       0.717957         390.113         118.548 
        0.72409           387.5         116.335 
       0.730186         382.599         114.194 
       0.736317         379.436         112.095 
       0.742472         377.781         110.042 
       0.748622         373.734         108.043 
        0.75476         369.344         106.098 
       0.760888         365.697         104.205 
       0.767043         366.338         102.351 
       0.773185         362.012         100.546 
       0.779291         357.299         98.7956 
       0.785407         356.111         97.0847 
       0.791564         351.829         95.4039 
       0.797719         349.572         93.7642 
       0.803834         346.398         92.1739 
       0.809972         345.594         90.6152 
       0.816124         344.878         89.0895 
       0.822261         340.201         87.6035 
       0.828378         337.981         86.1562 
       0.834502         335.083         84.7407 
       0.840667         332.287         83.3481 
       0.846816         330.813         81.9911 
       0.852925         328.605         80.6731 
       0.859047         326.597         79.3816 
       0.865192         322.849         78.1144 
       0.871341         320.482         76.8743 
       0.877463         319.602          75.667 
       0.883569         317.595         74.4889 
       0.889708         314.627           73.33 
       0.895864         312.521          72.193 
       0.902008         310.399         71.0828 
       0.908149          308.08         69.9967 
       0.914301         305.083         68.9317 
       0.920448         303.452         67.8901 
       0.926574         300.005         66.8739 
       0.932687         300.389         65.8808 
       0.938823         297.094         64.9045 
       0.944975         296.471         63.9459 
       0.951105          293.97         63.0103 
       0.957225         292.003         62.0952 
       0.963368         288.506         61.1953 
       0.969511         287.526         60.3134 
       0.975621         285.222         59.4538 
       0.981748         284.835         58.6089 
       0.987916         282.851         57.7752 
        0.99406         278.742         56.9611 
        1.00019         278.425         56.1644 
        1.00632         276.941         55.3838 
        1.01246         274.644          54.617 
        1.01859         275.207         53.8661 
        1.02471         270.785         53.1303 
        1.03085         269.282         52.4059 
        1.03698         268.374         51.6966 
        1.04314          265.72         50.9976 
        1.04929         263.962         50.3132 
        1.05541         264.629         49.6442 
        1.06154         260.391         48.9859 
        1.06769         260.032         48.3386 
        1.07382         258.209         47.7052 
        1.07993         256.503         47.0846 
        1.08607         255.862         46.4726 
        1.09222         253.748          45.871 
        1.09836         252.019         45.2807 
        1.10449         249.587         44.7016 
        1.11063         247.599         44.1321 
        1.11677         247.353         43.5727 
         1.1229         245.508         43.0241 
        1.12903         244.246         42.4845 
        1.13518         242.555         41.9538 
        1.14131         240.771         41.4325 
        1.14745         240.621         40.9204 
        1.15359         238.462         40.4169 
        1.15973         236.859         39.9218 
        1.16584         235.261         39.4372 
        1.17197         235.311         38.9601 
        1.17811          232.46         38.4894 
        1.18424         231.265         38.0279 
        1.19038         230.675         37.5727 
        1.19652         228.799         37.1252 
        1.20267         228.366          36.685 
        1.20881         226.384         36.2521 
        1.21495         225.062         35.8269 
        1.22108          223.77         35.4087 
         1.2272         222.262         34.9982 
        1.23334         221.451         34.5933 
        1.23949          219.84         34.1938 
        1.24562         218.992         33.8019 
        1.25174         217.394         33.4167 
        1.25789         215.923         33.0363 
        1.26402          214.25         32.6627 
        1.27014         213.078         32.2957 
        1.27628         212.163         31.9333 
        1.28244         212.077         31.5759 
        1.28858         209.685         31.2244 
        1.29471         208.254         30.8791 
        1.30084         207.509         30.5393 
        1.30697         206.007         30.2042 
        1.31312         204.397         29.8737 
        1.31925          203.84         29.5492 
        1.32537         203.082         29.2298 
        1.33151         201.085         28.9141 
        1.33765         199.917         28.6032 
        1.34378         199.296         28.2975 
        1.34992         198.303         27.9961 
        1.35606         198.284         27.6985 
         1.3622         196.265         27.4057 
        1.36833         194.409         27.1179 
        1.37445         193.841         26.8344 
        1.38059          192.29         26.5541 
        1.38675         191.698         26.2771 
        1.39288         190.637         26.0052 
        1.39901         190.278         25.7374 
        1.40515         188.275         25.4727 
         1.4113         187.433         25.2118 
        1.41742         186.141         24.9556 
        1.42355         185.237         24.7025 
         1.4297         183.928         24.4522 
        1.43585         183.213         24.2055 
        1.44198         182.262         23.9631 
        1.44809         181.485         23.7246 
        1.45423         180.502         23.4884 
        1.46036         179.336         23.2559 
        1.46649         178.124         23.0265 
        1.47263         177.055            22.8 
        1.47877         176.141         22.5766 
        1.48491         174.596         22.3559 
        1.49104         174.489         22.1387 
        1.49718          172.74         21.9242 
        1.50333         172.144         21.7122 
        1.50947         171.361         21.5035 
         1.5156         170.127         21.2978 
        1.52172         169.426         21.0948 
        1.52787         167.948         20.8941 
          1.534         167.636         20.6963 
        1.54013          166.49         20.5012 
        1.54627         165.605         20.3083 
        1.55241         164.528         20.1179 
        1.55855         163.643         19.9301 
        1.56467         162.542         19.7453 
         1.5708         161.825         19.5624 
        1.57695          161.14         19.3815 
        1.58308         160.329         19.2033 
        1.58922         159.444         19.0272 
        1.59535         158.181         18.8534 
         1.6015         157.838         18.6815 
        1.60764         156.813         18.5119 
        1.61376         155.839         18.3449 
        1.61989         155.042         18.1798 
        1.62604         153.971         18.0163 
        1.63218         153.579          17.855 
        1.63831         152.436         17.6961 
        1.64444         151.858          17.539 
        1.65059         150.932         17.3835 
        1.65673         149.751           17.23 
        1.66285         149.393         17.0789 
        1.66898         148.248         16.9295 
        1.67512         148.093         16.7816 
        1.68127         146.694         16.6353 
         1.6874         145.724         16.4911 
        1.69353         145.405         16.3488 
        1.69967         144.421         16.2077 
        1.70581         143.692         16.0684 
        1.71193         142.825         15.9313 
        1.71806         142.282         15.7955 
        1.72421         141.386          15.661 
        1.73035         141.204         15.5283 
        1.73649         140.172         15.3971 
        1.74262         139.159         15.2675 
        1.74876         138.657         15.1394 
        1.75489         137.664          15.013 
        1.76101         136.809         14.8881 
        1.76715         136.405         14.7644 
        1.77329         135.973          14.642 
        1.77943         134.837         14.5209 
        1.78557         134.354         14.4014 
        1.79171         133.518         14.2832 
        1.79785          132.71         14.1664 
        1.80399         131.983         14.0508 
        1.81012         131.371         13.9367 
        1.81625         130.814          13.824 
        1.82239         130.257         13.7123 
        1.82853         129.426         13.6019 
        1.83466         128.625         13.4928 
        1.84078         128.156         13.3851 
        1.84692         127.006         13.2783 
        1.85306         126.896         13.1726 
         1.8592         125.993         13.0682 
        1.86533         125.089          12.965 
        1.87147         124.491         12.8628 
        1.87761         123.832         12.7617 
        1.88375         122.992         12.6618 
        1.88988         122.551          12.563 
        1.89601         121.815         12.4653 
        1.90215          121.23         12.3685 
        1.90829         120.665         12.2729 
        1.91442         120.055         12.1782 
        1.92056          119.27         12.0846 
         1.9267         118.954         11.9919 
        1.93284         118.252         11.9001 
        1.93897         117.484         11.8094 
        1.94509         117.041         11.7199 
        1.95123         116.391         11.6311 
        1.95737         115.886         11.5432 
        1.96349         115.215         11.4564 
        1.96964         114.257         11.3702 
        1.97578         113.683         11.2849 
        1.98192         113.499         11.2007 
        1.98805           112.6         11.1173 
        1.99419         112.266         11.0347 
        2.00033         111.457          10.953 
        2.00647         111.132         10.8721 
         2.0126         110.277         10.7922 
        2.01874         109.713         10.7129 
        2.02488         109.321         10.6344 
        2.03101         108.522         10.5568 
        2.03714         107.952           10.48 
        2.04328         107.548          10.404 
        2.04941         106.935         10.3287 
        2.05554         106.271         10.2543 
        2.06167         105.954         10.1805 
        2.06781         105.194         10.1074 
        2.07396         104.736         10.0349 
        2.08009         104.297         9.96329 
        2.08622         103.653         9.89243 
        2.09237         103.057         9.82213 
        2.09851         102.638          9.7525 
        2.10464         102.139         9.68366 
        2.11077         101.678         9.61558 
        2.11691         101.233           9.548 
        2.12305         100.394         9.48106 
        2.12918         99.8486         9.41493 
        2.13531         99.5341         9.34943 
        2.14145         98.7304         9.28441 
         2.1476          98.231         9.21992 
        2.15372          97.949         9.15638 
        2.15985         97.5147         9.09337 
        2.16599         96.8367         9.03078 
        2.17213         96.3822         8.96885 
        2.17827         95.9775         8.90751 
         2.1844         95.2923         8.84681 
        2.19054         95.0506         8.78665 
        2.19666         94.5598         8.72713 
         2.2028         94.0199         8.66812 
        2.20893         93.5689         8.60963 
        2.21508         93.0333         8.55161 
        2.22122         92.5356         8.49411 
        2.22736         92.1531         8.43726 
        2.23349         91.7416         8.38094 
        2.23962         91.2161         8.32511 
        2.24577          90.833         8.26974 
         2.2519         90.4451         8.21495 
        2.25802         89.7464         8.16075 
        2.26417         89.3844         8.10689 
        2.27031         88.9669         8.05346 
        2.27644          88.415         8.00068 
        2.28257         87.9199         7.94837 
        2.28872         87.6734         7.89643 
        2.29486         87.0174         7.84497 
        2.30099         86.5912         7.79407 
        2.30712         86.3091         7.74361 
        2.31326         85.8152         7.69351 
         2.3194         85.3338         7.64388 
        2.32553         85.0176         7.59477 
        2.33166         84.5674         7.54612 
         2.3378         83.9766         7.49783 
        2.34394         83.6216         7.44994 
        2.35007         83.2492         7.40255 
        2.35619         82.8953         7.35562 
        2.36233         82.3762           7.309 
        2.36848         81.9408         7.26268 
        2.37462         81.4752         7.21686 
        2.38075         81.2248         7.17148 
        2.38689          80.727         7.12646 
        2.39303          80.234         7.08183 
        2.39916         79.9344         7.03763 
        2.40529         79.6874         6.99381 
        2.41143         79.0606         6.95033 
        2.41757         78.8327          6.9072 
         2.4237         78.4882         6.86452 
        2.42983         77.9662         6.82221 
        2.43598         77.5875         6.78014 
        2.44211         77.3644          6.7385 
        2.44823         76.8993          6.6973 
        2.45437         76.3232         6.65633 
        2.46052         76.0233         6.61568 
        2.46665         75.8024         6.57543 
        2.47279         75.3201         6.53554 
        2.47892         75.0038         6.49595 
        2.48507         74.5273         6.45665 
         2.4912         74.2246         6.41775 
