# k  (h/Mpc)    P(k)  (Mpc/h)^3    P_linear(k)  (Mpc/h)^3
     0.00783031         14797.8         15059.5 
       0.013688         16822.9         16715.2 
       0.019231         15339.6           15297 
      0.0249154         12489.4         12693.9 
      0.0312784         9743.89         9779.22 
      0.0375637         7667.12         7597.83 
      0.0433917         6276.64         6303.47 
      0.0492413         5577.86         5557.21 
      0.0555754         5023.66         5112.37 
      0.0619321         4832.71         4779.52 
       0.067871         4345.07          4404.3 
      0.0738098         3877.24         3916.32 
      0.0800417         3293.58         3333.71 
      0.0862327         2803.19         2783.55 
      0.0921407         2437.33         2362.31 
      0.0982031         2121.94         2066.28 
       0.104506         1994.61          1890.5 
       0.110769         1884.07         1804.23 
       0.116806         1809.38         1751.62 
       0.122832         1738.67          1684.1 
       0.129052         1596.97         1573.35 
       0.135211         1465.14         1424.88 
       0.141259         1344.83         1264.02 
       0.147318         1217.52         1115.11 
       0.153489         1090.84         995.827 
       0.159709         1021.57         915.249 
       0.165845          981.22         869.053 
       0.171974         939.521         842.825 
       0.178125         906.275         821.135 
       0.184229         870.025         791.882 
        0.19034         810.172         749.316 
       0.196428          778.78         695.687 
       0.202534         737.443         637.782 
       0.208729         686.209         583.238 
       0.214876         645.073         539.258 
       0.220989         617.441          507.49 
       0.227147         591.563         485.873 
        0.23329         568.869         470.659 
       0.239377         557.412         457.172 
       0.245482         519.394         441.512 
       0.251667          513.31          421.77 
       0.257832         490.783         398.714 
       0.263955         470.043         374.565 
       0.270079         447.679         351.696 
        0.27624         439.044         331.856 
       0.282372         422.089         316.063 
        0.28843         409.653         303.921 
       0.294538         389.216         293.997 
       0.300721         385.882         284.862 
        0.30691         368.367         275.377 
       0.313033         359.949         265.049 
       0.319153         346.972         253.812 
       0.325316          337.01         242.166 
        0.33145         325.101          230.98 
       0.337538          319.07         220.893 
       0.343633         308.106         212.128 
       0.349808         296.834         204.527 
       0.355968         293.126         197.929 
       0.362074         287.515          191.88 
       0.368217         279.128         185.912 
       0.374374         267.087          179.79 
       0.380519         264.563         173.494 
       0.386598         257.355         167.235 
       0.392688         253.882         161.117 
        0.39888         247.007         155.265 
       0.405048         240.683         149.945 
       0.411186         236.014         145.132 
       0.417313         231.022         140.752 
       0.423458         225.714         136.649 
       0.429607          221.65         132.685 
       0.435692         215.086         128.817 
       0.441815         212.847         124.959 
       0.447964         208.259         121.119 
       0.454126         201.482         117.362 
       0.460267         198.226         113.782 
       0.466387         195.546         110.418 
        0.47254         191.048         107.238 
       0.478662         190.438         104.265 
       0.484765         183.421         101.463 
       0.490885         181.088         98.7685 
       0.497035         178.027         96.1326 
       0.503198         174.235         93.5474 
       0.509342         172.419         91.0333 
       0.515458         169.697         88.6017 
       0.521598         165.789         86.2404 
       0.527764         163.957         83.9598 
       0.533884         161.664         81.7958 
           0.54         158.913         79.7365 
       0.546137         157.723         77.7597 
       0.552299         154.405         75.8486 
       0.558452         152.984         73.9993 
       0.564573         150.549         72.2098 
       0.570708         147.146         70.4673 
       0.576825         145.325         68.7822 
       0.582926         142.763         67.1543 
       0.589034         141.295          65.577 
       0.595184         139.689         64.0416 
       0.601379         137.405         62.5482 
       0.607522         135.225         61.1191 
       0.613639         134.033         59.7454 
       0.619772         131.364         58.4135 
       0.625918         130.108         57.1203 
       0.632068         128.302         55.8644 
       0.638161          127.28         54.6542 
         0.6443          125.43         53.4684 
       0.650464         124.259         52.3119 
       0.656582         122.136         51.1975 
       0.662703         121.435         50.1161 
       0.668861         119.248         49.0618 
       0.675024         117.653         48.0391 
       0.681124         116.903         47.0572 
       0.687237         114.999         46.1016 
       0.693381          113.21         45.1683 
       0.699536         112.514         44.2589 
       0.705665         111.684         43.3778 
       0.711789         109.838         42.5208 
       0.717957         109.713         41.6808 
        0.72409         107.799         40.8679 
       0.730186         106.357         40.0817 
       0.736317         105.369         39.3121 
       0.742472         104.578         38.5603 
       0.748622          103.49         37.8292 
        0.75476         102.488          37.119 
       0.760888         101.303         36.4284 
       0.767043         100.755         35.7527 
       0.773185         99.8061         35.0958 
       0.779291         97.9463         34.4591 
       0.785407         97.5269         33.8374 
       0.791564         96.9371          33.227 
       0.797719         94.8792         32.6321 
       0.803834         94.5309         32.0555 
       0.809972         93.7088         31.4907 
       0.816124         93.1012         30.9385 
       0.822261            92.3          30.401 
       0.828378         91.5383         29.8779 
       0.834502         91.0041         29.3667 
       0.840667         89.6413         28.8643 
       0.846816         88.6245         28.3751 
       0.852925         88.1302         27.9004 
       0.859047         87.1368         27.4356 
       0.865192         86.4836         26.9799 
       0.871341         85.7478         26.5343 
       0.877463         84.6818         26.1008 
       0.883569         84.6025         25.6782 
       0.889708         83.6678         25.2628 
       0.895864          82.918         24.8556 
       0.902008         82.2839         24.4583 
       0.908149         81.8974         24.0699 
       0.914301         80.9832         23.6894 
       0.920448         80.3686         23.3174 
       0.926574         79.7242         22.9548 
       0.932687         79.7107         22.6007 
       0.938823         78.4796         22.2529 
       0.944975         77.7191         21.9116 
       0.951105         77.2101         21.5786 
       0.957225         76.6142         21.2532 
       0.963368         75.7486         20.9335 
       0.969511         75.6872         20.6203 
       0.975621         75.1593         20.3152 
       0.981748         74.6418         20.0155 
       0.987916         73.8848           19.72 
        0.99406         73.3975         19.4316 
        1.00019         73.0933         19.1496 
        1.00632         72.3261         18.8734 
        1.01246         72.0129         18.6023 
        1.01859          71.246         18.3369 
        1.02471         70.7093         18.0771 
        1.03085         70.1202         17.8214 
        1.03698         69.9213         17.5712 
        1.04314         69.2782         17.3247 
        1.04929         68.8782         17.0836 
        1.05541         68.1799          16.848 
        1.06154          68.105         16.6163 
        1.06769         67.7009         16.3886 
        1.07382         67.1912          16.166 
        1.07993          66.817          15.948 
        1.08607         66.2327         15.7332 
        1.09222         66.0961          15.522 
        1.09836         65.4364         15.3151 
        1.10449         65.1493         15.1121 
        1.11063          64.604         14.9126 
        1.11677         64.2319         14.7168 
         1.1229         63.7061         14.5249 
        1.12903         63.2799         14.3362 
        1.13518         63.2207         14.1508 
        1.14131         62.7874         13.9687 
        1.14745         62.3153         13.7899 
        1.15359         61.9902         13.6143 
        1.15973         61.5932         13.4416 
        1.16584         61.0793         13.2727 
        1.17197         60.7471         13.1065 
        1.17811         60.5508         12.9426 
        1.18424         60.0011          12.782 
        1.19038         59.8151         12.6237 
        1.19652         59.4585         12.4681 
        1.20267         58.8017         12.3151 
        1.20881          58.685         12.1648 
        1.21495         58.2022         12.0172 
        1.22108          58.178          11.872 
         1.2272         57.4164         11.7296 
        1.23334         57.1986         11.5892 
        1.23949         57.0236         11.4508 
        1.24562         56.5444         11.3151 
        1.25174          56.353         11.1817 
        1.25789         56.1697         11.0501 
        1.26402         55.5978         10.9208 
        1.27014         55.4006         10.7939 
        1.27628         55.0756         10.6687 
        1.28244         54.7662         10.5452 
        1.28858         54.6181         10.4238 
        1.29471          54.315         10.3046 
        1.30084         54.0027         10.1874 
        1.30697         53.6509         10.0718 
        1.31312         53.3303         9.95787 
        1.31925         53.0382         9.84605 
        1.32537         52.8272         9.73606 
        1.33151         52.3881         9.62736 
        1.33765         52.2398         9.52039 
        1.34378         51.9751         9.41526 
        1.34992         51.6415         9.31164 
        1.35606         51.4057         9.20937 
         1.3622         51.0913         9.10881 
        1.36833         50.9174            9.01 
        1.37445         50.5573          8.9127 
        1.38059         50.2232         8.81655 
        1.38675         50.0089         8.72159 
        1.39288         49.7985          8.6284 
        1.39901         49.5872         8.53662 
        1.40515         49.2322         8.44597 
         1.4113         49.0359         8.35667 
        1.41742          48.944         8.26901 
        1.42355          48.588         8.18244 
         1.4297         48.4745         8.09684 
        1.43585         48.1836         8.01251 
        1.44198          47.808          7.9297 
        1.44809         47.6622         7.84821 
        1.45423         47.4746         7.76756 
        1.46036         47.2268          7.6882 
        1.46649         47.0126         7.60991 
        1.47263         46.7593         7.53265 
        1.47877         46.4475         7.45649 
        1.48491         46.3909         7.38127 
        1.49104         46.0824         7.30725 
        1.49718         45.7529         7.23418 
        1.50333         45.7525           7.162 
        1.50947         45.4369         7.09095 
         1.5156         45.2348         7.02097 
        1.52172         45.0643         6.95194 
        1.52787          44.922         6.88369 
          1.534         44.5524         6.81644 
        1.54013          44.345         6.75017 
        1.54627          44.286         6.68465 
        1.55241         43.8385         6.61999 
        1.55855         43.7685         6.55628 
        1.56467         43.4974         6.49358 
         1.5708         43.4689         6.43153 
        1.57695         43.2725         6.37019 
        1.58308         42.9977          6.3098 
        1.58922         42.7616         6.25014 
        1.59535          42.675         6.19128 
         1.6015          42.332          6.1331 
        1.60764         42.1676         6.07569 
        1.61376         42.0009         6.01917 
        1.61989         41.8311         5.96333 
        1.62604          41.592         5.90807 
        1.63218         41.5705         5.85355 
        1.63831         41.2345         5.79984 
        1.64444         41.0932         5.74678 
        1.65059         41.0618         5.69426 
        1.65673         40.7257         5.64245 
        1.66285         40.4695         5.59144 
        1.66898         40.4156         5.54103 
        1.67512         40.0924         5.49115 
        1.68127         40.0055         5.44183 
         1.6874         39.8058         5.39323 
        1.69353         39.6068         5.34525 
        1.69967         39.4906         5.29775 
        1.70581         39.3938         5.25083 
        1.71193         39.2035         5.20467 
        1.71806         38.8414         5.15896 
        1.72421         38.8542         5.11371 
        1.73035          38.659         5.06905 
        1.73649         38.3909         5.02493 
        1.74262         38.2302         4.98138 
        1.74876         38.0504         4.93831 
        1.75489         37.9722         4.89584 
        1.76101         37.8375         4.85388 
        1.76715         37.6254         4.81236 
        1.77329         37.4548         4.77127 
        1.77943         37.2884         4.73064 
        1.78557         37.1102         4.69054 
        1.79171         37.0205         4.65091 
        1.79785         36.7722         4.61172 
        1.80399         36.7814         4.57299 
        1.81012         36.4767         4.53476 
        1.81625         36.3364         4.49698 
        1.82239         36.2124         4.45957 
        1.82853         36.0645         4.42261 
        1.83466         35.8039          4.3861 
        1.84078         35.6401         4.35004 
        1.84692          35.569         4.31433 
        1.85306         35.3703         4.27898 
         1.8592         35.2228         4.24408 
        1.86533         35.0798         4.20958 
        1.87147         34.9676         4.17543 
        1.87761         34.8342         4.14165 
        1.88375         34.6855         4.10827 
        1.88988         34.5621          4.0753 
        1.89601          34.401         4.04268 
        1.90215         34.3025         4.01038 
        1.90829         34.2142         3.97845 
        1.91442         34.0276         3.94687 
        1.92056          33.789         3.91566 
         1.9267         33.7574         3.88475 
        1.93284         33.4809         3.85415 
        1.93897         33.4602         3.82395 
        1.94509         33.3064         3.79413 
        1.95123         33.1483         3.76455 
        1.95737         32.9775         3.73527 
        1.96349         32.8787         3.70637 
        1.96964         32.7608          3.6777 
        1.97578         32.5572         3.64931 
        1.98192          32.475         3.62128 
        1.98805         32.3981         3.59355 
        1.99419         32.2543          3.5661 
        2.00033         32.0869         3.53892 
        2.00647         31.9946         3.51204 
         2.0126         31.7697         3.48548 
        2.01874         31.7483         3.45915 
        2.02488         31.6152         3.43307 
        2.03101         31.4644         3.40731 
        2.03714         31.3633         3.38184 
        2.04328         31.1814         3.35659 
        2.04941          31.065         3.33163 
        2.05554         30.9428         3.30694 
        2.06167         30.8617         3.28246 
        2.06781         30.6858         3.25823 
        2.07396         30.6246         3.23421 
        2.08009         30.4543         3.21047 
        2.08622         30.2837         3.18699 
        2.09237         30.2329         3.16371 
        2.09851         30.1238         3.14065 
        2.10464         29.9814         3.11786 
        2.11077         29.9188         3.09532 
        2.11691         29.7007         3.07296 
        2.12305         29.5952         3.05081 
        2.12918         29.4975         3.02894 
        2.13531         29.4112         3.00728 
        2.14145         29.2504         2.98578 
         2.1476          29.125         2.96447 
        2.15372          29.015         2.94347 
        2.15985         28.9901         2.92265 
        2.16599         28.8175         2.90197 
        2.17213         28.7693         2.88152 
        2.17827         28.5679         2.86127 
         2.1844         28.5164         2.84123 
        2.19054         28.3978         2.82137 
        2.19666         28.2367         2.80174 
         2.2028         28.1296         2.78227 
        2.20893         28.0981         2.76297 
        2.21508         27.9833         2.74384 
        2.22122         27.8165         2.72488 
        2.22736           27.76         2.70615 
        2.23349         27.5965         2.68759 
        2.23962         27.5195         2.66919 
        2.24577         27.3808         2.65095 
         2.2519         27.2912         2.63291 
        2.25802         27.2283         2.61506 
        2.26417         27.0859         2.59733 
        2.27031         26.9549         2.57974 
        2.27644         26.8812         2.56237 
        2.28257         26.8067         2.54516 
        2.28872         26.6974         2.52808 
        2.29486         26.5777         2.51115 
        2.30099         26.4638         2.49442 
        2.30712         26.3877         2.47783 
        2.31326         26.2807         2.46136 
         2.3194          26.192         2.44505 
        2.32553         26.1051         2.42892 
        2.33166         25.9986         2.41294 
         2.3378         25.8791         2.39708 
        2.34394         25.8028         2.38135 
        2.35007         25.6918         2.36579 
        2.35619         25.5876         2.35039 
        2.36233         25.4748         2.33509 
        2.36848          25.415         2.31989 
        2.37462         25.2829         2.30486 
        2.38075         25.2513         2.28998 
        2.38689         25.1205         2.27522 
        2.39303         25.0104         2.26059 
        2.39916         24.8805          2.2461 
        2.40529         24.8504         2.23174 
        2.41143         24.7544         2.21749 
        2.41757         24.6447         2.20336 
         2.4237         24.5877         2.18939 
        2.42983         24.4298         2.17553 
        2.43598         24.3871         2.16176 
        2.44211         24.2551         2.14812 
        2.44823         24.1796         2.13464 
        2.45437         24.0584         2.12124 
        2.46052         23.9609         2.10793 
        2.46665         23.9108         2.09477 
        2.47279          23.825         2.08172 
        2.47892         23.7524         2.06878 
        2.48507         23.6158         2.05593 
         2.4912         23.5501         2.04322 
