# k  (h/Mpc)    Pcb(k)  (Mpc/h)^3    Pcb_linear(k)  (Mpc/h)^3
     0.00783031         2495.08         2512.48 
       0.013688         3072.97         3114.61 
       0.019231         3128.55         3147.98 
      0.0249154         2904.56         2900.46 
      0.0312784         2501.64         2505.56 
      0.0375637         2128.85          2138.1 
      0.0433917         1876.76         1873.77 
      0.0492413         1682.16         1686.67 
      0.0555754         1551.85         1548.23 
      0.0619321         1422.73          1440.7 
       0.067871         1335.64         1341.17 
      0.0738098         1227.03         1229.31 
      0.0800417         1102.03         1099.98 
      0.0862327         970.792         971.397 
      0.0921407         862.352         861.785 
      0.0982031         777.254         771.505 
       0.104506         702.386         703.596 
       0.110769         657.702         657.721 
       0.116806         631.438         625.794 
       0.122832         597.591         597.477 
       0.129052         567.849         565.289 
       0.135211         534.159         527.702 
       0.141259         490.408         486.601 
       0.147318         446.244          445.07 
       0.153489         411.303         406.668 
       0.159709         383.187         374.918 
       0.165845         353.849         351.194 
       0.171974         342.988          333.83 
       0.178125         328.972         320.343 
       0.184229         312.816         308.196 
        0.19034         302.887           295.2 
       0.196428         288.588         280.491 
       0.202534         268.448         264.241 
       0.208729         256.287         247.354 
       0.214876         242.724          231.57 
       0.220989         225.334         217.876 
       0.227147          218.17         206.535 
        0.23329         209.498         197.465 
       0.239377         203.118         190.038 
       0.245482         194.474         183.335 
       0.251667         186.312         176.578 
       0.257832         182.328         169.449 
       0.263955           172.2         161.947 
       0.270079         164.725         154.271 
        0.27624         156.608         146.778 
       0.282372         150.655         139.913 
        0.28843         147.667         133.911 
       0.294538         141.188         128.672 
       0.300721          135.26         124.039 
        0.30691         132.712         119.841 
       0.313033         127.548         115.867 
       0.319153         125.125          111.91 
       0.325316         119.708         107.862 
        0.33145         115.554         103.813 
       0.337538         111.728         99.8636 
       0.343633         108.276         96.0989 
       0.349808         104.527         92.5582 
       0.355968         101.366         89.3366 
       0.362074         99.3622         86.4268 
       0.368217         96.5848         83.7216 
       0.374374         94.4234         81.1606 
       0.380519         90.4886         78.6827 
       0.386598         88.0579         76.2729 
       0.392688         85.4227         73.8906 
        0.39888         83.7659         71.5148 
       0.405048         81.6901         69.2297 
       0.411186         79.6146         67.0627 
       0.417313         77.3873         65.0214 
       0.423458         75.2329          63.103 
       0.429607         73.9028         61.2955 
       0.435692         72.6672         59.5963 
       0.441815         70.0123         57.9561 
       0.447964         67.9223         56.3599 
       0.454126         66.7218         54.7999 
       0.460267         66.0628         53.2861 
       0.466387         64.2462         51.8234 
        0.47254         63.3269         50.4041 
       0.478662          61.215         49.0491 
       0.484765         60.0457         47.7594 
       0.490885         58.3725         46.5253 
       0.497035         57.6341          45.337 
       0.503198         56.2965         44.1923 
       0.509342         54.8123         43.0911 
       0.515458         54.1248         42.0295 
       0.521598          52.831          40.994 
       0.527764         52.1256         39.9841 
       0.533884         51.1522         39.0132 
           0.54         50.0405          38.076 
       0.546137         48.5928         37.1691 
       0.552299         47.7884         36.2908 
       0.558452         46.8155         35.4451 
       0.564573         46.4615         34.6329 
       0.570708         45.1647          33.846 
       0.576825          44.632         33.0862 
       0.582926         43.9285          32.351 
       0.589034         43.0656         31.6357 
       0.595184         42.5116         30.9362 
       0.601379         41.3766         30.2528 
       0.607522         40.7457          29.596 
       0.613639         40.1873         28.9625 
       0.619772         39.4669         28.3471 
       0.625918         38.7483         27.7491 
       0.632068         38.4134         27.1685 
       0.638161          37.632           26.61 
         0.6443         37.1183         26.0632 
       0.650464         36.2174         25.5299 
       0.656582         36.0131         25.0154 
       0.662703          35.577         24.5151 
       0.668861         34.6632         24.0257 
       0.675024         34.3119         23.5494 
       0.681124         34.0494         23.0909 
       0.687237         33.3625          22.644 
       0.693381         32.7609         22.2069 
       0.699536         32.5855         21.7809 
       0.705665           31.99         21.3681 
       0.711789         31.4551         20.9666 
       0.717957         30.8664         20.5728 
        0.72409         30.5832         20.1915 
       0.730186         30.4421         19.8222 
       0.736317         29.8342         19.4603 
       0.742472         29.4769         19.1062 
       0.748622         29.0235         18.7613 
        0.75476         28.3498         18.4258 
       0.760888         28.2913          18.099 
       0.767043         27.8062          17.779 
       0.773185         27.5226         17.4675 
       0.779291         27.2147         17.1653 
       0.785407         26.7895         16.8699 
       0.791564         26.6608         16.5796 
       0.797719         26.0915         16.2965 
       0.803834          25.969         16.0218 
       0.809972         25.4999         15.7525 
       0.816124          25.237          15.489 
       0.822261         24.9709         15.2322 
       0.828378         24.7304         14.9821 
       0.834502         24.4803         14.7375 
       0.840667         24.2228         14.4968 
       0.846816          23.711         14.2623 
       0.852925         23.6556         14.0344 
       0.859047          23.404         13.8111 
       0.865192         23.0703         13.5921 
       0.871341          22.789         13.3776 
       0.877463         22.5501         13.1688 
       0.883569         22.4337         12.9651 
       0.889708         22.0892         12.7646 
       0.895864         21.8166          12.568 
       0.902008         21.5777         12.3759 
       0.908149          21.328          12.188 
       0.914301         21.2196         12.0038 
       0.920448         20.9191         11.8235 
       0.926574           20.75         11.6477 
       0.932687         20.4932         11.4758 
       0.938823         20.2393         11.3068 
       0.944975         20.0949         11.1409 
       0.951105         19.8961         10.9789 
       0.957225         19.7711         10.8205 
       0.963368         19.4706         10.6647 
       0.969511         19.2936          10.512 
       0.975621         19.1296         10.3631 
       0.981748         18.8956         10.2168 
       0.987916         18.7798         10.0723 
        0.99406         18.5528          9.9313 
        1.00019           18.43         9.79325 
        1.00632         18.2817         9.65798 
        1.01246         18.1042         9.52508 
        1.01859         17.8987         9.39493 
        1.02471         17.7248         9.26739 
        1.03085         17.6518          9.1418 
        1.03698         17.4976         9.01882 
        1.04314         17.2816         8.89761 
        1.04929         17.0847         8.77893 
        1.05541         17.0154         8.66291 
        1.06154         16.8777         8.54872 
        1.06769         16.7173         8.43643 
        1.07382         16.5011         8.32654 
        1.07993         16.3732         8.21888 
        1.08607         16.2963          8.1127 
        1.09222         16.1075          8.0083 
        1.09836         16.0102         7.90588 
        1.10449         15.8511         7.80538 
        1.11063         15.7719         7.70654 
        1.11677         15.6811         7.60946 
         1.1229         15.5205         7.51424 
        1.12903         15.3965         7.42058 
        1.13518         15.2267         7.32845 
        1.14131         15.1495         7.23795 
        1.14745         14.9411         7.14905 
        1.15359         14.8257         7.06163 
        1.15973         14.7197         6.97566 
        1.16584         14.6038         6.89151 
        1.17197         14.4743         6.80865 
        1.17811         14.3791          6.7269 
        1.18424         14.2818         6.64675 
        1.19038         14.2095         6.56769 
        1.19652         14.0656         6.48995 
        1.20267         13.9869         6.41348 
        1.20881         13.8253         6.33827 
        1.21495         13.7393         6.26439 
        1.22108         13.6854         6.19171 
         1.2272         13.5681         6.12036 
        1.23334         13.4959         6.04998 
        1.23949         13.3728         5.98055 
        1.24562         13.2563         5.91241 
        1.25174          13.197         5.84544 
        1.25789         13.0631         5.77931 
        1.26402          13.013         5.71434 
        1.27014         12.9469         5.65052 
        1.27628         12.7838          5.5875 
        1.28244         12.7785         5.52532 
        1.28858         12.6444         5.46419 
        1.29471         12.4953         5.40412 
        1.30084          12.423         5.34501 
        1.30697         12.4104         5.28671 
        1.31312         12.2814          5.2292 
        1.31925         12.2198         5.17273 
        1.32537         12.1278         5.11715 
        1.33151         12.0488          5.0622 
        1.33765         11.9678          5.0081 
        1.34378         11.9386          4.9549 
        1.34992          11.822         4.90243 
        1.35606         11.7143         4.85063 
         1.3622         11.6345         4.79966 
        1.36833         11.6043         4.74956 
        1.37445         11.5312         4.70021 
        1.38059         11.4533         4.65141 
        1.38675          11.381         4.60319 
        1.39288         11.2737         4.55585 
        1.39901         11.2185          4.5092 
        1.40515         11.1465         4.46311 
         1.4113         11.0671         4.41769 
        1.41742         11.0286         4.37307 
        1.42355         10.9228         4.32899 
         1.4297         10.8762         4.28539 
        1.43585          10.823         4.24241 
        1.44198         10.7691         4.20019 
        1.44809         10.6902         4.15863 
        1.45423         10.6113         4.11748 
        1.46036         10.5547         4.07697 
        1.46649         10.4897         4.03699 
        1.47263          10.445         3.99752 
        1.47877         10.3721          3.9586 
        1.48491         10.3273         3.92014 
        1.49104         10.2438         3.88227 
        1.49718         10.2084         3.84488 
        1.50333         10.1432         3.80792 
        1.50947         10.0786         3.77153 
         1.5156         10.0415         3.73567 
        1.52172         9.97157         3.70028 
        1.52787         9.93037         3.66528 
          1.534         9.86757         3.63078 
        1.54013         9.82244         3.59676 
        1.54627         9.75222         3.56311 
        1.55241          9.6768          3.5299 
        1.55855         9.66304         3.49715 
        1.56467         9.60748         3.46491 
         1.5708         9.55553           3.433 
        1.57695         9.48604         3.40144 
        1.58308         9.42554         3.37035 
        1.58922         9.39466         3.33963 
        1.59535          9.3429          3.3093 
         1.6015         9.25659         3.27932 
        1.60764         9.22818         3.24972 
        1.61376          9.1999         3.22057 
        1.61989         9.12024         3.19176 
        1.62604           9.102         3.16323 
        1.63218         9.05805         3.13508 
        1.63831         8.99439         3.10734 
        1.64444         8.92671         3.07992 
        1.65059         8.88555         3.05277 
        1.65673         8.86675         3.02598 
        1.66285         8.81203         2.99959 
        1.66898         8.77997          2.9735 
        1.67512         8.72744         2.94768 
        1.68127         8.65468         2.92215 
         1.6874         8.63864         2.89697 
        1.69353         8.57305         2.87211 
        1.69967         8.54954         2.84748 
        1.70581          8.4948         2.82315 
        1.71193         8.46874         2.79921 
        1.71806         8.42167         2.77549 
        1.72421         8.36977           2.752 
        1.73035          8.3413         2.72881 
        1.73649         8.30661         2.70589 
        1.74262          8.2256         2.68326 
        1.74876         8.23414         2.66087 
        1.75489         8.18434         2.63878 
        1.76101         8.11813         2.61695 
        1.76715         8.11013         2.59534 
        1.77329         8.06837         2.57395 
        1.77943         8.00364         2.55279 
        1.78557         8.00797         2.53191 
        1.79171         7.95657         2.51125 
        1.79785         7.92869         2.49082 
        1.80399         7.85874         2.47062 
        1.81012         7.84102         2.45068 
        1.81625          7.7879         2.43097 
        1.82239         7.76251         2.41144 
        1.82853         7.71271         2.39214 
        1.83466         7.66416         2.37307 
        1.84078          7.6511         2.35423 
        1.84692         7.62038         2.33557 
        1.85306         7.58579         2.31708 
         1.8592          7.5606         2.29883 
        1.86533         7.52638         2.28078 
        1.87147         7.48592         2.26291 
        1.87761         7.46223         2.24522 
        1.88375         7.41771         2.22775 
        1.88988         7.38072         2.21048 
        1.89601         7.36215         2.19338 
        1.90215         7.31105         2.17645 
        1.90829         7.29087         2.15971 
        1.91442         7.24916         2.14315 
        1.92056         7.24714         2.12677 
         1.9267         7.18956         2.11055 
        1.93284          7.1812         2.09449 
        1.93897         7.13122         2.07863 
        1.94509         7.08402         2.06297 
        1.95123         7.07957         2.04743 
        1.95737          7.0515         2.03204 
        1.96349         6.99681         2.01685 
        1.96964         6.97044         2.00177 
        1.97578         6.95067         1.98684 
        1.98192         6.91647          1.9721 
        1.98805         6.89347          1.9575 
        1.99419         6.87139         1.94305 
        2.00033         6.82926         1.92874 
        2.00647         6.81412         1.91457 
         2.0126         6.78569         1.90058 
        2.01874         6.74526          1.8867 
        2.02488         6.72855         1.87295 
        2.03101         6.68958         1.85937 
        2.03714          6.6551         1.84593 
        2.04328          6.6348         1.83261 
        2.04941         6.60186         1.81943 
        2.05554         6.58972          1.8064 
        2.06167         6.56578         1.79347 
        2.06781         6.52741         1.78067 
        2.07396         6.50246         1.76797 
        2.08009         6.47089         1.75543 
        2.08622         6.46332         1.74301 
        2.09237         6.44068          1.7307 
        2.09851         6.39291          1.7185 
        2.10464         6.38082         1.70644 
        2.11077         6.34898         1.69451 
        2.11691         6.33921         1.68267 
        2.12305         6.30169         1.67095 
        2.12918         6.28077         1.65936 
        2.13531         6.25558         1.64788 
        2.14145         6.23214         1.63649 
         2.1476         6.21101         1.62519 
        2.15372         6.17832         1.61405 
        2.15985         6.16433         1.60301 
        2.16599         6.14257         1.59204 
        2.17213         6.13419         1.58119 
        2.17827         6.08774         1.57044 
         2.1844         6.07176          1.5598 
        2.19054         6.05561         1.54925 
        2.19666         6.02544         1.53882 
         2.2028         5.99389         1.52847 
        2.20893          5.9859         1.51822 
        2.21508         5.96128         1.50804 
        2.22122         5.91787         1.49796 
        2.22736          5.9049         1.48799 
        2.23349         5.88593         1.47812 
        2.23962         5.87344         1.46833 
        2.24577         5.84032         1.45862 
         2.2519         5.83968         1.44901 
        2.25802         5.77801         1.43951 
        2.26417         5.77803         1.43006 
        2.27031         5.75511         1.42069 
        2.27644         5.73597         1.41143 
        2.28257         5.70935         1.40226 
        2.28872         5.69697         1.39315 
        2.29486         5.67158         1.38412 
        2.30099          5.6581         1.37519 
        2.30712         5.63019         1.36634 
        2.31326         5.61119         1.35755 
         2.3194         5.58672         1.34885 
        2.32553         5.56583         1.34023 
        2.33166         5.55121         1.33169 
         2.3378         5.53204         1.32322 
        2.34394         5.50973         1.31482 
        2.35007         5.48618          1.3065 
        2.35619         5.47911         1.29827 
        2.36233          5.4448         1.29008 
        2.36848         5.43529         1.28196 
        2.37462         5.41558         1.27391 
        2.38075         5.40315         1.26595 
        2.38689         5.38601         1.25805 
        2.39303         5.35389         1.25021 
        2.39916         5.34454         1.24246 
        2.40529         5.31907         1.23476 
        2.41143         5.30829         1.22713 
        2.41757         5.28934         1.21956 
         2.4237         5.26988         1.21207 
        2.42983         5.25645         1.20464 
        2.43598         5.24186         1.19726 
        2.44211         5.21853         1.18994 
        2.44823         5.19073         1.18271 
        2.45437         5.17906         1.17552 
        2.46052         5.16731         1.16838 
        2.46665         5.14977         1.16131 
        2.47279         5.12673         1.15431 
        2.47892         5.10737         1.14736 
        2.48507          5.0963         1.14045 
         2.4912         5.07601         1.13362 
