# k  (h/Mpc)    P(k)  (Mpc/h)^3    P_linear(k)  (Mpc/h)^3
     0.00783031         8505.46         8614.95 
       0.013688         11555.8         11492.8 
       0.019231           12387         12393.9 
      0.0249154         11926.4         12155.6 
      0.0312784         11027.6         11162.9 
      0.0375637         9912.21         9963.24 
      0.0433917         8756.49         8945.88 
      0.0492413          8027.9         8130.66 
      0.0555754         7235.39          7482.9 
      0.0619321         6953.31         7005.67 
       0.067871         6407.87          6627.5 
      0.0738098          6022.4         6242.97 
      0.0800417          5513.9         5792.09 
      0.0862327         5092.61         5297.68 
      0.0921407         4684.36         4814.21 
      0.0982031         4214.37         4349.09 
       0.104506         3921.91         3936.62 
       0.110769         3607.93         3616.75 
       0.116806         3363.23         3389.44 
       0.122832         3212.91         3222.49 
       0.129052         3013.06         3084.66 
       0.135211         2887.82         2954.63 
       0.141259         2784.36          2813.9 
       0.147318         2645.82         2652.95 
       0.153489         2445.17         2473.45 
       0.159709         2311.54         2290.06 
       0.165845         2210.96         2121.77 
       0.171974         2068.29         1977.54 
       0.178125          1961.3         1861.59 
       0.184229         1883.22         1773.14 
        0.19034         1773.53         1704.28 
       0.196428         1750.82         1645.99 
       0.202534            1699          1588.9 
       0.208729         1628.86         1525.95 
       0.214876         1556.54         1456.18 
       0.220989            1513         1381.25 
       0.227147         1435.88         1304.55 
        0.23329          1378.7         1231.92 
       0.239377         1353.57         1167.84 
       0.245482         1267.33         1113.45 
       0.251667         1259.01         1068.19 
       0.257832          1214.5          1030.8 
       0.263955         1177.87         998.206 
       0.270079         1141.81         966.947 
        0.27624          1132.4         934.521 
       0.282372          1084.5         900.174 
        0.28843         1070.68         864.449 
       0.294538         1019.98         827.907 
       0.300721         1016.51         792.029 
        0.30691         972.727          758.81 
       0.313033         954.991         729.463 
       0.319153         933.674         703.854 
       0.325316         904.782         681.223 
        0.33145         883.565         660.935 
       0.337538         873.908          641.88 
       0.343633         849.844         623.035 
       0.349808         823.638         603.603 
       0.355968         819.356         583.826 
       0.362074         806.878         564.104 
       0.368217         784.911         544.655 
       0.374374         754.948         526.101 
       0.380519         751.619         508.868 
       0.386598          735.22         493.281 
       0.392688         732.771         479.004 
        0.39888         711.572         465.595 
       0.405048         700.988         453.005 
       0.411186         689.651         440.864 
       0.417313         677.068           428.9 
       0.423458         667.165         416.972 
       0.429607         654.785         405.098 
       0.435692         641.283         393.571 
       0.441815         638.132         382.355 
       0.447964         625.119         371.604 
       0.454126         611.218          361.44 
       0.460267         602.526         351.946 
       0.466387         596.171         343.021 
        0.47254         585.706         334.486 
       0.478662         584.298         326.325 
       0.484765         568.643         318.414 
       0.490885          563.62         310.621 
       0.497035         553.356          302.93 
       0.503198         546.216         295.395 
       0.509342         541.701         288.083 
       0.515458          537.44         281.042 
       0.521598         527.176         274.253 
       0.527764         516.336         267.745 
       0.533884          515.12          261.57 
           0.54         508.475         255.645 
       0.546137         506.924         249.911 
       0.552299         497.642         244.337 
       0.558452         494.708         238.927 
       0.564573         486.781          233.67 
       0.570708         480.448         228.517 
       0.576825         471.003         223.509 
       0.582926         469.903          218.66 
       0.589034         465.314          213.96 
       0.595184         461.243         209.385 
       0.601379         456.504         204.932 
       0.607522         449.465         200.663 
       0.613639         448.672          196.55 
       0.619772         437.001         192.553 
       0.625918         436.256         188.662 
       0.632068          430.57         184.871 
       0.638161         428.969         181.206 
         0.6443         420.899         177.601 
       0.650464         418.758         174.076 
       0.656582         417.824         170.672 
       0.662703         414.099         167.363 
       0.668861         407.028         164.132 
       0.675024         403.873         160.992 
       0.681124         402.068          157.97 
       0.687237          397.68         155.023 
       0.693381          392.59         152.138 
       0.699536         388.926         149.321 
       0.705665         386.979         146.587 
       0.711789         383.048         143.923 
       0.717957         380.204         141.308 
        0.72409         376.751         138.773 
       0.730186          373.22         136.316 
       0.736317         370.009         133.906 
       0.742472         368.786         131.547 
       0.748622         365.165         129.247 
        0.75476         361.851         127.008 
       0.760888         357.435         124.827 
       0.767043         357.519          122.69 
       0.773185         352.672         120.608 
       0.779291          347.76         118.588 
       0.785407         346.631         116.611 
       0.791564         343.309         114.668 
       0.797719         340.824         112.771 
       0.803834         338.496          110.93 
       0.809972         336.187         109.123 
       0.816124         336.679         107.353 
       0.822261         330.748         105.628 
       0.828378         329.332         103.946 
       0.834502         328.008           102.3 
       0.840667         323.106          100.68 
       0.846816         322.265         99.0993 
       0.852925         319.538         97.5633 
       0.859047         318.257          96.057 
       0.865192         315.635         94.5781 
       0.871341         312.633         93.1297 
       0.877463           310.7         91.7187 
       0.883569         308.571          90.341 
       0.889708         306.293         88.9849 
       0.895864         302.606         87.6536 
       0.902008         302.283         86.3527 
       0.908149         300.524         85.0793 
       0.914301         297.061         83.8299 
       0.920448         294.633         82.6072 
       0.926574         292.985         81.4135 
       0.932687         292.771         80.2462 
       0.938823         289.201          79.098 
       0.944975         287.989         77.9699 
       0.951105         286.179         76.8681 
       0.957225         283.489         75.7898 
       0.963368         280.383         74.7287 
       0.969511         279.004         73.6883 
       0.975621         276.854         72.6735 
       0.981748         277.332         71.6754 
       0.987916         273.974         70.6901 
        0.99406         271.343         69.7272 
        1.00019         271.412         68.7844 
        1.00632         268.981         67.8601 
        1.01246         266.892         66.9516 
        1.01859         266.399         66.0614 
        1.02471         263.723         65.1887 
        1.03085             261          64.329 
        1.03698         260.136         63.4867 
        1.04314         258.394         62.6562 
        1.04929         256.221         61.8426 
        1.05541         255.594          61.047 
        1.06154         253.299         60.2635 
        1.06769         252.683         59.4928 
        1.07382          250.94         58.7382 
        1.07993         249.015         57.9986 
        1.08607         248.007         57.2688 
        1.09222         246.284          56.551 
        1.09836         244.073         55.8465 
        1.10449         241.937         55.1549 
        1.11063         240.349         54.4745 
        1.11677          239.97         53.8058 
         1.1229         237.966         53.1497 
        1.12903         236.615         52.5041 
        1.13518         235.432         51.8688 
        1.14131         233.655         51.2445 
        1.14745         233.147         50.6309 
        1.15359         230.926         50.0274 
        1.15973         230.532         49.4336 
        1.16584         227.884         48.8522 
        1.17197         227.412         48.2795 
        1.17811         225.748         47.7142 
        1.18424         224.431         47.1598 
        1.19038         223.683         46.6127 
        1.19652         222.116         46.0745 
        1.20267         221.036          45.545 
        1.20881         219.382          45.024 
        1.21495         217.887          44.512 
        1.22108         217.278         44.0082 
         1.2272         215.444         43.5135 
        1.23334         214.195         43.0253 
        1.23949         212.575         42.5435 
        1.24562         211.844         42.0705 
        1.25174         209.184         41.6054 
        1.25789         208.514         41.1461 
        1.26402         207.657         40.6946 
        1.27014         206.243          40.251 
        1.27628         205.318         39.8128 
        1.28244          204.65         39.3803 
        1.28858         202.984         38.9549 
        1.29471         200.975         38.5368 
        1.30084         200.147         38.1252 
        1.30697         198.976         37.7192 
        1.31312         198.128         37.3185 
        1.31925         197.122         36.9249 
        1.32537         196.116         36.5375 
        1.33151         194.375         36.1543 
        1.33765         193.626         35.7769 
        1.34378         192.429         35.4057 
        1.34992          191.43         35.0395 
        1.35606         190.523         34.6778 
         1.3622         189.495         34.3218 
        1.36833         187.982         33.9718 
        1.37445         186.547         33.6269 
        1.38059         186.044         33.2857 
        1.38675         184.673         32.9485 
        1.39288         183.963         32.6174 
        1.39901         183.472          32.291 
        1.40515         182.136         31.9684 
         1.4113         180.248         31.6504 
        1.41742         179.907          31.338 
        1.42355         178.301         31.0292 
         1.4297         177.436         30.7237 
        1.43585         175.994         30.4225 
        1.44198         175.719         30.1265 
        1.44809         174.579          29.835 
        1.45423         173.107         29.5463 
        1.46036         172.626         29.2621 
        1.46649         171.699         28.9815 
        1.47263         170.864         28.7044 
        1.47877         169.742          28.431 
        1.48491         168.405         28.1609 
        1.49104         167.787         27.8948 
        1.49718         166.103          27.632 
        1.50333         165.561         27.3723 
        1.50947          164.75         27.1164 
         1.5156         163.845         26.8642 
        1.52172         162.787         26.6152 
        1.52787          161.94         26.3689 
          1.534         161.299         26.1261 
        1.54013          159.74         25.8866 
        1.54627          159.36         25.6497 
        1.55241         158.181         25.4157 
        1.55855         157.502          25.185 
        1.56467         156.625         24.9579 
         1.5708         155.583         24.7329 
        1.57695         154.766         24.5104 
        1.58308         154.067         24.2911 
        1.58922          153.46         24.0744 
        1.59535         152.208         23.8605 
         1.6015         151.736         23.6488 
        1.60764         150.603         23.4399 
        1.61376         149.899         23.2341 
        1.61989         149.002         23.0306 
        1.62604         148.214         22.8291 
        1.63218          147.45         22.6302 
        1.63831         146.472         22.4341 
        1.64444         145.753         22.2403 
        1.65059         145.055         22.0483 
        1.65673         143.971         21.8589 
        1.66285         143.725         21.6722 
        1.66898         142.688         21.4876 
        1.67512         141.945         21.3049 
        1.68127         140.971         21.1241 
         1.6874         139.695         20.9459 
        1.69353         139.293         20.7698 
        1.69967         138.755         20.5953 
        1.70581         137.915          20.423 
        1.71193          137.16         20.2533 
        1.71806         136.287         20.0852 
        1.72421         135.827         19.9186 
        1.73035         134.788         19.7542 
        1.73649         134.185         19.5917 
        1.74262         133.587         19.4311 
        1.74876          132.92         19.2723 
        1.75489         131.656         19.1155 
        1.76101          131.37         18.9606 
        1.76715         130.222         18.8072 
        1.77329           129.9         18.6553 
        1.77943         129.061          18.505 
        1.78557         128.403         18.3567 
        1.79171         127.654         18.2099 
        1.79785         127.003         18.0647 
        1.80399         126.338         17.9212 
        1.81012         125.723         17.7794 
        1.81625         124.872         17.6392 
        1.82239         124.594         17.5004 
        1.82853         123.986         17.3631 
        1.83466         122.991         17.2274 
        1.84078         122.669         17.0933 
        1.84692         121.608         16.9605 
        1.85306         120.891         16.8289 
         1.8592         120.158         16.6989 
        1.86533         119.698         16.5704 
        1.87147         118.704         16.4431 
        1.87761         118.418         16.3171 
        1.88375         117.532         16.1925 
        1.88988         116.945         16.0695 
        1.89601          116.32         15.9476 
        1.90215         115.863         15.8269 
        1.90829         115.082         15.7075 
        1.91442         114.789         15.5894 
        1.92056         114.056         15.4726 
         1.9267         113.427         15.3568 
        1.93284         112.659         15.2422 
        1.93897         112.125          15.129 
        1.94509         111.651         15.0172 
        1.95123         111.051         14.9063 
        1.95737         110.615         14.7964 
        1.96349         109.846         14.6879 
        1.96964         108.894         14.5801 
        1.97578         108.786         14.4735 
        1.98192         107.973         14.3681 
        1.98805          107.19         14.2637 
        1.99419         106.681         14.1604 
        2.00033         106.296         14.0581 
        2.00647         105.743         13.9568 
         2.0126         105.174         13.8567 
        2.01874         104.433         13.7575 
        2.02488         104.041         13.6591 
        2.03101         103.495         13.5619 
        2.03714         102.828         13.4657 
        2.04328         102.353         13.3704 
        2.04941         101.688          13.276 
        2.05554         101.231         13.1827 
        2.06167         100.697         13.0901 
        2.06781         100.201         12.9984 
        2.07396         99.5991         12.9075 
        2.08009         98.9728         12.8176 
        2.08622         98.6809         12.7286 
        2.09237         97.9888         12.6403 
        2.09851         97.5745         12.5529 
        2.10464         97.0578         12.4664 
        2.11077         96.4202         12.3809 
        2.11691         96.1215          12.296 
        2.12305         95.5416         12.2119 
        2.12918         94.9341         12.1287 
        2.13531         94.6471         12.0464 
        2.14145         93.7122         11.9646 
         2.1476         93.5187         11.8835 
        2.15372         93.0327         11.8036 
        2.15985         92.5717         11.7243 
        2.16599         92.0722         11.6455 
        2.17213         91.5346         11.5676 
        2.17827         91.1005         11.4903 
         2.1844         90.5428         11.4139 
        2.19054         90.2627         11.3381 
        2.19666         89.6417         11.2632 
         2.2028         89.3164         11.1888 
        2.20893         88.7166         11.1151 
        2.21508         88.1554          11.042 
        2.22122         87.9755         10.9695 
        2.22736         87.2936         10.8978 
        2.23349          87.008         10.8268 
        2.23962         86.3886         10.7564 
        2.24577         85.8847         10.6865 
         2.2519         85.6956         10.6174 
        2.25802         85.0473          10.549 
        2.26417         84.5758          10.481 
        2.27031         84.3415         10.4135 
        2.27644          83.782         10.3469 
        2.28257          83.205         10.2808 
        2.28872         82.9608         10.2152 
        2.29486         82.5985         10.1502 
        2.30099         82.0434         10.0859 
        2.30712          81.643         10.0221 
        2.31326         81.2032         9.95874 
         2.3194         80.8957         9.89599 
        2.32553         80.3796         9.83389 
        2.33166         79.9058         9.77236 
         2.3378         79.4341         9.71127 
        2.34394         79.1278         9.65069 
        2.35007         78.6277         9.59071 
        2.35619         78.1322         9.53132 
        2.36233         77.7362          9.4723 
        2.36848         77.5339         9.41365 
        2.37462         77.1949         9.35563 
        2.38075         76.8265         9.29816 
        2.38689          76.345         9.24113 
        2.39303          75.991         9.18458 
        2.39916         75.7637         9.12857 
        2.40529         75.2119         9.07304 
        2.41143         74.7387         9.01793 
        2.41757          74.537         8.96326 
         2.4237         74.1583         8.90914 
        2.42983          73.701         8.85548 
        2.43598         73.3004         8.80212 
        2.44211          72.948         8.74929 
        2.44823         72.5815         8.69702 
        2.45437         72.1033         8.64503 
        2.46052         71.7489         8.59343 
        2.46665         71.4071         8.54234 
        2.47279         71.0839         8.49169 
        2.47892         70.7793         8.44141 
        2.48507         70.2924          8.3915 
         2.4912         70.0626          8.3421 
