# k  (h/Mpc)    P(k)  (Mpc/h)^3    P_linear(k)  (Mpc/h)^3
     0.00783031         17183.6         17490.4 
       0.013688         22502.9         22326.4 
       0.019231         23159.3         23181.1 
      0.0249154         21307.3         21882.8 
      0.0312784         18964.3         19294.1 
      0.0375637         16544.2         16641.8 
      0.0433917         14218.2         14605.2 
      0.0492413         12904.8         13099.7 
      0.0555754         11474.9           11984 
      0.0619321         11084.7         11185.2 
       0.067871         10077.4         10523.6 
      0.0738098         9383.36         9805.61 
      0.0800417         8435.92         8941.03 
      0.0862327         7680.66         8011.18 
      0.0921407         7013.69         7144.97 
      0.0982031         6246.66            6365 
       0.104506         5838.67         5727.48 
       0.110769         5387.25         5276.12 
       0.116806          5078.1         4979.57 
       0.122832         4848.78         4764.48 
       0.129052         4523.67         4566.18 
       0.135211         4311.36          4345.8 
       0.141259         4145.09         4085.42 
       0.147318         3913.71         3787.74 
       0.153489         3584.02         3473.17 
       0.159709          3385.4         3177.39 
       0.165845         3263.91         2931.47 
       0.171974         3079.87         2741.82 
       0.178125         2932.55         2603.52 
       0.184229         2804.81         2503.04 
        0.19034         2677.59         2419.58 
       0.196428         2626.92         2335.32 
       0.202534         2525.97         2237.78 
       0.208729         2422.58         2122.43 
       0.214876         2334.23         1996.98 
       0.220989         2253.99         1871.49 
       0.227147         2163.58         1754.95 
        0.23329         2080.79         1655.86 
       0.239377         2055.03         1576.99 
       0.245482         1935.34         1515.04 
       0.251667         1927.38          1464.2 
       0.257832         1853.58         1418.52 
       0.263955         1794.13         1372.23 
       0.270079         1737.43         1321.45 
        0.27624         1716.67         1265.36 
       0.282372         1647.77         1206.71 
        0.28843         1647.61          1149.3 
       0.294538         1571.13         1095.47 
       0.300721         1559.14         1047.39 
        0.30691         1505.53         1006.56 
       0.313033         1474.84         972.398 
       0.319153          1459.2          942.58 
       0.325316         1410.28         914.545 
        0.33145         1382.24         886.722 
       0.337538         1356.43         857.946 
       0.343633         1332.78         827.945 
       0.349808         1292.11         796.912 
       0.355968         1281.44         766.548 
       0.362074         1272.09         738.121 
       0.368217         1231.29         712.017 
       0.374374         1191.69         688.624 
       0.380519         1195.34         667.709 
       0.386598         1161.35         648.844 
       0.392688         1155.44          630.94 
        0.39888            1125         613.079 
       0.405048         1115.23         595.263 
       0.411186         1099.02         577.328 
       0.417313         1076.03         559.489 
       0.423458         1058.52         542.006 
       0.429607         1046.86         525.255 
       0.435692         1027.97         509.714 
       0.441815         1019.77         495.224 
       0.447964         998.934         481.693 
       0.454126         993.826         468.992 
       0.460267         969.548         456.937 
       0.466387         955.617         445.254 
        0.47254         956.488         433.666 
       0.478662         942.477         422.292 
       0.484765         919.604         411.131 
       0.490885          914.43         400.191 
       0.497035         894.702         389.577 
       0.503198         890.802         379.444 
       0.509342         879.496         369.868 
       0.515458         876.381         360.806 
       0.521598         856.462          352.13 
       0.527764         841.178         343.775 
       0.533884         839.446         335.752 
           0.54         833.638         327.924 
       0.546137         822.303         320.215 
       0.552299         814.589         312.647 
       0.558452         806.688         305.298 
       0.564573         796.858         298.219 
       0.570708         789.192         291.367 
       0.576825         769.405         284.783 
       0.582926         773.671         278.468 
       0.589034         764.949         272.389 
       0.595184         758.174         266.485 
       0.601379         748.502         260.724 
       0.607522         737.657         255.161 
       0.613639         738.375          249.75 
       0.619772         724.559         244.456 
       0.625918          718.36         239.292 
       0.632068         710.597         234.274 
       0.638161         707.436         229.455 
         0.6443          695.91         224.751 
       0.650464         694.771         220.171 
       0.656582         688.217         215.761 
       0.662703         685.558         211.475 
       0.668861         674.227         207.286 
       0.675024         668.059         203.209 
       0.681124         664.825         199.283 
       0.687237         659.853         195.452 
       0.693381         652.047         191.702 
       0.699536         640.145          188.04 
       0.705665         641.115         184.487 
       0.711789         636.844         181.028 
       0.717957         631.024         177.635 
        0.72409         627.755         174.349 
       0.730186         618.409          171.17 
       0.736317          616.03         168.057 
       0.742472         611.601         165.013 
       0.748622         605.475         162.049 
        0.75476         596.045         159.166 
       0.760888         592.536         156.358 
       0.767043         590.274         153.607 
       0.773185         585.462         150.927 
       0.779291         580.492         148.326 
       0.785407         574.609         145.782 
       0.791564         569.494         143.282 
       0.797719         567.779         140.841 
       0.803834         561.242         138.474 
       0.809972         558.422         136.154 
       0.816124         557.134         133.882 
       0.822261         548.655         131.669 
       0.828378         545.925         129.514 
       0.834502          540.36         127.405 
       0.840667         536.163         125.331 
       0.846816         533.079         123.309 
       0.852925         529.446         121.346 
       0.859047         528.367         119.421 
       0.865192         520.841         117.532 
       0.871341         516.762         115.683 
       0.877463         516.443         113.883 
       0.883569         510.564         112.126 
       0.889708         508.491         110.397 
       0.895864         506.629         108.701 
       0.902008         502.161         107.044 
       0.908149         494.807         105.423 
       0.914301           493.6         103.834 
       0.920448          491.27         102.279 
       0.926574          483.06         100.761 
       0.932687         481.912         99.2777 
       0.938823         477.673         97.8192 
       0.944975         477.345          96.387 
       0.951105         472.205         94.9888 
       0.957225         468.675         93.6209 
       0.963368         464.059         92.2756 
       0.969511         462.907         90.9568 
       0.975621         459.997         89.6711 
       0.981748         456.115         88.4072 
       0.987916         453.556         87.1599 
        0.99406         446.886         85.9414 
        1.00019         445.362         84.7489 
        1.00632         443.188         83.5803 
        1.01246          439.76         82.4321 
        1.01859         438.719         81.3076 
        1.02471         433.577         80.2055 
        1.03085         431.735         79.1203 
        1.03698         429.433         78.0576 
        1.04314         425.696           77.01 
        1.04929         421.095         75.9843 
        1.05541         422.284         74.9815 
        1.06154         415.906         73.9944 
        1.06769         413.639         73.0238 
        1.07382         410.592          72.074 
        1.07993          408.48         71.1433 
        1.08607         407.386         70.2253 
        1.09222         402.468         69.3228 
        1.09836         399.802         68.4373 
        1.10449         397.476         67.5684 
        1.11063         391.924         66.7138 
        1.11677         393.513         65.8743 
         1.1229         390.453         65.0509 
        1.12903         387.559          64.241 
        1.13518         383.115         63.4442 
        1.14131         381.957         62.6616 
        1.14745         378.623         61.8927 
        1.15359          376.99         61.1366 
        1.15973         374.704         60.3929 
        1.16584         371.881         59.6651 
        1.17197         370.296         58.9482 
        1.17811         367.017         58.2411 
        1.18424         363.631         57.5476 
        1.19038         362.046         56.8636 
        1.19652          360.31         56.1909 
        1.20267         358.178         55.5292 
        1.20881          355.82         54.8784 
        1.21495         353.112         54.2391 
        1.22108         350.951         53.6101 
         1.2272         348.592         52.9926 
        1.23334         346.696         52.3835 
        1.23949         343.448         51.7826 
        1.24562         342.079         51.1928 
        1.25174         340.112         50.6132 
        1.25789         336.183         50.0408 
        1.26402         334.518         49.4784 
        1.27014         332.339          48.926 
        1.27628         329.758         48.3805 
        1.28244         330.228         47.8422 
        1.28858         326.418          47.313 
        1.29471         325.325         46.7929 
        1.30084         322.569         46.2812 
        1.30697         321.308         45.7764 
        1.31312         317.617         45.2785 
        1.31925           316.2         44.7896 
        1.32537         315.213         44.3084 
        1.33151         312.019         43.8327 
        1.33765         309.783         43.3642 
        1.34378         308.878         42.9036 
        1.34992          306.77         42.4493 
        1.35606         304.713         42.0007 
         1.3622         302.669         41.5594 
        1.36833         301.228         41.1256 
        1.37445         298.938         40.6982 
        1.38059         296.677         40.2756 
        1.38675         294.788          39.858 
        1.39288         293.379         39.4481 
        1.39901         291.773         39.0441 
        1.40515         290.104         38.6449 
         1.4113         288.134         38.2515 
        1.41742          285.87         37.8651 
        1.42355         284.349         37.4833 
         1.4297         282.548         37.1056 
        1.43585         281.169         36.7334 
        1.44198         279.596         36.3677 
        1.44809          276.42         36.0077 
        1.45423         275.175         35.6512 
        1.46036         273.968         35.3003 
        1.46649         272.156          34.954 
        1.47263         270.731          34.612 
        1.47877         268.446         34.2748 
        1.48491         266.152         33.9416 
        1.49104         265.212         33.6136 
        1.49718         263.428         33.2896 
        1.50333           262.2         32.9694 
        1.50947         260.512         32.6541 
         1.5156         258.234         32.3434 
        1.52172         257.518         32.0368 
        1.52787         255.404         31.7335 
          1.534         254.557         31.4346 
        1.54013         251.923         31.1398 
        1.54627         250.893         30.8483 
        1.55241         249.443         30.5605 
        1.55855         247.037         30.2768 
        1.56467         246.683         29.9975 
         1.5708          245.06          29.721 
        1.57695         242.972         29.4475 
        1.58308         241.946         29.1782 
        1.58922         239.144          28.912 
        1.59535         238.496         28.6492 
         1.6015         237.128         28.3894 
        1.60764         235.595         28.1329 
        1.61376         234.524         27.8804 
        1.61989         232.884         27.6307 
        1.62604         231.069         27.3835 
        1.63218         230.164         27.1396 
        1.63831         228.577         26.8992 
        1.64444         227.181         26.6616 
        1.65059         226.291         26.4263 
        1.65673         224.476         26.1942 
        1.66285         222.814         25.9655 
        1.66898         221.813         25.7394 
        1.67512         220.695         25.5157 
        1.68127          218.45         25.2944 
         1.6874         217.364         25.0762 
        1.69353         216.477         24.8607 
        1.69967         214.903         24.6473 
        1.70581         213.757         24.4365 
        1.71193         212.168         24.2289 
        1.71806         211.307         24.0234 
        1.72421         209.583         23.8198 
        1.73035         209.061         23.6188 
        1.73649         207.675         23.4201 
        1.74262          205.87          23.224 
        1.74876         204.595         23.0299 
        1.75489         203.856         22.8385 
        1.76101         202.214         22.6493 
        1.76715         201.187          22.462 
        1.77329         200.152         22.2766 
        1.77943         198.928         22.0932 
        1.78557         197.172         21.9122 
        1.79171           196.8         21.7332 
        1.79785         195.042         21.5561 
        1.80399         194.146         21.3811 
        1.81012         192.943         21.2082 
        1.81625         191.727         21.0374 
        1.82239         190.535         20.8682 
        1.82853         189.766         20.7009 
        1.83466         188.677         20.5356 
        1.84078         187.483         20.3723 
        1.84692         186.279         20.2106 
        1.85306         185.137         20.0504 
         1.8592         184.124         19.8921 
        1.86533         183.405         19.7357 
        1.87147         182.192         19.5808 
        1.87761         180.983         19.4275 
        1.88375          179.91         19.2761 
        1.88988         178.177         19.1264 
        1.89601         178.088         18.9782 
        1.90215         176.899         18.8315 
        1.90829          175.48         18.6864 
        1.91442         174.818         18.5428 
        1.92056         173.706         18.4009 
         1.9267         172.162         18.2603 
        1.93284         171.514         18.1211 
        1.93897         170.757         17.9836 
        1.94509         169.628         17.8479 
        1.95123         168.548         17.7132 
        1.95737          167.53         17.5798 
        1.96349          166.64         17.4482 
        1.96964         165.472         17.3175 
        1.97578         164.716         17.1881 
        1.98192         163.518         17.0603 
        1.98805         162.532         16.9337 
        1.99419         161.789         16.8085 
        2.00033         160.799         16.6844 
        2.00647         159.959         16.5617 
         2.0126          158.75         16.4404 
        2.01874         158.395         16.3201 
        2.02488         157.382         16.2009 
        2.03101          156.31         16.0832 
        2.03714         155.419         15.9667 
        2.04328         154.259         15.8513 
        2.04941         153.924         15.7371 
        2.05554         152.324         15.6241 
        2.06167         151.926          15.512 
        2.06781         150.901         15.4011 
        2.07396         150.139         15.2911 
        2.08009         149.109         15.1823 
        2.08622         148.096         15.0747 
        2.09237         147.377          14.968 
        2.09851         146.577         14.8623 
        2.10464         145.997         14.7578 
        2.11077          145.02         14.6544 
        2.11691         144.158         14.5518 
        2.12305         143.384         14.4501 
        2.12918         142.604         14.3497 
        2.13531          141.96         14.2503 
        2.14145         140.682         14.1515 
         2.1476         139.893         14.0536 
        2.15372         139.529          13.957 
        2.15985         138.771         13.8613 
        2.16599         137.835         13.7663 
        2.17213         137.065         13.6722 
        2.17827         136.192          13.579 
         2.1844         135.385         13.4868 
        2.19054         134.714         13.3954 
        2.19666         133.834          13.305 
         2.2028         133.307         13.2153 
        2.20893         132.627         13.1265 
        2.21508         131.793         13.0383 
        2.22122         130.867         12.9509 
        2.22736         130.143         12.8646 
        2.23349         129.457          12.779 
        2.23962         128.739         12.6942 
        2.24577         128.124           12.61 
         2.2519         127.472         12.5268 
        2.25802          126.59         12.4444 
        2.26417         126.109         12.3625 
        2.27031         125.314         12.2813 
        2.27644         124.539         12.2011 
        2.28257         123.883         12.1216 
        2.28872         123.323         12.0427 
        2.29486         122.332         11.9644 
        2.30099         121.815         11.8871 
        2.30712         121.206         11.8103 
        2.31326         120.441         11.7342 
         2.3194         119.755         11.6587 
        2.32553         119.095         11.5841 
        2.33166         118.596         11.5101 
         2.3378         118.101         11.4367 
        2.34394         117.296         11.3639 
        2.35007         116.659         11.2918 
        2.35619         115.925         11.2204 
        2.36233         115.305         11.1495 
        2.36848         114.748         11.0791 
        2.37462         114.119         11.0094 
        2.38075          113.47         10.9404 
        2.38689         112.983         10.8719 
        2.39303         112.227         10.8041 
        2.39916          111.75         10.7368 
        2.40529         111.355         10.6702 
        2.41143         110.707         10.6041 
        2.41757         109.886         10.5385 
         2.4237         109.318         10.4736 
        2.42983          108.85         10.4092 
        2.43598         108.183         10.3452 
        2.44211         107.686         10.2819 
        2.44823         106.967         10.2192 
        2.45437         106.632         10.1569 
        2.46052         105.757          10.095 
        2.46665         105.361         10.0338 
        2.47279         105.009          9.9731 
        2.47892         104.258         9.91286 
        2.48507         103.614         9.85307 
         2.4912          103.07         9.79389 
