# k  (h/Mpc)    P(k)  (Mpc/h)^3    P_linear(k)  (Mpc/h)^3
     0.00783031         5893.73         5978.12 
       0.013688          6947.9         6933.33 
       0.019231         6564.78         6554.99 
      0.0249154          5544.2         5601.96 
      0.0312784         4433.84          4439.6 
      0.0375637         3542.86         3520.85 
      0.0433917         2944.31          2951.8 
      0.0492413         2617.76         2611.25 
      0.0555754         2376.89         2403.65 
      0.0619321         2271.12          2253.7 
       0.067871         2073.68         2092.19 
      0.0738098         1867.33         1882.25 
      0.0800417          1607.8         1625.59 
      0.0862327         1375.34         1374.91 
      0.0921407         1189.97         1175.47 
      0.0982031         1037.25         1029.01 
       0.104506         962.608         937.147 
       0.110769         908.933         889.632 
       0.116806          871.98         862.416 
       0.122832         844.339          832.49 
       0.129052         786.109         784.877 
       0.135211         723.969         719.039 
       0.141259         661.026         644.524 
       0.147318         595.448         572.241 
       0.153489         532.117         511.373 
       0.159709         492.705         467.911 
       0.165845         470.403         441.561 
       0.171974         448.566         426.486 
       0.178125         436.169         415.681 
       0.184229         422.317         402.921 
        0.19034         395.328         384.398 
       0.196428         378.807         360.007 
       0.202534         357.478         332.254 
       0.208729         329.784         304.701 
       0.214876         306.017         281.323 
       0.220989         291.645         263.646 
       0.227147         276.572         251.289 
        0.23329         266.669         242.857 
       0.239377         261.106         236.165 
       0.245482         246.296         229.051 
       0.251667         241.943         220.145 
       0.257832         231.991          209.37 
       0.263955         220.769         197.513 
       0.270079          209.57         185.716 
        0.27624          203.07         175.036 
       0.282372         194.614          166.24 
        0.28843         186.599         159.438 
       0.294538         178.926         154.041 
       0.300721         176.423         149.404 
        0.30691          168.71         144.853 
       0.313033         164.152         139.982 
       0.319153         156.651         134.565 
       0.325316         152.946          128.75 
        0.33145         146.471         122.932 
       0.337538         143.073         117.518 
       0.343633         137.547         112.693 
       0.349808         133.073         108.513 
       0.355968         130.236         104.947 
       0.362074         126.448         101.807 
       0.368217         122.758         98.8201 
       0.374374         118.927         95.7939 
       0.380519         116.399         92.6745 
       0.386598         113.066          89.495 
       0.392688         110.759         86.3056 
        0.39888         107.553         83.1884 
       0.405048         104.596         80.2976 
       0.411186         102.137         77.6798 
       0.417313         99.4022         75.3275 
       0.423458          97.029         73.1595 
       0.429607         94.6681         71.1101 
       0.435692         91.4096         69.1423 
       0.441815          90.472         67.1724 
       0.447964         88.7875         65.1893 
       0.454126         84.7544         63.2273 
       0.460267         83.7068         61.3277 
       0.466387          82.008         59.5159 
        0.47254         80.2819         57.7983 
       0.478662         79.2927         56.2062 
       0.484765         76.7982         54.7162 
       0.490885         75.3281         53.2937 
       0.497035         74.3874         51.9148 
       0.503198         72.1963         50.5716 
       0.509342         70.5965         49.2603 
       0.515458         69.3883         47.9769 
       0.521598         68.2623         46.7189 
       0.527764         67.1016         45.4989 
       0.533884         66.0584         44.3412 
           0.54         64.5245         43.2379 
       0.546137         63.8121         42.1785 
       0.552299         62.7772         41.1577 
       0.558452         61.1164         40.1763 
       0.564573          60.015         39.2321 
       0.570708         59.1271         38.3132 
       0.576825         58.1907           37.42 
       0.582926           56.87         36.5507 
       0.589034         55.7495         35.7043 
       0.595184         54.9957          34.879 
       0.601379         54.1236         34.0778 
       0.607522         52.8638         33.3136 
       0.613639         52.6256         32.5799 
       0.619772         51.3981         31.8685 
       0.625918         50.8377         31.1769 
       0.632068         50.1801         30.5038 
       0.638161         49.4079         29.8548 
         0.6443         48.6261         29.2189 
       0.650464         47.9212         28.5989 
       0.656582         47.3361         28.0015 
       0.662703         46.3814         27.4218 
       0.668861         45.7406         26.8561 
       0.675024         45.1421         26.3066 
       0.681124         44.4101         25.7784 
       0.687237         43.6001         25.2638 
       0.693381         43.2124         24.7607 
       0.699536         42.4113         24.2704 
       0.705665          42.517         23.7954 
       0.711789         41.3821         23.3335 
       0.717957         40.9147         22.8808 
        0.72409         40.3706         22.4427 
       0.730186         39.7199          22.019 
       0.736317         39.5105         21.6042 
       0.742472         38.8855         21.1987 
       0.748622         38.4543         20.8042 
        0.75476         37.9761         20.4207 
       0.760888         37.3696         20.0475 
       0.767043         36.9239         19.6823 
       0.773185          36.437         19.3268 
       0.779291          36.237         18.9822 
       0.785407         35.8739         18.6454 
       0.791564         35.3378         18.3147 
       0.797719         34.6229         17.9923 
       0.803834         34.5337         17.6797 
       0.809972         33.9771         17.3735 
       0.816124         33.5259         17.0739 
       0.822261         33.2236         16.7823 
       0.828378         33.0241         16.4985 
       0.834502         32.5961          16.221 
       0.840667         32.2395         15.9482 
       0.846816         31.7208         15.6826 
       0.852925         31.4682         15.4247 
       0.859047         31.0648         15.1721 
       0.865192         30.7762         14.9244 
       0.871341         30.6599         14.6821 
       0.877463         30.0344         14.4463 
       0.883569         29.7748         14.2164 
       0.889708         29.5287         13.9903 
       0.895864         29.2187         13.7686 
       0.902008         28.9543         13.5522 
       0.908149         28.6704         13.3406 
       0.914301         28.5464         13.1332 
       0.920448         28.1476         12.9304 
       0.926574         27.8415         12.7327 
       0.932687         27.5935         12.5395 
       0.938823         27.1938         12.3497 
       0.944975         27.0634         12.1634 
       0.951105          26.783         11.9816 
       0.957225         26.4455         11.8039 
       0.963368         26.4425         11.6292 
       0.969511         26.1277         11.4581 
       0.975621         25.9273         11.2913 
       0.981748         25.5485         11.1275 
       0.987916         25.3953         10.9659 
        0.99406         25.1814         10.8081 
        1.00019         24.8909         10.6538 
        1.00632          24.726         10.5026 
        1.01246         24.6192         10.3541 
        1.01859         24.1978         10.2088 
        1.02471         24.1651         10.0665 
        1.03085         23.9421         9.92637 
        1.03698         23.5823         9.78925 
        1.04314         23.4444         9.65415 
        1.04929         23.2342         9.52193 
        1.05541          22.994         9.39273 
        1.06154         22.9148         9.26563 
        1.06769         22.7363         9.14071 
        1.07382         22.5261         9.01851 
        1.07993         22.3973         8.89883 
        1.08607         22.1164         8.78085 
        1.09222         22.0262          8.6649 
        1.09836         21.8004         8.55119 
        1.10449         21.6368         8.43967 
        1.11063         21.3633         8.33003 
        1.11677         21.2959         8.22238 
         1.1229         21.1662         8.11684 
        1.12903         20.9037         8.01307 
        1.13518         20.8105         7.91104 
        1.14131         20.7087         7.81085 
        1.14745         20.4639         7.71246 
        1.15359         20.4242         7.61575 
        1.15973         20.1736         7.52067 
        1.16584         19.9793         7.42765 
        1.17197          19.971         7.33608 
        1.17811         19.7173         7.24578 
        1.18424         19.5642         7.15727 
        1.19038         19.5092         7.06999 
        1.19652         19.3958          6.9842 
        1.20267         19.2461         6.89984 
        1.20881         19.0625          6.8169 
        1.21495         18.9517         6.73546 
        1.22108         18.8114         6.65537 
         1.2272         18.6349         6.57677 
        1.23334         18.5707         6.49927 
        1.23949         18.4291         6.42283 
        1.24562         18.2992         6.34784 
        1.25174         18.2099         6.27416 
        1.25789          18.045         6.20143 
        1.26402         17.9642         6.12999 
        1.27014          17.756         6.05986 
        1.27628         17.6668         5.99061 
        1.28244         17.5916         5.92232 
        1.28858         17.5033         5.85519 
        1.29471          17.372         5.78926 
        1.30084         17.2514          5.7244 
        1.30697         17.1411         5.66045 
        1.31312         16.9704         5.59739 
        1.31925         16.8845         5.53549 
        1.32537         16.8219         5.47459 
        1.33151         16.6906          5.4144 
        1.33765         16.6247         5.35514 
        1.34378         16.5051          5.2969 
        1.34992         16.3322         5.23949 
        1.35606         16.2938         5.18281 
         1.3622         16.1969         5.12707 
        1.36833          16.058         5.07229 
        1.37445         16.0508         5.01834 
        1.38059         15.8936         4.96501 
        1.38675         15.7123         4.91233 
        1.39288         15.7051         4.86063 
        1.39901         15.5835          4.8097 
        1.40515          15.526         4.75939 
         1.4113         15.4178         4.70982 
        1.41742         15.2782         4.66114 
        1.42355         15.2547         4.61307 
         1.4297         15.1774         4.56553 
        1.43585         15.1027         4.51867 
        1.44198         14.9793         4.47266 
        1.44809         14.8799         4.42738 
        1.45423         14.8135         4.38255 
        1.46036         14.7554         4.33843 
        1.46649         14.6684         4.29491 
        1.47263         14.5464         4.25195 
        1.47877         14.4892          4.2096 
        1.48491         14.4474         4.16775 
        1.49104         14.3716         4.12657 
        1.49718         14.2418         4.08592 
        1.50333         14.1977         4.04575 
        1.50947         14.1215          4.0062 
         1.5156         14.0197         3.96725 
        1.52172         13.9412         3.92881 
        1.52787         13.9067         3.89081 
          1.534         13.7898         3.85335 
        1.54013         13.6854         3.81643 
        1.54627         13.6362         3.77993 
        1.55241         13.5595         3.74391 
        1.55855         13.4755          3.7084 
        1.56467         13.4159         3.67345 
         1.5708         13.3967         3.63886 
        1.57695         13.2657         3.60466 
        1.58308         13.2546         3.57098 
        1.58922         13.1718         3.53771 
        1.59535         13.0811         3.50488 
         1.6015          13.014         3.47242 
        1.60764         12.9816         3.44039 
        1.61376         12.8678         3.40885 
        1.61989         12.7979         3.37768 
        1.62604         12.7844         3.34683 
        1.63218         12.7015         3.31639 
        1.63831          12.664          3.2864 
        1.64444         12.5491         3.25676 
        1.65059         12.4922         3.22743 
        1.65673         12.4481         3.19848 
        1.66285         12.3754         3.16998 
        1.66898         12.3533         3.14181 
        1.67512         12.2873         3.11393 
        1.68127         12.2282         3.08637 
         1.6874         12.1422          3.0592 
        1.69353         12.0733         3.03237 
        1.69967          12.025          3.0058 
        1.70581         11.9829         2.97957 
        1.71193         11.9172         2.95375 
        1.71806         11.8513         2.92817 
        1.72421         11.7998         2.90286 
        1.73035          11.728         2.87787 
        1.73649         11.7022         2.85318 
        1.74262          11.677          2.8288 
        1.74876         11.6061         2.80469 
        1.75489         11.5483         2.78091 
        1.76101         11.4684         2.75742 
        1.76715          11.448         2.73416 
        1.77329          11.373         2.71115 
        1.77943         11.3188         2.68839 
        1.78557         11.2972         2.66593 
        1.79171         11.2433         2.64372 
        1.79785         11.1482         2.62175 
        1.80399         11.1199         2.60005 
        1.81012         11.1075         2.57862 
        1.81625         11.0334         2.55744 
        1.82239         10.9941         2.53647 
        1.82853         10.9089         2.51574 
        1.83466         10.8458         2.49526 
        1.84078         10.8064         2.47504 
        1.84692         10.7947         2.45501 
        1.85306         10.7205         2.43517 
         1.8592         10.6852         2.41559 
        1.86533         10.6552         2.39623 
        1.87147         10.5963         2.37706 
        1.87761         10.5674          2.3581 
        1.88375         10.4891         2.33936 
        1.88988         10.4508         2.32085 
        1.89601         10.4154         2.30253 
        1.90215         10.3637         2.28439 
        1.90829         10.3263         2.26646 
        1.91442         10.2879         2.24871 
        1.92056         10.2369         2.23118 
         1.9267          10.192         2.21381 
        1.93284         10.1403         2.19662 
        1.93897         10.1023         2.17964 
        1.94509         10.0523         2.16288 
        1.95123         10.0242         2.14625 
        1.95737         9.99224         2.12979 
        1.96349         9.94116         2.11354 
        1.96964         9.88715         2.09742 
        1.97578          9.8491         2.08145 
        1.98192         9.81069         2.06569 
        1.98805         9.78508         2.05009 
        1.99419         9.72017         2.03464 
        2.00033          9.6776         2.01935 
        2.00647         9.64368         2.00422 
         2.0126         9.62161         1.98928 
        2.01874         9.55557         1.97446 
        2.02488          9.5154         1.95978 
        2.03101         9.50322         1.94528 
        2.03714         9.46866         1.93093 
        2.04328         9.40995         1.91672 
        2.04941         9.35821         1.90266 
        2.05554         9.35495         1.88875 
        2.06167         9.30039         1.87496 
        2.06781         9.28314         1.86131 
        2.07396         9.25697         1.84778 
        2.08009         9.21381          1.8344 
        2.08622         9.12995         1.82117 
        2.09237           9.134         1.80805 
        2.09851         9.09333         1.79505 
        2.10464         9.05551          1.7822 
        2.11077         9.00118          1.7695 
        2.11691         8.97884         1.75689 
        2.12305         8.96373          1.7444 
        2.12918         8.89994         1.73206 
        2.13531         8.88123         1.71985 
        2.14145         8.83682         1.70772 
         2.1476         8.83471          1.6957 
        2.15372         8.78031         1.68385 
        2.15985         8.73183          1.6721 
        2.16599         8.72435         1.66043 
        2.17213         8.67687         1.64889 
        2.17827         8.65763         1.63746 
         2.1844         8.61642         1.62614 
        2.19054         8.58009         1.61494 
        2.19666         8.56727         1.60385 
         2.2028         8.52978         1.59285 
        2.20893         8.49502         1.58196 
        2.21508         8.44033         1.57115 
        2.22122         8.41646         1.56044 
        2.22736         8.39587         1.54986 
        2.23349         8.34969         1.53937 
        2.23962         8.32028         1.52898 
        2.24577         8.29506         1.51867 
         2.2519         8.28007         1.50847 
        2.25802         8.23836         1.49839 
        2.26417         8.21933         1.48836 
        2.27031         8.15793         1.47842 
        2.27644         8.14921          1.4686 
        2.28257         8.11635         1.45887 
        2.28872         8.09597         1.44921 
        2.29486         8.06359         1.43964 
        2.30099         8.05322         1.43017 
        2.30712         8.00356         1.42079 
        2.31326         7.98003         1.41147 
         2.3194          7.9494         1.40225 
        2.32553         7.91429         1.39312 
        2.33166         7.87574         1.38407 
         2.3378          7.8581          1.3751 
        2.34394         7.83951          1.3662 
        2.35007         7.79434         1.35739 
        2.35619         7.75763         1.34867 
        2.36233         7.74285         1.34001 
        2.36848         7.73481         1.33141 
        2.37462         7.70581          1.3229 
        2.38075         7.65391         1.31447 
        2.38689          7.6333         1.30611 
        2.39303         7.60656         1.29782 
        2.39916         7.59912         1.28961 
        2.40529         7.55909         1.28148 
        2.41143         7.54626         1.27341 
        2.41757         7.51372          1.2654 
         2.4237         7.49211         1.25748 
        2.42983         7.44826         1.24963 
        2.43598         7.45063         1.24182 
        2.44211         7.41299          1.2341 
        2.44823         7.37823         1.22645 
        2.45437         7.37307         1.21885 
        2.46052          7.3247         1.21131 
        2.46665         7.29647         1.20385 
        2.47279         7.26944         1.19645 
        2.47892         7.25881         1.18911 
        2.48507          7.2287         1.18182 
         2.4912         7.21322         1.17461 
