# k  (h/Mpc)    Pcb(k)  (Mpc/h)^3    Pcb_linear(k)  (Mpc/h)^3
     0.00783031         13929.2         13999.3 
       0.013688         17083.5         17531.7 
       0.019231         17627.8         17902.6 
      0.0249154         16707.5         16697.5 
      0.0312784           14472         14646.1 
      0.0375637         12432.2         12685.9 
      0.0433917         11141.3         11243.7 
      0.0492413         10008.2         10192.6 
      0.0555754         9265.55         9379.22 
      0.0619321         8346.13         8717.33 
       0.067871         7866.57         8099.11 
      0.0738098         7275.54         7419.47 
      0.0800417         6555.62         6655.65 
      0.0862327         5816.38         5913.11 
      0.0921407         5247.04         5288.34 
      0.0982031         4811.44         4774.96 
       0.104506         4353.28         4383.34 
       0.110769         4093.83         4107.44 
       0.116806         3946.58         3901.93 
       0.122832         3711.78         3710.71 
       0.129052         3496.63         3495.64 
       0.135211         3348.06         3255.24 
       0.141259         3070.31         3003.72 
       0.147318         2819.61         2758.15 
       0.153489         2648.56         2536.15 
       0.159709         2542.87         2354.05 
       0.165845          2339.1         2216.05 
       0.171974         2292.55         2110.45 
       0.178125         2225.03         2022.53 
       0.184229         2058.55         1939.23 
        0.19034         2021.75         1850.34 
       0.196428         1954.65         1753.52 
       0.202534         1827.41         1651.33 
       0.208729         1785.11         1549.24 
       0.214876         1702.12         1456.37 
       0.220989         1614.93         1376.71 
       0.227147         1574.59         1310.12 
        0.23329         1516.38         1255.05 
       0.239377         1507.26         1207.58 
       0.245482         1436.77         1162.81 
       0.251667          1383.9         1117.09 
       0.257832         1362.31         1069.76 
       0.263955         1298.23         1021.61 
       0.270079         1261.49         974.007 
        0.27624         1209.12          928.75 
       0.282372         1193.22         887.849 
        0.28843         1174.58         852.004 
       0.294538         1120.43         820.096 
       0.300721         1098.19         790.981 
        0.30691         1073.51         763.735 
       0.313033            1032         737.495 
       0.319153         1020.32         711.419 
       0.325316         1007.09         685.209 
        0.33145         984.963         659.584 
       0.337538         952.083         635.109 
       0.343633         929.383         612.081 
       0.349808         911.242         590.486 
       0.355968         893.999         570.669 
       0.362074         865.931         552.471 
       0.368217         863.321         535.222 
       0.374374         850.578         518.652 
       0.380519         819.892         502.548 
       0.386598         814.693         486.961 
       0.392688         795.648         471.727 
        0.39888         777.404         456.733 
       0.405048         763.188         442.455 
       0.411186         761.496         428.982 
       0.417313         756.869          416.27 
       0.423458         733.589         404.234 
       0.429607          713.69         392.783 
       0.435692          707.29         381.918 
       0.441815         694.254         371.368 
       0.447964          684.78         361.099 
       0.454126         676.493         351.102 
       0.460267         667.013         341.458 
       0.466387         655.954         332.195 
        0.47254         645.631         323.247 
       0.478662         636.155         314.713 
       0.484765         629.239         306.572 
       0.490885         622.965         298.746 
       0.497035         611.041         291.179 
       0.503198          610.54          283.86 
       0.509342         598.752         276.803 
       0.515458         587.189             270 
       0.521598         583.886         263.382 
       0.527764         571.602         256.946 
       0.533884         567.158         250.772 
           0.54         561.951         244.819 
       0.546137         552.888         239.056 
       0.552299         550.654          233.47 
       0.558452         543.277         228.082 
       0.564573         538.881         222.895 
       0.570708          533.46         217.859 
       0.576825         522.805         212.994 
       0.582926         521.362         208.288 
       0.589034         513.538         203.715 
       0.595184         509.304         199.247 
       0.601379         501.468         194.885 
       0.607522         493.248         190.692 
       0.613639         492.412         186.647 
       0.619772         490.041         182.714 
       0.625918         480.924         178.891 
       0.632068         478.569         175.177 
       0.638161         473.602         171.601 
         0.6443         468.105           168.1 
       0.650464         463.891         164.684 
       0.656582         460.214         161.388 
       0.662703         455.964         158.183 
       0.668861         449.971         155.049 
       0.675024         447.467         151.998 
       0.681124         440.155         149.063 
       0.687237          439.38           146.2 
       0.693381         432.769           143.4 
       0.699536         432.051          140.67 
       0.705665         426.566         138.024 
       0.711789         425.248         135.449 
       0.717957         419.454         132.922 
        0.72409         415.359         130.476 
       0.730186         416.499         128.106 
       0.736317         409.586         125.784 
       0.742472         405.686         123.511 
       0.748622         403.284         121.297 
        0.75476         400.021         119.143 
       0.760888         397.009         117.046 
       0.767043         394.139         114.991 
       0.773185           391.6          112.99 
       0.779291         386.848         111.049 
       0.785407         384.569         109.151 
       0.791564         381.988         107.287 
       0.797719         376.212         105.467 
       0.803834         378.316         103.701 
       0.809972         372.275         101.971 
       0.816124         369.027         100.276 
       0.822261         366.623          98.625 
       0.828378         364.956         97.0165 
       0.834502         359.546         95.4431 
       0.840667         359.719         93.8949 
       0.846816         353.927         92.3858 
       0.852925         354.697         90.9198 
       0.859047         351.265         89.4829 
       0.865192          349.55         88.0728 
       0.871341         344.953         86.6925 
       0.877463         343.323         85.3484 
       0.883569         340.782         84.0366 
       0.889708         337.695          82.746 
       0.895864         334.476         81.4795 
       0.902008         333.302         80.2424 
       0.908149         330.366         79.0322 
       0.914301         328.981         77.8452 
       0.920448         326.324          76.684 
       0.926574         324.105         75.5508 
       0.932687         323.058         74.4433 
       0.938823         319.256         73.3542 
       0.944975         318.635         72.2846 
       0.951105         315.727         71.2405 
       0.957225         311.973          70.219 
       0.963368          312.75         69.2143 
       0.969511          307.07         68.2295 
       0.975621          306.16         67.2693 
       0.981748         305.036         66.3254 
       0.987916         303.314         65.3938 
        0.99406         300.437         64.4838 
        1.00019         297.871         63.5931 
        1.00632         297.512         62.7202 
        1.01246         295.056         61.8625 
        1.01859         291.828         61.0224 
        1.02471         290.098         60.1992 
        1.03085         289.072         59.3884 
        1.03698         287.649         58.5944 
        1.04314         286.536         57.8118 
        1.04929           284.6         57.0454 
        1.05541         281.723         56.2961 
        1.06154         280.085         55.5586 
        1.06769         277.677         54.8333 
        1.07382         276.618         54.1234 
        1.07993         274.485         53.4279 
        1.08607         272.974         52.7418 
        1.09222         270.937         52.0672 
        1.09836         270.124         51.4053 
        1.10449         268.147         50.7558 
        1.11063         266.201         50.1169 
        1.11677         263.799         49.4894 
         1.1229          263.45         48.8738 
        1.12903         261.111         48.2682 
        1.13518         259.379         47.6725 
        1.14131         258.602         47.0874 
        1.14745         255.697         46.5124 
        1.15359         254.002         45.9471 
        1.15973          253.14          45.391 
        1.16584         251.777         44.8467 
        1.17197          250.23         44.3106 
        1.17811         248.049         43.7818 
        1.18424         246.769         43.2632 
        1.19038          245.67         42.7516 
        1.19652         242.909         42.2485 
        1.20267         242.415         41.7536 
        1.20881         240.654         41.2668 
        1.21495         240.094         40.7886 
        1.22108         238.269         40.3181 
         1.2272         235.645         39.8563 
        1.23334         234.986         39.4006 
        1.23949         233.871          38.951 
        1.24562         232.256         38.5098 
        1.25174         231.023         38.0761 
        1.25789          228.96         37.6478 
        1.26402         228.791          37.227 
        1.27014         227.673         36.8136 
        1.27628         225.466         36.4053 
        1.28244         224.169         36.0025 
        1.28858         223.022         35.6064 
        1.29471         221.786         35.2172 
        1.30084         220.806         34.8342 
        1.30697         218.602         34.4564 
        1.31312         217.579         34.0837 
        1.31925         216.278         33.7177 
        1.32537         215.636         33.3575 
        1.33151         214.088         33.0013 
        1.33765         212.479         32.6506 
        1.34378         211.607         32.3056 
        1.34992         209.902         31.9655 
        1.35606         209.098         31.6296 
         1.3622         207.657         31.2992 
        1.36833         206.345         30.9743 
        1.37445         206.123         30.6542 
        1.38059         203.824         30.3377 
        1.38675         202.605         30.0249 
        1.39288         201.618         29.7179 
        1.39901         200.225         29.4153 
        1.40515         199.614         29.1163 
         1.4113         198.098         28.8216 
        1.41742         196.518         28.5321 
        1.42355         196.579         28.2461 
         1.4297         194.902         27.9631 
        1.43585          194.08         27.6842 
        1.44198         192.189         27.4102 
        1.44809         191.732         27.1405 
        1.45423         190.559         26.8734 
        1.46036         189.434         26.6104 
        1.46649         188.289         26.3509 
        1.47263         187.698         26.0946 
        1.47877         186.194         25.8419 
        1.48491         184.783         25.5922 
        1.49104         183.308         25.3464 
        1.49718         182.939         25.1035 
        1.50333         181.357         24.8636 
        1.50947         180.675         24.6272 
         1.5156         179.578         24.3943 
        1.52172         178.751         24.1645 
        1.52787           177.7         23.9371 
          1.534          176.84          23.713 
        1.54013          175.63          23.492 
        1.54627         174.752         23.2734 
        1.55241         173.978         23.0576 
        1.55855         173.092         22.8449 
        1.56467         172.006         22.6354 
         1.5708         170.531          22.428 
        1.57695         169.994         22.2229 
        1.58308          168.72         22.0209 
        1.58922         167.946         21.8212 
        1.59535         166.709         21.6241 
         1.6015         166.139         21.4292 
        1.60764         164.963         21.2368 
        1.61376         163.828         21.0473 
        1.61989         163.152           20.86 
        1.62604         162.022         20.6746 
        1.63218         161.311         20.4916 
        1.63831         160.508         20.3112 
        1.64444         159.297         20.1329 
        1.65059         158.556         19.9563 
        1.65673         157.572         19.7821 
        1.66285         157.029         19.6105 
        1.66898         155.916         19.4409 
        1.67512         154.982         19.2729 
        1.68127         154.358         19.1068 
         1.6874         153.271          18.943 
        1.69353         152.887         18.7813 
        1.69967         151.542         18.6211 
        1.70581         151.182         18.4628 
        1.71193         150.043          18.307 
        1.71806         148.706         18.1527 
        1.72421         148.332         17.9999 
        1.73035         147.438          17.849 
        1.73649         146.451         17.6998 
        1.74262         145.993         17.5525 
        1.74876         145.133         17.4068 
        1.75489         144.515         17.2631 
        1.76101         143.218          17.121 
        1.76715         142.434         16.9804 
        1.77329         141.682         16.8411 
        1.77943         140.727         16.7034 
        1.78557         140.288         16.5674 
        1.79171         139.475          16.433 
        1.79785         138.436            16.3 
        1.80399          137.83         16.1685 
        1.81012         136.997         16.0386 
        1.81625         136.309         15.9102 
        1.82239         135.605         15.7831 
        1.82853         134.785         15.6574 
        1.83466         133.746         15.5332 
        1.84078         133.447         15.4105 
        1.84692         132.902          15.289 
        1.85306         131.866         15.1686 
         1.8592         131.367         15.0497 
        1.86533          130.28         14.9321 
        1.87147         129.785         14.8157 
        1.87761         128.884         14.7005 
        1.88375         127.995         14.5866 
        1.88988         127.511         14.4741 
        1.89601         127.212         14.3627 
        1.90215         126.609         14.2524 
        1.90829         125.292         14.1434 
        1.91442         124.548         14.0354 
        1.92056         123.964         13.9287 
         1.9267         123.372          13.823 
        1.93284          122.58         13.7184 
        1.93897         122.048          13.615 
        1.94509         121.301         13.5129 
        1.95123         120.753         13.4116 
        1.95737         120.155         13.3113 
        1.96349         119.395         13.2123 
        1.96964         118.666          13.114 
        1.97578         118.057         13.0167 
        1.98192         117.711         12.9205 
        1.98805         116.985         12.8254 
        1.99419         115.943         12.7312 
        2.00033         115.615         12.6379 
        2.00647         115.125         12.5455 
         2.0126         114.343         12.4543 
        2.01874         113.891         12.3638 
        2.02488         112.986         12.2741 
        2.03101         112.603         12.1855 
        2.03714         111.851         12.0979 
        2.04328         111.562          12.011 
        2.04941         110.946         11.9251 
        2.05554         110.312           11.84 
        2.06167         109.477         11.7557 
        2.06781         108.922         11.6722 
        2.07396         108.378         11.5894 
        2.08009         107.594         11.5076 
        2.08622         107.232         11.4266 
        2.09237         106.456         11.3463 
        2.09851         106.065         11.2667 
        2.10464         105.656          11.188 
        2.11077         104.923         11.1102 
        2.11691         104.509         11.0329 
        2.12305         103.928         10.9564 
        2.12918         103.315         10.8808 
        2.13531         102.724         10.8059 
        2.14145         102.259         10.7315 
         2.1476         101.704         10.6578 
        2.15372         101.042         10.5851 
        2.15985         100.604         10.5131 
        2.16599         99.8947         10.4415 
        2.17213         99.4332         10.3706 
        2.17827         98.7977         10.3004 
         2.1844         98.5809          10.231 
        2.19054         97.8706         10.1621 
        2.19666         97.2468          10.094 
         2.2028         96.9793         10.0265 
        2.20893         96.5154         9.95954 
        2.21508         95.8682         9.89313 
        2.22122          95.374         9.82731 
        2.22736         95.0427         9.76223 
        2.23349         94.3506         9.69775 
        2.23962         93.8213         9.63382 
        2.24577         93.4389         9.57042 
         2.2519         92.8593         9.50768 
        2.25802         92.4504         9.44561 
        2.26417         91.8561         9.38392 
        2.27031         91.2695         9.32273 
        2.27644         90.9678         9.26226 
        2.28257         90.4742         9.20234 
        2.28872         90.0576         9.14284 
        2.29486         89.8383         9.08388 
        2.30099         88.9888         9.02556 
        2.30712         88.7346         8.96773 
        2.31326         88.2356         8.91032 
         2.3194         87.7084         8.85344 
        2.32553         87.2465         8.79715 
        2.33166         86.7217         8.74139 
         2.3378         86.4404         8.68603 
        2.34394         85.9925         8.63113 
        2.35007         85.2918         8.57679 
        2.35619         85.0582         8.52299 
        2.36233         84.5756         8.46952 
        2.36848         84.0988         8.41641 
        2.37462         83.8371         8.36386 
        2.38075         83.2445         8.31181 
        2.38689         82.8937         8.26017 
        2.39303         82.5279         8.20897 
        2.39916          82.029         8.15827 
        2.40529         81.7408           8.108 
        2.41143         81.2661         8.05812 
        2.41757          80.728         8.00864 
         2.4237         80.2732         7.95966 
        2.42983         79.8732         7.91111 
        2.43598         79.6056         7.86283 
        2.44211         79.2767         7.81504 
        2.44823         78.7927         7.76775 
        2.45437         78.4104         7.72073 
        2.46052         77.9324         7.67406 
        2.46665         77.3421         7.62786 
        2.47279         77.1939         7.58206 
        2.47892         76.8242         7.53661 
        2.48507         76.4158         7.49148 
         2.4912         75.8973         7.44682 
