# k  (h/Mpc)    Pcb(k)  (Mpc/h)^3    Pcb_linear(k)  (Mpc/h)^3
     0.00783031         19168.8         19280.6 
       0.013688         20805.7         21368.2 
       0.019231         19621.4         19917.8 
      0.0249154         17222.3         17111.4 
      0.0312784         13751.1         13826.1 
      0.0375637           11054         11183.8 
      0.0433917         9451.66         9445.08 
      0.0492413          8244.4         8286.48 
      0.0555754         7488.73         7462.28 
      0.0619321         6650.81         6831.45 
       0.067871         6186.63         6251.57 
      0.0738098         5622.03         5613.44 
      0.0800417         4948.94         4901.48 
      0.0862327         4265.98         4224.09 
      0.0921407         3767.66         3672.92 
      0.0982031         3388.84         3239.92 
       0.104506         3016.46         2929.12 
       0.110769         2827.84         2726.27 
       0.116806         2712.84         2584.27 
       0.122832          2549.7         2452.09 
       0.129052         2382.97         2296.41 
       0.135211         2265.97         2115.34 
       0.141259         2049.87         1922.92 
       0.147318          1863.3          1735.8 
       0.153489         1720.42         1569.88 
       0.159709         1634.86         1438.21 
       0.165845         1497.72         1342.97 
       0.171974         1462.24         1273.98 
       0.178125         1408.64         1218.86 
       0.184229         1302.36         1166.66 
        0.19034         1272.56         1109.32 
       0.196428         1223.14         1045.05 
       0.202534         1131.38         976.139 
       0.208729         1102.58         907.132 
       0.214876         1040.94         844.896 
       0.220989         979.803         792.402 
       0.227147         950.456         749.556 
        0.23329         911.123         715.083 
       0.239377         903.149          686.04 
       0.245482         854.734         658.865 
       0.251667         822.319         631.007 
       0.257832          805.48          601.93 
       0.263955         762.692          572.12 
       0.270079         734.202         542.608 
        0.27624         702.745         514.618 
       0.282372         689.233         489.484 
        0.28843         677.486         467.688 
       0.294538         643.125         448.474 
       0.300721         627.567         431.152 
        0.30691         612.369         415.049 
       0.313033         584.885         399.637 
       0.319153         576.542         384.328 
       0.325316         566.667          368.98 
        0.33145         551.604         353.968 
       0.337538         530.536         339.674 
       0.343633         516.771         326.245 
       0.349808          503.86           313.7 
       0.355968         494.241         302.234 
       0.362074         474.941         291.746 
       0.368217         472.198         281.865 
       0.374374          464.39         272.406 
       0.380519         445.133         263.265 
       0.386598         440.535         254.452 
       0.392688         428.553         245.858 
        0.39888          418.34         237.434 
       0.405048         408.277         229.422 
       0.411186         407.731          221.87 
       0.417313         401.819          214.77 
       0.423458         390.937         208.049 
       0.429607         378.596         201.672 
       0.435692         373.546          195.65 
       0.441815         366.344         189.819 
       0.447964         358.951          184.16 
       0.454126         354.811         178.679 
       0.460267         348.655         173.408 
       0.466387         340.655         168.351 
        0.47254         336.877         163.475 
       0.478662         329.629         158.839 
       0.484765         324.506         154.419 
       0.490885         321.606         150.174 
       0.497035         313.899         146.081 
       0.503198         313.291         142.136 
       0.509342         306.551         138.343 
       0.515458         300.428         134.693 
       0.521598          296.79         131.152 
       0.527764         291.898          127.72 
       0.533884         288.676         124.435 
           0.54         285.261         121.271 
       0.546137          279.23          118.21 
       0.552299         277.519         115.249 
       0.558452          272.78           112.4 
       0.564573         271.438         109.663 
       0.570708         266.026         107.012 
       0.576825         261.606         104.454 
       0.582926         260.346         101.984 
       0.589034         255.146         99.5898 
       0.595184         253.537         97.2566 
       0.601379         249.373         94.9831 
       0.607522         243.792         92.8011 
       0.613639         243.174         90.6976 
       0.619772         242.015         88.6551 
       0.625918         237.112         86.6724 
       0.632068         234.976         84.7499 
       0.638161         233.307         82.9033 
         0.6443         229.418         81.0986 
       0.650464         227.108         79.3409 
       0.656582         224.471         77.6475 
       0.662703         223.728         76.0029 
       0.668861         218.729         74.3965 
       0.675024         218.126         72.8354 
       0.681124         214.533         71.3351 
       0.687237         213.594         69.8745 
       0.693381          209.79         68.4483 
       0.699536          209.31         67.0598 
       0.705665         206.686         65.7159 
       0.711789         204.017         64.4103 
       0.717957         202.764         63.1311 
        0.72409         199.765         61.8938 
       0.730186         200.576         60.6972 
       0.736317         197.371         59.5258 
       0.742472         195.384          58.381 
       0.748622         193.537         57.2675 
        0.75476         192.658         56.1856 
       0.760888         190.302         55.1334 
       0.767043         187.591         54.1041 
       0.773185         185.775         53.1034 
       0.779291         184.586         52.1337 
       0.785407         183.231         51.1869 
       0.791564         181.854         50.2578 
       0.797719          178.85         49.3522 
       0.803834         179.338         48.4748 
       0.809972         176.873         47.6156 
       0.816124         174.325         46.7753 
       0.822261         173.225         45.9577 
       0.828378          172.48         45.1621 
       0.834502         170.514         44.3846 
       0.840667          170.38         43.6205 
       0.846816         167.288         42.8765 
       0.852925         167.161         42.1546 
       0.859047         165.164         41.4478 
       0.865192         164.619         40.7549 
       0.871341         163.024         40.0774 
       0.877463         161.472         39.4184 
       0.883569         161.104         38.7758 
       0.889708          159.79         38.1443 
       0.895864         157.575         37.5253 
       0.902008         156.437         36.9212 
       0.908149         154.997         36.3309 
       0.914301         154.002         35.7524 
       0.920448          153.43         35.1871 
       0.926574         151.722         34.6361 
       0.932687         151.554         34.0979 
       0.938823         150.082         33.5693 
       0.944975         149.673         33.0507 
       0.951105         147.824          32.545 
       0.957225         146.719         32.0507 
       0.963368         146.473         31.5649 
       0.969511         144.645         31.0893 
       0.975621         142.671          30.626 
       0.981748         142.705          30.171 
       0.987916         141.843         29.7223 
        0.99406         140.687         29.2845 
        1.00019         140.004         28.8564 
        1.00632         138.882         28.4373 
        1.01246         137.904         28.0258 
        1.01859         136.596         27.6232 
        1.02471          135.68          27.229 
        1.03085          134.95         26.8411 
        1.03698         134.305         26.4616 
        1.04314         133.679         26.0879 
        1.04929         132.772         25.7222 
        1.05541         132.342          25.365 
        1.06154         130.921         25.0137 
        1.06769         130.161         24.6686 
        1.07382         129.048         24.3311 
        1.07993         128.421         24.0006 
        1.08607         128.202          23.675 
        1.09222          126.68          23.355 
        1.09836         126.077         23.0413 
        1.10449         125.459         22.7337 
        1.11063         124.215         22.4314 
        1.11677         123.716         22.1347 
         1.1229         122.923         21.8439 
        1.12903         121.699          21.558 
        1.13518         121.177          21.277 
        1.14131         120.861         21.0011 
        1.14745         119.705         20.7303 
        1.15359         119.078         20.4642 
        1.15973         118.442         20.2026 
        1.16584         117.639         19.9468 
        1.17197          117.16         19.6951 
        1.17811         116.184         19.4469 
        1.18424         115.569         19.2037 
        1.19038         114.946          18.964 
        1.19652         113.976         18.7284 
        1.20267         113.259         18.4968 
        1.20881         112.589         18.2692 
        1.21495         112.444         18.0458 
        1.22108         111.424         17.8262 
         1.2272         111.185         17.6107 
        1.23334         110.166         17.3983 
        1.23949         109.658         17.1888 
        1.24562         108.858         16.9834 
        1.25174         108.807         16.7817 
        1.25789         107.808         16.5826 
        1.26402           107.2         16.3872 
        1.27014           106.5         16.1953 
        1.27628         106.189         16.0059 
        1.28244         105.438         15.8192 
        1.28858         104.891         15.6358 
        1.29471         104.047         15.4556 
        1.30084         103.533         15.2784 
        1.30697         102.837         15.1038 
        1.31312          102.52         14.9316 
        1.31925         101.493         14.7626 
        1.32537           101.2         14.5964 
        1.33151         100.689         14.4322 
        1.33765         100.177         14.2706 
        1.34378         99.8215         14.1118 
        1.34992         99.0501         13.9553 
        1.35606         98.7418         13.8008 
         1.3622          98.162         13.6489 
        1.36833         97.5071         13.4996 
        1.37445         97.0786         13.3527 
        1.38059         96.4368         13.2075 
        1.38675         95.9981         13.0641 
        1.39288         95.4091         12.9233 
        1.39901         94.7987         12.7847 
        1.40515         94.4208         12.6479 
         1.4113         93.8853          12.513 
        1.41742          93.666         12.3807 
        1.42355         93.0234           12.25 
         1.4297         92.4473         12.1208 
        1.43585          92.105         11.9935 
        1.44198         91.4804         11.8685 
        1.44809         90.9881         11.7456 
        1.45423         90.7549         11.6239 
        1.46036         89.9085         11.5041 
        1.46649         89.4509          11.386 
        1.47263         88.9999         11.2695 
        1.47877         88.7234         11.1546 
        1.48491         88.1362         11.0412 
        1.49104         87.6369         10.9296 
        1.49718         87.1875         10.8194 
        1.50333         86.6051         10.7105 
        1.50947         86.5737         10.6034 
         1.5156         85.8324         10.4979 
        1.52172         85.2311         10.3939 
        1.52787         85.0542          10.291 
          1.534         84.6164         10.1897 
        1.54013         84.0618         10.0898 
        1.54627         83.6724         9.99105 
        1.55241         83.4011         9.89362 
        1.55855         82.7221         9.79762 
        1.56467         82.3248         9.70316 
         1.5708         81.7126         9.60967 
        1.57695         81.5769         9.51726 
        1.58308         81.0404         9.42628 
        1.58922         80.6766         9.33642 
        1.59535         80.5733         9.24776 
         1.6015         79.8372         9.16013 
        1.60764         79.4672         9.07366 
        1.61376         79.3714         8.98855 
        1.61989         78.7814         8.90446 
        1.62604         78.4623         8.82125 
        1.63218         77.8637         8.73915 
        1.63831          77.611         8.65829 
        1.64444         77.0621         8.57841 
        1.65059         76.6891         8.49935 
        1.65673         76.5699         8.42137 
        1.66285         76.1819         8.34458 
        1.66898         75.4646         8.26872 
        1.67512         75.0557         8.19365 
        1.68127         74.9126         8.11944 
         1.6874         74.6172         8.04632 
        1.69353         74.0433         7.97413 
        1.69967         73.6951         7.90266 
        1.70581         73.3878         7.83209 
        1.71193         73.0599         7.76265 
        1.71806         72.5379         7.69389 
        1.72421         72.2128         7.62584 
        1.73035         71.8672         7.55868 
        1.73649         71.6001         7.49234 
        1.74262         71.1358         7.42684 
        1.74876         70.7063         7.36209 
        1.75489         70.6606         7.29824 
        1.76101         70.2972         7.23516 
        1.76715         69.8261         7.17273 
        1.77329         69.4631         7.11097 
        1.77943         69.1055          7.0499 
        1.78557         68.8928         6.98964 
        1.79171         68.4212         6.93007 
        1.79785         68.1692         6.87118 
        1.80399         67.8078         6.81298 
        1.81012          67.375         6.75554 
        1.81625         67.1015         6.69877 
        1.82239         66.7181         6.64257 
        1.82853         66.4517         6.58704 
        1.83466         66.1238          6.5322 
        1.84078         65.7708         6.47804 
        1.84692         65.5416          6.4244 
        1.85306         65.4381         6.37129 
         1.8592         65.0349         6.31887 
        1.86533         64.5624         6.26707 
        1.87147         64.2256         6.21579 
        1.87761         63.8098         6.16505 
        1.88375         63.6599         6.11494 
        1.88988         63.3215         6.06544 
        1.89601         63.0882         6.01646 
        1.90215         62.8506         5.96798 
        1.90829         62.3403         5.92005 
        1.91442         61.9983         5.87264 
        1.92056          61.847          5.8258 
         1.9267          61.508         5.77941 
        1.93284         61.3516          5.7335 
        1.93897          60.903         5.68817 
        1.94509         60.6846         5.64343 
        1.95123         60.3523         5.59906 
        1.95737         60.1003         5.55513 
        1.96349         59.9585         5.51178 
        1.96964         59.6467         5.46876 
        1.97578         59.1418         5.42619 
        1.98192         58.8526         5.38415 
        1.98805         58.6685         5.34255 
        1.99419         58.5399         5.30138 
        2.00033         58.0932         5.26063 
        2.00647         57.7453         5.22032 
         2.0126          57.654         5.18049 
        2.01874         57.3992         5.14102 
        2.02488         57.1042         5.10193 
        2.03101         56.6957         5.06331 
        2.03714         56.5229         5.02512 
        2.04328          56.356         4.98728 
        2.04941         55.9948         4.94987 
        2.05554         55.6555         4.91286 
        2.06167         55.4324         4.87618 
        2.06781         55.1988         4.83987 
        2.07396         54.8219         4.80387 
        2.08009         54.6982          4.7683 
        2.08622         54.2983         4.73313 
        2.09237         54.1708         4.69824 
        2.09851         53.8118          4.6637 
        2.10464         53.5633         4.62956 
        2.11077         53.3922          4.5958 
        2.11691         53.1613          4.5623 
        2.12305         52.8331         4.52913 
        2.12918           52.53         4.49637 
        2.13531          52.395         4.46393 
        2.14145         52.0761         4.43173 
         2.1476         51.9942         4.39981 
        2.15372          51.575         4.36837 
        2.15985         51.4108         4.33719 
        2.16599         51.2156         4.30624 
        2.17213         50.9569         4.27562 
        2.17827         50.5673          4.2453 
         2.1844         50.4332          4.2153 
        2.19054         50.2741         4.18558 
        2.19666         49.9662         4.15618 
         2.2028         49.7651         4.12705 
        2.20893          49.441         4.09817 
        2.21508         49.3507         4.06954 
        2.22122         48.9521         4.04117 
        2.22736         48.7511         4.01313 
        2.23349           48.58         3.98536 
        2.23962         48.4171         3.95784 
        2.24577         48.1629         3.93055 
         2.2519         47.8578         3.90356 
        2.25802         47.6706         3.87686 
        2.26417         47.5201         3.85034 
        2.27031         47.2834         3.82404 
        2.27644         46.9563         3.79806 
        2.28257         46.8405         3.77232 
        2.28872         46.5706         3.74677 
        2.29486         46.3842         3.72146 
        2.30099         46.1378         3.69644 
        2.30712          45.958         3.67163 
        2.31326         45.6967         3.64701 
         2.3194         45.4877         3.62263 
        2.32553         45.3053         3.59851 
        2.33166         45.1366         3.57462 
         2.3378         44.8512         3.55091 
        2.34394         44.7507         3.52741 
        2.35007         44.4649         3.50415 
        2.35619         44.2782         3.48114 
        2.36233         44.1176         3.45827 
        2.36848          43.876         3.43556 
        2.37462         43.6787          3.4131 
        2.38075         43.3809         3.39086 
        2.38689          43.253         3.36881 
        2.39303         43.1127         3.34695 
        2.39916         42.9105          3.3253 
        2.40529          42.734         3.30385 
        2.41143         42.5572         3.28257 
        2.41757         42.3046         3.26147 
         2.4237         42.1588         3.24059 
        2.42983           41.96          3.2199 
        2.43598         41.8092         3.19933 
        2.44211         41.5302         3.17897 
        2.44823         41.3908         3.15884 
        2.45437         41.1375         3.13882 
        2.46052         41.0091         3.11896 
        2.46665         40.7912          3.0993 
        2.47279         40.5693         3.07982 
        2.47892         40.4148          3.0605 
        2.48507         40.2582         3.04132 
         2.4912         40.0607         3.02234 
