# k  (h/Mpc)    P(k)  (Mpc/h)^3    P_linear(k)  (Mpc/h)^3
     0.00783031         3250.87         3275.84 
       0.013688         4057.75         4121.25 
       0.019231          4210.3         4243.03 
      0.0249154         3981.81         3978.76 
      0.0312784         3470.91         3481.99 
      0.0375637            2958         2976.67 
      0.0433917         2588.67         2586.86 
      0.0492413         2288.26         2296.69 
      0.0555754         2086.68         2081.94 
      0.0619321         1904.81         1933.22 
       0.067871         1807.63         1817.78 
      0.0738098         1692.61         1698.08 
      0.0800417         1554.24         1554.59 
      0.0862327         1391.85         1396.81 
      0.0921407         1242.51         1245.03 
      0.0982031         1110.73         1103.45 
       0.104506         981.753         983.398 
       0.110769         897.425         895.642 
       0.116806         849.264         837.505 
       0.122832         801.056         797.477 
       0.129052         770.526         764.845 
       0.135211         742.505         731.925 
       0.141259         697.885         693.337 
       0.147318         646.471         647.306 
       0.153489         600.082         595.674 
       0.159709         556.032         543.973 
       0.165845         503.187         498.305 
       0.171974         478.691         461.174 
       0.178125         451.583         433.213 
       0.184229         425.253         413.336 
        0.19034         414.836          398.56 
       0.196428         401.556         385.759 
       0.202534         379.803         372.096 
       0.208729         369.695         355.744 
       0.214876         353.659         336.864 
       0.220989         327.713         316.521 
       0.227147         315.218         296.155 
        0.23329         298.981         277.619 
       0.239377         286.924         262.097 
       0.245482          271.94         249.676 
       0.251667         260.248         239.891 
       0.257832          256.66         232.034 
       0.263955         244.273         225.011 
       0.270079           236.2         217.814 
        0.27624         226.396         209.837 
       0.282372         219.011         201.042 
        0.28843         215.134         191.837 
       0.294538         204.265         182.563 
       0.300721         194.599          173.76 
        0.30691         190.166          165.95 
       0.313033         181.864         159.373 
       0.319153         178.475         153.852 
       0.325316         171.892         149.066 
        0.33145         166.898         144.714 
       0.337538         161.944         140.467 
       0.343633         157.249         136.057 
       0.349808         152.283         131.368 
       0.355968         147.836         126.523 
       0.362074         144.539         121.734 
       0.368217         140.636         117.109 
       0.374374         137.064          112.83 
       0.380519         131.098         108.992 
       0.386598         127.987         105.608 
       0.392688         124.353         102.565 
        0.39888         122.112          99.692 
       0.405048         119.397         96.9377 
       0.411186         116.904         94.2154 
       0.417313         113.793         91.4581 
       0.423458         110.806          88.674 
       0.429607         108.651         85.9081 
       0.435692         106.712         83.2458 
       0.441815         103.104         80.7025 
       0.447964         99.9991         78.3241 
       0.454126         98.1541         76.1133 
       0.460267         97.3147         74.0716 
       0.466387         94.8477         72.1629 
        0.47254          93.681         70.3229 
       0.478662         90.4854         68.5331 
       0.484765         88.9634         66.7754 
       0.490885         86.7055         65.0314 
       0.497035         85.8632          63.299 
       0.503198         83.7841         61.6051 
       0.509342         81.6168         59.9797 
       0.515458         80.6119         58.4377 
       0.521598         78.6271          56.966 
       0.527764         77.6826         55.5639 
       0.533884         76.6766         54.2423 
           0.54         74.7784         52.9761 
       0.546137         72.7923         51.7443 
       0.552299         71.6421         50.5338 
       0.558452           70.25         49.3501 
       0.564573         69.8705         48.1993 
       0.570708         67.7886         47.0744 
       0.576825         67.0987         45.9843 
       0.582926         66.1884         44.9323 
       0.589034         64.9449         43.9175 
       0.595184         64.0805         42.9376 
       0.601379         62.4211         41.9905 
       0.607522         61.4933         41.0847 
       0.613639         60.8201         40.2101 
       0.619772         59.7072         39.3557 
       0.625918          58.802         38.5204 
       0.632068         58.1641         37.7058 
       0.638161         57.0223         36.9199 
         0.6443         56.4357         36.1495 
       0.650464         55.1592         35.3981 
       0.656582         54.8733         34.6738 
       0.662703         54.1694         33.9706 
       0.668861          52.867         33.2845 
       0.675024         52.5375         32.6191 
       0.681124         51.9348         31.9805 
       0.687237         50.8831         31.3588 
       0.693381         50.2504          30.751 
       0.699536         49.8501         30.1577 
       0.705665         48.9952         29.5813 
       0.711789         48.2443         29.0192 
       0.717957         47.4707         28.4668 
        0.72409         47.0231         27.9316 
       0.730186         46.7596         27.4134 
       0.736317         45.8757         26.9062 
       0.742472         45.3516         26.4109 
       0.748622         44.6642         25.9294 
        0.75476         43.8486         25.4616 
       0.760888         43.7756         25.0065 
       0.767043          42.959         24.5608 
       0.773185         42.5443         24.1269 
       0.779291         42.0085         23.7056 
       0.785407         41.3904         23.2934 
       0.791564         41.3423         22.8882 
       0.797719         40.5636         22.4927 
       0.803834         40.2753         22.1089 
       0.809972         39.6816         21.7328 
       0.816124         39.2845         21.3647 
       0.822261         38.8161         21.0064 
       0.828378         38.5519         20.6575 
       0.834502         38.1088         20.3165 
       0.840667         37.7627         19.9811 
       0.846816         37.0759         19.6543 
       0.852925         36.9366          19.337 
       0.859047          36.669         19.0261 
       0.865192         36.0884          18.721 
       0.871341         35.6721         18.4224 
       0.877463         35.3669         18.1318 
       0.883569          35.201         17.8481 
       0.889708         34.7447          17.569 
       0.895864         34.3396         17.2953 
       0.902008         33.9721         17.0279 
       0.908149         33.6646         16.7664 
       0.914301         33.4428           16.51 
       0.920448          33.063         16.2592 
       0.926574         32.6425         16.0146 
       0.932687         32.3698         15.7755 
       0.938823         31.9867         15.5405 
       0.944975         31.7357         15.3097 
       0.951105         31.4729         15.0845 
       0.957225         31.2743         14.8643 
       0.963368         30.8662         14.6477 
       0.969511         30.6188         14.4354 
       0.975621         30.3667         14.2285 
       0.981748         30.0208         14.0252 
       0.987916         29.8402         13.8246 
        0.99406         29.4753         13.6286 
        1.00019         29.3053         13.4369 
        1.00632         29.0619          13.249 
        1.01246         28.8156         13.0645 
        1.01859         28.5144         12.8838 
        1.02471         28.2702         12.7068 
        1.03085         28.1573         12.5325 
        1.03698         27.9292         12.3618 
        1.04314         27.6426         12.1937 
        1.04929          27.333          12.029 
        1.05541         27.2401         11.8681 
        1.06154          27.054         11.7097 
        1.06769         26.6867          11.554 
        1.07382         26.5123         11.4016 
        1.07993         26.2799         11.2524 
        1.08607         26.1239         11.1052 
        1.09222         25.9031         10.9605 
        1.09836         25.6683         10.8186 
        1.10449         25.5436         10.6793 
        1.11063         25.3346         10.5424 
        1.11677         25.2622         10.4079 
         1.1229         24.9935         10.2761 
        1.12903         24.7933         10.1464 
        1.13518         24.6519         10.0188 
        1.14131         24.4665         9.89351 
        1.14745         24.1777         9.77044 
        1.15359         23.9733         9.64945 
        1.15973         23.8318         9.53047 
        1.16584         23.6581         9.41404 
        1.17197         23.4074         9.29939 
        1.17811         23.3094         9.18631 
        1.18424         23.0926         9.07545 
        1.19038         23.0107          8.9661 
        1.19652         22.7888          8.8586 
        1.20267         22.6867         8.75286 
        1.20881         22.4789         8.64888 
        1.21495         22.3488         8.54676 
        1.22108         22.2904         8.44631 
         1.2272         22.1122         8.34771 
        1.23334         21.9574         8.25047 
        1.23949         21.7793         8.15454 
        1.24562         21.5621         8.06042 
        1.25174          21.499         7.96792 
        1.25789         21.3757          7.8766 
        1.26402         21.2532         7.78688 
        1.27014         21.1239         7.69878 
        1.27628         20.9011         7.61178 
        1.28244         20.8982         7.52596 
        1.28858         20.6658         7.44158 
        1.29471         20.4834         7.35869 
        1.30084         20.3679         7.27714 
        1.30697         20.2942          7.1967 
        1.31312          20.119         7.11737 
        1.31925         20.0112         7.03948 
        1.32537         19.8599         6.96284 
        1.33151         19.7387         6.88707 
        1.33765         19.6855         6.81247 
        1.34378         19.5618         6.73913 
        1.34992          19.431         6.66682 
        1.35606         19.2598         6.59542 
         1.3622         19.1283          6.5252 
        1.36833         19.0884         6.45617 
        1.37445         18.9697         6.38817 
        1.38059          18.847         6.32095 
        1.38675         18.7182         6.25454 
        1.39288         18.5861         6.18934 
        1.39901         18.4925         6.12511 
        1.40515         18.3973         6.06165 
         1.4113         18.2945         5.99912 
        1.41742         18.2105          5.9377 
        1.42355         18.0544         5.87704 
         1.4297         17.9593         5.81704 
        1.43585         17.8705          5.7579 
        1.44198         17.8076         5.69982 
        1.44809         17.6886         5.64264 
        1.45423         17.5783         5.58604 
        1.46036         17.4793         5.53032 
        1.46649         17.3731         5.47535 
        1.47263         17.2991         5.42107 
        1.47877         17.2143         5.36756 
        1.48491         17.1088         5.31469 
        1.49104         17.0016         5.26264 
        1.49718         16.9339         5.21125 
        1.50333         16.8573         5.16046 
        1.50947          16.767         5.11046 
         1.5156         16.6704         5.06119 
        1.52172          16.557         5.01257 
        1.52787          16.502          4.9645 
          1.534         16.4254         4.91711 
        1.54013         16.3438         4.87039 
        1.54627         16.2132          4.8242 
        1.55241         16.1115          4.7786 
        1.55855         16.0607         4.73365 
        1.56467         16.0139          4.6894 
         1.5708          15.932          4.6456 
        1.57695         15.8344         4.60229 
        1.58308         15.7155         4.55963 
        1.58922         15.6607         4.51749 
        1.59535         15.5781          4.4759 
         1.6015         15.4556         4.43477 
        1.60764         15.4117         4.39418 
        1.61376          15.367         4.35421 
        1.61989         15.2452          4.3147 
        1.62604         15.2092          4.2756 
        1.63218         15.1334           4.237 
        1.63831         15.0218         4.19898 
        1.64444         14.9473          4.1614 
        1.65059          14.876          4.1242 
        1.65673         14.8386         4.08749 
        1.66285         14.7197         4.05134 
        1.66898         14.7047         4.01561 
        1.67512         14.6474         3.98024 
        1.68127         14.5268         3.94526 
         1.6874         14.4975         3.91079 
        1.69353         14.3609         3.87674 
        1.69967         14.3217         3.84303 
        1.70581          14.275         3.80972 
        1.71193         14.1825         3.77694 
        1.71806         14.1412         3.74448 
        1.72421         14.0652         3.71233 
        1.73035         13.9946          3.6806 
        1.73649         13.9552         3.64924 
        1.74262         13.8331         3.61827 
        1.74876          13.814         3.58764 
        1.75489         13.7591         3.55743 
        1.76101         13.6619         3.52758 
        1.76715         13.6267         3.49803 
        1.77329         13.5519         3.46878 
        1.77943         13.4725         3.43985 
        1.78557         13.4552          3.4113 
        1.79171         13.3608         3.38306 
        1.79785         13.3274         3.35514 
        1.80399         13.2382         3.32754 
        1.81012         13.2085         3.30029 
        1.81625         13.1183         3.27336 
        1.82239         13.0675         3.24668 
        1.82853         13.0043         3.22032 
        1.83466          12.925         3.19428 
        1.84078         12.9051         3.16855 
        1.84692         12.8817         3.14306 
        1.85306         12.8079         3.11782 
         1.8592         12.7506          3.0929 
        1.86533         12.6607         3.06826 
        1.87147          12.617         3.04387 
        1.87761           12.57         3.01973 
        1.88375          12.531         2.99588 
        1.88988         12.4361         2.97231 
        1.89601         12.4187         2.94899 
        1.90215          12.338         2.92589 
        1.90829         12.2798         2.90306 
        1.91442         12.2233         2.88046 
        1.92056         12.2313         2.85813 
         1.9267         12.1555         2.83601 
        1.93284         12.1341         2.81411 
        1.93897         12.0427         2.79249 
        1.94509              12         2.77114 
        1.95123         11.9531         2.74996 
        1.95737          11.918         2.72898 
        1.96349          11.828         2.70828 
        1.96964         11.7983         2.68773 
        1.97578         11.7711         2.66739 
        1.98192          11.712          2.6473 
        1.98805         11.6538         2.62741 
        1.99419         11.6107         2.60772 
        2.00033         11.5749         2.58823 
        2.00647          11.513         2.56894 
         2.0126         11.4823         2.54989 
        2.01874         11.4058         2.53099 
        2.02488         11.3645         2.51227 
        2.03101         11.3435         2.49377 
        2.03714         11.2848         2.47548 
        2.04328         11.2192         2.45735 
        2.04941         11.1726         2.43942 
        2.05554         11.1621         2.42168 
        2.06167         11.1189         2.40409 
        2.06781         11.0611         2.38667 
        2.07396         11.0441          2.3694 
        2.08009         10.9471         2.35233 
        2.08622         10.9523         2.33545 
        2.09237         10.9102          2.3187 
        2.09851         10.8368         2.30211 
        2.10464          10.824         2.28572 
        2.11077         10.7463          2.2695 
        2.11691         10.7414          2.2534 
        2.12305         10.6743         2.23746 
        2.12918         10.6103         2.22171 
        2.13531         10.5973         2.20611 
        2.14145         10.5488         2.19063 
         2.1476         10.5134         2.17527 
        2.15372         10.4812         2.16014 
        2.15985         10.4361         2.14514 
        2.16599         10.4005         2.13024 
        2.17213         10.3881          2.1155 
        2.17827          10.321         2.10089 
         2.1844         10.2896         2.08644 
        2.19054         10.2636         2.07212 
        2.19666         10.2211         2.05796 
         2.2028         10.1834         2.04391 
        2.20893         10.1289         2.02999 
        2.21508         10.1078         2.01618 
        2.22122         10.0417          2.0025 
        2.22736         10.0217         1.98897 
        2.23349         9.98484         1.97557 
        2.23962         9.96217         1.96229 
        2.24577            9.93         1.94912 
         2.2519         9.89818         1.93608 
        2.25802         9.80791         1.92319 
        2.26417         9.82371         1.91038 
        2.27031         9.77931         1.89767 
        2.27644         9.75105         1.88511 
        2.28257         9.67658         1.87267 
        2.28872           9.668         1.86032 
        2.29486         9.63332         1.84808 
        2.30099         9.60999         1.83598 
        2.30712         9.54042         1.82398 
        2.31326          9.5039         1.81207 
         2.3194         9.48612         1.80027 
        2.32553         9.44938         1.78859 
        2.33166          9.4099         1.77703 
         2.3378         9.38889         1.76554 
        2.34394         9.35463         1.75416 
        2.35007         9.32119          1.7429 
        2.35619         9.28599         1.73174 
        2.36233          9.2361         1.72066 
        2.36848           9.215         1.70965 
        2.37462         9.18471         1.69876 
        2.38075           9.159         1.68798 
        2.38689         9.13549         1.67728 
        2.39303         9.07618         1.66667 
        2.39916          9.0657         1.65617 
        2.40529         9.03593         1.64576 
        2.41143         8.99011         1.63543 
        2.41757         8.95291         1.62519 
         2.4237         8.94184         1.61505 
        2.42983         8.90532           1.605 
        2.43598         8.87346         1.59501 
        2.44211         8.84519         1.58512 
        2.44823         8.81118         1.57533 
        2.45437         8.77574          1.5656 
        2.46052         8.77135         1.55595 
        2.46665         8.73117         1.54639 
        2.47279         8.69876         1.53692 
        2.47892         8.65455         1.52752 
        2.48507         8.63401         1.51819 
         2.4912         8.60917         1.50895 
