# k  (h/Mpc)    Pcb(k)  (Mpc/h)^3    Pcb_linear(k)  (Mpc/h)^3
     0.00783031         1346.64         1359.64 
       0.013688         1717.97         1719.06 
       0.019231         1777.17          1776.9 
      0.0249154         1663.63         1674.46 
      0.0312784         1471.54         1474.02 
      0.0375637          1268.8         1265.94 
      0.0433917         1099.94         1102.39 
      0.0492413         979.385         978.372 
      0.0555754         880.613          885.09 
      0.0619321         824.569         820.482 
       0.067871         768.613         771.804 
      0.0738098         719.404         723.134 
      0.0800417         659.922         665.655 
      0.0862327         599.263         601.945 
      0.0921407         538.835         539.371 
      0.0982031         477.661         479.366 
       0.104506         429.679         426.765 
       0.110769         389.541         386.872 
       0.116806         359.969         359.559 
       0.122832         342.591           340.6 
       0.129052          325.46         325.932 
       0.135211         311.697         312.484 
       0.141259          298.28         297.591 
       0.147318         281.698          279.87 
       0.153489         260.301         259.441 
       0.159709         239.905         238.118 
       0.165845         222.487         218.356 
       0.171974         204.025          201.44 
       0.178125         191.327         188.035 
       0.184229         181.954         178.135 
        0.19034         172.406         170.832 
       0.196428         167.998         165.014 
       0.202534          163.63         159.488 
       0.208729         156.397         153.311 
       0.214876         148.348         146.215 
       0.220989         142.188         138.324 
       0.227147         132.609         130.028 
        0.23329         125.034         122.034 
       0.239377         118.799         114.929 
       0.245482         111.753         108.927 
       0.251667         108.244         104.031 
       0.257832         104.204         100.129 
       0.263955         100.813         96.8764 
       0.270079          97.683         93.8595 
        0.27624         95.3607         90.7488 
       0.282372         91.8571         87.4063 
        0.28843         87.8606         83.8442 
       0.294538         84.1458         80.1135 
       0.300721         81.3153         76.3802 
        0.30691         77.2687         72.8813 
       0.313033         74.3852         69.7834 
       0.319153          70.804         67.1001 
       0.325316         69.5754         64.7764 
        0.33145         67.1656         62.7482 
       0.337538         65.4887         60.8931 
       0.343633         63.3782         59.0869 
       0.349808         61.6409         57.2257 
       0.355968         59.8046         55.3146 
       0.362074         57.7838         53.3791 
       0.368217         55.9502         51.4437 
       0.374374         53.9844         49.5734 
       0.380519         52.4726         47.8266 
       0.386598         50.9583         46.2475 
       0.392688         49.7661         44.8116 
        0.39888         48.2941         43.4843 
       0.405048         47.1723         42.2574 
       0.411186         46.0605         41.0905 
       0.417313         44.5712          39.951 
       0.423458          43.475          38.813 
       0.429607         42.2484         37.6749 
       0.435692         40.9666          36.562 
       0.441815          40.137         35.4684 
       0.447964         39.3772         34.4138 
       0.454126         37.8558          33.416 
       0.460267         37.1134         32.4841 
       0.466387         36.0106         31.6132 
        0.47254         35.4405          30.789 
       0.478662         34.7815         30.0081 
       0.484765         33.7819         29.2552 
       0.490885         33.0019         28.5171 
       0.497035         32.5601           27.79 
       0.503198         31.6977          27.075 
       0.509342         30.8878         26.3773 
       0.515458         30.2001         25.7036 
       0.521598         29.6476         25.0534 
       0.527764         28.9858          24.429 
       0.533884         28.4739         23.8367 
           0.54         27.8621         23.2711 
       0.546137         27.3781         22.7275 
       0.552299         26.9094         22.2016 
       0.558452         26.0856         21.6922 
       0.564573         25.7333         21.1978 
       0.570708         25.2769          20.714 
       0.576825         24.6294         20.2442 
       0.582926         24.1982         19.7885 
       0.589034          23.538         19.3455 
       0.595184         23.2178         18.9135 
       0.601379         22.7594         18.4934 
       0.607522         22.3875         18.0918 
       0.613639         22.1326         17.7063 
       0.619772         21.5507         17.3324 
       0.625918          21.407         16.9689 
       0.632068         21.0518          16.615 
       0.638161         20.5751         16.2733 
         0.6443         20.1608          15.938 
       0.650464          19.786         15.6105 
       0.656582         19.6473         15.2943 
       0.662703         19.2796         14.9867 
       0.668861         18.9192          14.686 
       0.675024         18.5656         14.3936 
       0.681124         18.2508         14.1125 
       0.687237         17.9619         13.8389 
       0.693381         17.7685         13.5717 
       0.699536         17.2936         13.3114 
       0.705665         17.1674         13.0593 
       0.711789         16.8458         12.8139 
       0.717957         16.5928         12.5729 
        0.72409         16.3297         12.3391 
       0.730186          16.114         12.1126 
       0.736317         15.9358         11.8904 
       0.742472         15.6765         11.6729 
       0.748622         15.4615         11.4613 
        0.75476          15.156         11.2555 
       0.760888         14.9711         11.0553 
       0.767043         14.7904         10.8595 
       0.773185         14.4989         10.6689 
       0.779291         14.4066          10.484 
       0.785407         14.1973         10.3033 
       0.791564         13.9572         10.1257 
       0.797719         13.6975         9.95233 
       0.803834         13.6337         9.78409 
       0.809972         13.5037         9.61912 
       0.816124         13.2017          9.4576 
       0.822261         13.0435         9.30024 
       0.828378         12.8909         9.14697 
       0.834502         12.7766         8.99708 
       0.840667         12.5695         8.84964 
       0.846816         12.3513         8.70598 
       0.852925         12.2407         8.56646 
       0.859047         12.0955         8.42975 
       0.865192         11.9885          8.2956 
       0.871341         11.8689         8.16433 
       0.877463         11.6696         8.03651 
       0.883569         11.4991         7.91176 
       0.889708         11.3177         7.78904 
       0.895864         11.2361         7.66862 
       0.902008         11.1281         7.55102 
       0.908149         11.0051         7.43596 
       0.914301         10.8721         7.32313 
       0.920448         10.6961         7.21276 
       0.926574         10.5828         7.10507 
       0.932687         10.4845         6.99982 
       0.938823         10.3408         6.89634 
       0.944975         10.2122         6.79474 
       0.951105         10.1226         6.69556 
       0.957225         10.0595         6.59854 
       0.963368         9.93189         6.50314 
       0.969511         9.82909         6.40963 
       0.975621         9.71193         6.31848 
       0.981748         9.60515         6.22889 
       0.987916         9.52517         6.14048 
        0.99406         9.37961         6.05413 
        1.00019         9.24071         5.96963 
        1.00632         9.22531         5.88683 
        1.01246         9.11693          5.8055 
        1.01859         8.98557         5.72584 
        1.02471         8.92071         5.64778 
        1.03085         8.83048         5.57093 
        1.03698         8.70591         5.49568 
        1.04314         8.64975         5.42151 
        1.04929         8.53643         5.34889 
        1.05541         8.44284          5.2779 
        1.06154         8.37865         5.20804 
        1.06769         8.33811         5.13934 
        1.07382         8.20621         5.07212 
        1.07993         8.13267         5.00626 
        1.08607         8.07601          4.9413 
        1.09222         7.99593         4.87744 
        1.09836         7.91229         4.81479 
        1.10449         7.83745         4.75332 
        1.11063         7.76381         4.69286 
        1.11677         7.71333         4.63348 
         1.1229          7.6483         4.57524 
        1.12903         7.55988         4.51795 
        1.13518         7.47619          4.4616 
        1.14131         7.40271         4.40625 
        1.14745         7.32645         4.35188 
        1.15359         7.28535         4.29841 
        1.15973         7.21727         4.24583 
        1.16584         7.12303         4.19437 
        1.17197         7.07195         4.14369 
        1.17811         7.03476         4.09369 
        1.18424         6.97458         4.04468 
        1.19038         6.93435         3.99633 
        1.19652         6.85761         3.94879 
        1.20267         6.78117         3.90203 
        1.20881         6.75428         3.85604 
        1.21495         6.69408         3.81087 
        1.22108         6.61902         3.76643 
         1.2272         6.58364         3.72282 
        1.23334         6.50081         3.67979 
        1.23949         6.44817         3.63735 
        1.24562         6.41784          3.5957 
        1.25174         6.35165         3.55477 
        1.25789         6.30896         3.51436 
        1.26402         6.26496         3.47465 
        1.27014         6.20986         3.43565 
        1.27628         6.15211         3.39714 
        1.28244         6.08518         3.35915 
        1.28858         6.07396         3.32179 
        1.29471         6.00446         3.28509 
        1.30084         5.94884         3.24898 
        1.30697         5.94943         3.21336 
        1.31312         5.83993         3.17823 
        1.31925         5.81411         3.14373 
        1.32537         5.76862         3.10979 
        1.33151         5.74702         3.07622 
        1.33765         5.67635         3.04317 
        1.34378         5.63684         3.01067 
        1.34992         5.61095         2.97863 
        1.35606         5.54799         2.94699 
         1.3622         5.52315         2.91587 
        1.36833         5.47911         2.88527 
        1.37445         5.44195         2.85513 
        1.38059         5.42155         2.82532 
        1.38675         5.37567         2.79588 
        1.39288         5.33532         2.76697 
        1.39901         5.27847         2.73849 
        1.40515         5.24993         2.71034 
         1.4113         5.21516         2.68261 
        1.41742         5.18052         2.65537 
        1.42355         5.13529         2.62845 
         1.4297         5.09732         2.60183 
        1.43585         5.07854         2.57559 
        1.44198         5.05481         2.54982 
        1.44809         5.00027         2.52445 
        1.45423          4.9631         2.49933 
        1.46036         4.92609          2.4746 
        1.46649         4.89181         2.45019 
        1.47263          4.8557          2.4261 
        1.47877          4.8204         2.40235 
        1.48491         4.79227         2.37887 
        1.49104         4.76607         2.35576 
        1.49718         4.73426         2.33294 
        1.50333         4.70745         2.31039 
        1.50947         4.67025         2.28819 
         1.5156         4.64145         2.26631 
        1.52172         4.61461         2.24472 
        1.52787         4.58791         2.22336 
          1.534         4.54913         2.20231 
        1.54013         4.53022         2.18156 
        1.54627         4.48622         2.16104 
        1.55241         4.45992         2.14078 
        1.55855         4.44284         2.12081 
        1.56467          4.4111         2.10115 
         1.5708         4.38275         2.08168 
        1.57695         4.34672         2.06243 
        1.58308         4.31668         2.04348 
        1.58922          4.3062         2.02474 
        1.59535         4.27866         2.00625 
         1.6015         4.24613         1.98797 
        1.60764         4.21947         1.96992 
        1.61376         4.19713         1.95215 
        1.61989         4.17275         1.93459 
        1.62604         4.14172          1.9172 
        1.63218         4.13202         1.90003 
        1.63831         4.10076         1.88312 
        1.64444         4.07586          1.8664 
        1.65059         4.03985         1.84985 
        1.65673         4.03102         1.83352 
        1.66285         3.99478         1.81744 
        1.66898         3.97724         1.80154 
        1.67512         3.94899          1.7858 
        1.68127         3.92797         1.77023 
         1.6874         3.91556         1.75489 
        1.69353         3.87515         1.73973 
        1.69967         3.86175         1.72473 
        1.70581         3.84408          1.7099 
        1.71193         3.82057         1.69531 
        1.71806         3.80238         1.68085 
        1.72421         3.77817         1.66654 
        1.73035         3.76223         1.65241 
        1.73649          3.7354         1.63845 
        1.74262         3.71145         1.62466 
        1.74876          3.7023         1.61102 
        1.75489         3.67894         1.59756 
        1.76101         3.64826         1.58427 
        1.76715         3.63704          1.5711 
        1.77329         3.62116         1.55807 
        1.77943          3.5853         1.54519 
        1.78557         3.57772         1.53247 
        1.79171         3.55778         1.51989 
        1.79785         3.53558         1.50745 
        1.80399         3.51677         1.49515 
        1.81012         3.50326         1.48301 
        1.81625         3.48049           1.471 
        1.82239         3.46115         1.45911 
        1.82853         3.44024         1.44736 
        1.83466         3.43254         1.43575 
        1.84078         3.41261         1.42429 
        1.84692         3.39934         1.41292 
        1.85306         3.37013         1.40167 
         1.8592          3.3519         1.39056 
        1.86533         3.33747         1.37958 
        1.87147         3.32602          1.3687 
        1.87761         3.30499         1.35793 
        1.88375         3.28656          1.3473 
        1.88988         3.26848         1.33679 
        1.89601         3.25494         1.32638 
        1.90215         3.23712         1.31608 
        1.90829         3.21609         1.30589 
        1.91442         3.20718         1.29581 
        1.92056         3.18488         1.28585 
         1.9267         3.17407         1.27598 
        1.93284         3.16046         1.26621 
        1.93897         3.14451         1.25656 
        1.94509         3.12205         1.24703 
        1.95123         3.10745         1.23757 
        1.95737         3.08955         1.22821 
        1.96349         3.08109         1.21897 
        1.96964         3.07192          1.2098 
        1.97578         3.04688         1.20071 
        1.98192          3.0375         1.19174 
        1.98805         3.02441         1.18287 
        1.99419          3.0091         1.17408 
        2.00033         3.00009         1.16537 
        2.00647         2.98006         1.15676 
         2.0126         2.97052         1.14825 
        2.01874          2.9466         1.13981 
        2.02488         2.94003         1.13145 
        2.03101         2.91727         1.12319 
        2.03714         2.90762         1.11502 
        2.04328         2.89581         1.10692 
        2.04941         2.87421         1.09891 
        2.05554         2.86895         1.09098 
        2.06167         2.85716         1.08312 
        2.06781         2.84444         1.07534 
        2.07396          2.8333         1.06762 
        2.08009         2.81825         1.05999 
        2.08622         2.80119         1.05245 
        2.09237         2.79412         1.04497 
        2.09851         2.77936         1.03755 
        2.10464         2.77097         1.03022 
        2.11077         2.75498         1.02297 
        2.11691         2.74289         1.01578 
        2.12305         2.73368         1.00865 
        2.12918          2.7245         1.00161 
        2.13531         2.71061        0.994637 
        2.14145          2.6974        0.987714 
         2.1476         2.68136        0.980848 
        2.15372         2.67103        0.974083 
        2.15985         2.66078        0.967374 
        2.16599         2.65045         0.96071 
        2.17213         2.63309        0.954116 
        2.17827         2.62649        0.947585 
         2.1844         2.61473        0.941121 
        2.19054          2.6067        0.934715 
        2.19666         2.59177        0.928379 
         2.2028         2.57993        0.922095 
        2.20893         2.57104        0.915867 
        2.21508         2.55802        0.909689 
        2.22122          2.5462        0.903566 
        2.22736         2.53565        0.897513 
        2.23349          2.5295        0.891516 
        2.23962         2.51446        0.885571 
        2.24577         2.50634        0.879676 
         2.2519         2.49538        0.873842 
        2.25802         2.48802        0.868071 
        2.26417          2.4777        0.862336 
        2.27031         2.46518        0.856647 
        2.27644         2.45698        0.851027 
        2.28257         2.44359        0.845457 
        2.28872         2.43726        0.839927 
        2.29486         2.42443        0.834447 
        2.30099         2.41437        0.829028 
        2.30712         2.40234        0.823654 
        2.31326         2.39643        0.818319 
         2.3194         2.38635        0.813035 
        2.32553         2.37665        0.807806 
        2.33166         2.36859        0.802625 
         2.3378         2.35858        0.797483 
        2.34394         2.34853        0.792384 
        2.35007         2.33798        0.787337 
        2.35619         2.33357         0.78234 
        2.36233         2.32179        0.777375 
        2.36848         2.31126        0.772443 
        2.37462         2.30476        0.767564 
        2.38075         2.29358        0.762732 
        2.38689         2.28744        0.757937 
        2.39303          2.2769        0.753185 
        2.39916         2.26834        0.748478 
        2.40529         2.25953        0.743812 
        2.41143          2.2499        0.739183 
        2.41757          2.2411         0.73459 
         2.4237         2.23551        0.730046 
        2.42983         2.21881         0.72554 
        2.43598         2.22074        0.721061 
        2.44211         2.20614        0.716627 
        2.44823         2.20146         0.71224 
        2.45437         2.19061        0.707878 
        2.46052         2.18484        0.703549 
        2.46665         2.17717        0.699263 
        2.47279         2.16681        0.695015 
        2.47892         2.16033          0.6908 
        2.48507         2.15276        0.686615 
         2.4912         2.13945        0.682474 
