# k  (h/Mpc)    P(k)  (Mpc/h)^3    P_linear(k)  (Mpc/h)^3
     0.00783031         2894.28         2919.72 
       0.013688         3547.53         3601.39 
       0.019231         3646.66         3673.76 
      0.0249154         3443.91         3441.32 
      0.0312784         3024.59          3033.6 
      0.0375637         2611.47         2627.09 
      0.0433917          2314.2         2313.03 
      0.0492413         2065.84         2073.83 
      0.0555754         1889.84          1886.4 
      0.0619321         1719.08         1743.62 
       0.067871         1616.29         1624.42 
      0.0738098         1497.99         1501.87 
      0.0800417         1364.97         1364.01 
      0.0862327         1220.06         1223.15 
      0.0921407          1094.2         1095.52 
      0.0982031         987.347         981.372 
       0.104506         884.185         886.644 
       0.110769         816.594         816.541 
       0.116806         775.336         766.827 
       0.122832         729.178         727.639 
       0.129052         695.184         690.742 
       0.135211         661.533         652.345 
       0.141259         615.637          610.77 
       0.147318         566.843         566.304 
       0.153489         526.214          521.16 
       0.159709         490.156          479.36 
       0.165845         448.009         444.268 
       0.171974         429.834         416.166 
       0.178125         408.075         394.193 
       0.184229         385.203         376.737 
        0.19034          373.94         361.393 
       0.196428         359.074         346.312 
       0.202534         337.005         330.234 
       0.208729         325.321         312.736 
       0.214876         310.046         294.792 
       0.220989         287.723         277.379 
       0.227147         277.815         261.262 
        0.23329          265.06         247.244 
       0.239377         255.565         235.526 
       0.245482         243.227         225.639 
       0.251667         232.832         216.943 
       0.257832         228.818         208.933 
       0.263955           216.9         201.081 
       0.270079         208.717         193.043 
        0.27624         199.259         184.751 
       0.282372         192.244          176.48 
        0.28843         188.724          168.58 
       0.294538         179.716          161.15 
       0.300721         171.651         154.353 
        0.30691         168.123         148.297 
       0.313033         161.197          142.95 
       0.319153           158.2         138.067 
       0.325316         151.939         133.427 
        0.33145         147.119         128.924 
       0.337538         142.496         124.494 
       0.343633         138.196         120.081 
       0.349808         133.589         115.691 
       0.355968         129.626         111.465 
       0.362074         126.878         107.504 
       0.368217         123.426         103.791 
       0.374374         120.497         100.346 
       0.380519          115.35         97.1594 
       0.386598         112.501         94.1983 
       0.392688         109.259         91.3715 
        0.39888         107.218         88.5931 
       0.405048         104.708         85.8903 
       0.411186         102.311         83.2639 
       0.417313         99.5075         80.7112 
       0.423458         96.8175         78.2396 
       0.429607         95.0047         75.8759 
       0.435692         93.3734         73.6539 
       0.441815         90.1073         71.5342 
       0.447964         87.4386         69.5183 
       0.454126         85.8472         67.5937 
       0.460267         85.0865          65.753 
       0.466387         82.8615         63.9825 
        0.47254         81.7731         62.2575 
       0.478662         78.9927         60.5896 
       0.484765         77.5844         58.9767 
       0.490885         75.5213         57.4138 
       0.497035         74.7387         55.9012 
       0.503198          72.918         54.4449 
       0.509342         71.0404          53.052 
       0.515458          70.172         51.7226 
       0.521598          68.461         50.4393 
       0.527764         67.6005         49.1964 
       0.533884         66.5948         48.0032 
           0.54         65.0217         46.8484 
       0.546137         63.2239          45.725 
       0.552299         62.2052         44.6311 
       0.558452         60.9703         43.5727 
       0.564573         60.6074         42.5537 
       0.570708         58.8314         41.5665 
       0.576825            58.2         40.6161 
       0.582926         57.3669            39.7 
       0.589034         56.2795         38.8124 
       0.595184         55.5299         37.9469 
       0.601379         54.0742         37.1022 
       0.607522         53.2736         36.2898 
       0.613639         52.6437         35.5047 
       0.619772           51.68         34.7403 
       0.625918          50.826         33.9964 
       0.632068         50.3349         33.2736 
       0.638161         49.3297         32.5784 
         0.6443         48.7554         31.8987 
       0.650464         47.6195         31.2367 
       0.656582         47.3648         30.5989 
       0.662703         46.7862         29.9791 
       0.668861         45.6209         29.3731 
       0.675024         45.2779         28.7834 
       0.681124         44.8117         28.2156 
       0.687237         43.9042         27.6619 
       0.693381          43.275         27.1205 
       0.699536         42.9809         26.5928 
       0.705665         42.2229         26.0815 
       0.711789         41.5543         25.5843 
       0.717957         40.8479         25.0968 
        0.72409         40.4592         24.6249 
       0.730186          40.254         24.1682 
       0.736317         39.4859         23.7206 
       0.742472         39.0165         23.2827 
       0.748622         38.4274         22.8564 
        0.75476         37.6426         22.4417 
       0.760888         37.5809          22.038 
       0.767043         36.9116         21.6427 
       0.773185         36.5583          21.258 
       0.779291         36.1062         20.8848 
       0.785407         35.5596         20.5202 
       0.791564          35.482         20.1621 
       0.797719         34.7766         19.8128 
       0.803834         34.5609          19.474 
       0.809972         34.0014          19.142 
       0.816124         33.6621          18.817 
       0.822261          33.287         18.5005 
       0.828378         33.0245         18.1923 
       0.834502         32.6653         17.8909 
       0.840667         32.3472         17.5944 
       0.846816         31.7114         17.3055 
       0.852925         31.6281         17.0249 
       0.859047          31.354           16.75 
       0.865192         30.8825         16.4802 
       0.871341         30.5177         16.2163 
       0.877463         30.2344         15.9594 
       0.883569         30.0878         15.7087 
       0.889708         29.6731         15.4622 
       0.895864         29.3138         15.2203 
       0.902008         28.9965         14.9842 
       0.908149         28.7138         14.7532 
       0.914301          28.546         14.5267 
       0.920448         28.1811         14.3053 
       0.926574         27.8722         14.0892 
       0.932687         27.6075         13.8781 
       0.938823         27.2684         13.6706 
       0.944975         27.0671         13.4668 
       0.951105         26.8298          13.268 
       0.957225         26.6619         13.0735 
       0.963368         26.2864         12.8823 
       0.969511         26.0656          12.695 
       0.975621         25.8502         12.5124 
       0.981748         25.5483         12.3329 
       0.987916         25.4028         12.1558 
        0.99406         25.0817         11.9829 
        1.00019          24.934         11.8138 
        1.00632         24.7274          11.648 
        1.01246         24.5155         11.4852 
        1.01859         24.2422         11.3258 
        1.02471         24.0355         11.1696 
        1.03085         23.9367         11.0159 
        1.03698         23.7338         10.8654 
        1.04314         23.4713          10.717 
        1.04929         23.2166         10.5718 
        1.05541         23.1323         10.4299 
        1.06154         22.9658         10.2903 
        1.06769         22.6818          10.153 
        1.07382         22.4784         10.0186 
        1.07993         22.2892         9.88703 
        1.08607         22.1714         9.75726 
        1.09222         21.9576          9.6297 
        1.09836         21.7798         9.50458 
        1.10449         21.6431         9.38183 
        1.11063         21.4895         9.26112 
        1.11677         21.4075         9.14258 
         1.1229         21.1817         9.02633 
        1.12903         21.0096         8.91201 
        1.13518         20.8473         8.79957 
        1.14131         20.7206         8.68914 
        1.14745         20.4566         8.58067 
        1.15359         20.2913         8.47404 
        1.15973         20.1572         8.36918 
        1.16584         20.0044         8.26657 
        1.17197         19.8112         8.16554 
        1.17811          19.711         8.06589 
        1.18424          19.552          7.9682 
        1.19038         19.4712         7.87185 
        1.19652         19.2735         7.77714 
        1.20267           19.18         7.68399 
        1.20881         18.9869         7.59239 
        1.21495         18.8735         7.50243 
        1.22108         18.8232         7.41395 
         1.2272         18.6676         7.32711 
        1.23334         18.5442         7.24147 
        1.23949         18.3932         7.15699 
        1.24562         18.2118          7.0741 
        1.25174         18.1549         6.99265 
        1.25789         18.0237         6.91224 
        1.26402          17.931         6.83325 
        1.27014         17.8312         6.75568 
        1.27628         17.6275         6.67909 
        1.28244         17.6283         6.60354 
        1.28858         17.4304         6.52926 
        1.29471         17.2524          6.4563 
        1.30084         17.1571         6.38451 
        1.30697         17.1173         6.31372 
        1.31312         16.9584         6.24389 
        1.31925         16.8735         6.17534 
        1.32537         16.7419         6.10789 
        1.33151         16.6411          6.0412 
        1.33765          16.574         5.97556 
        1.34378          16.485         5.91102 
        1.34992         16.3629         5.84738 
        1.35606         16.2075         5.78455 
         1.3622         16.0989         5.72276 
        1.36833          16.071         5.66202 
        1.37445         15.9745         5.60219 
        1.38059         15.8711         5.54305 
        1.38675          15.764         5.48462 
        1.39288         15.6342         5.42726 
        1.39901         15.5667         5.37075 
        1.40515         15.4734         5.31492 
         1.4113         15.3748         5.25991 
        1.41742         15.3133         5.20588 
        1.42355         15.1763         5.15252 
         1.4297         15.1066         5.09974 
        1.43585         15.0333         5.04772 
        1.44198         14.9757         4.99663 
        1.44809         14.8652         4.94635 
        1.45423         14.7667         4.89657 
        1.46036         14.6852         4.84756 
        1.46649         14.5949         4.79922 
        1.47263         14.5426         4.75149 
        1.47877         14.4526         4.70443 
        1.48491         14.3722         4.65794 
        1.49104         14.2794         4.61218 
        1.49718         14.2192         4.56699 
        1.50333         14.1487         4.52235 
        1.50947         14.0744         4.47839 
         1.5156         13.9993         4.43508 
        1.52172         13.9052         4.39234 
        1.52787         13.8546         4.35008 
          1.534         13.7831         4.30843 
        1.54013         13.7114         4.26737 
        1.54627         13.6078         4.22677 
        1.55241         13.5165         4.18669 
        1.55855         13.4834         4.14719 
        1.56467         13.4301          4.1083 
         1.5708          13.367         4.06981 
        1.57695          13.273         4.03175 
        1.58308         13.1854         3.99427 
        1.58922         13.1394         3.95724 
        1.59535         13.0663         3.92069 
         1.6015         12.9525         3.88455 
        1.60764         12.9189         3.84888 
        1.61376         12.8791         3.81377 
        1.61989          12.777         3.77906 
        1.62604         12.7509          3.7447 
        1.63218         12.6895         3.71079 
        1.63831         12.5918         3.67738 
        1.64444         12.5196         3.64437 
        1.65059         12.4577         3.61169 
        1.65673         12.4305         3.57944 
        1.66285         12.3403         3.54768 
        1.66898         12.3205         3.51629 
        1.67512         12.2605         3.48522 
        1.68127         12.1503          3.4545 
         1.6874         12.1342         3.42421 
        1.69353          12.031         3.39431 
        1.69967         11.9935          3.3647 
        1.70581         11.9468         3.33545 
        1.71193          11.886         3.30666 
        1.71806         11.8412         3.27814 
        1.72421         11.7681         3.24991 
        1.73035         11.7182         3.22205 
        1.73649         11.6848         3.19451 
        1.74262         11.5655         3.16732 
        1.74876         11.5698         3.14043 
        1.75489         11.5127          3.1139 
        1.76101         11.4272         3.08769 
        1.76715          11.405         3.06175 
        1.77329         11.3451         3.03607 
        1.77943         11.2668         3.01067 
        1.78557         11.2627         2.98561 
        1.79171         11.1862         2.96082 
        1.79785         11.1605         2.93631 
        1.80399         11.0734         2.91209 
        1.81012         11.0477         2.88817 
        1.81625          10.969         2.86453 
        1.82239         10.9309         2.84111 
        1.82853         10.8709         2.81798 
        1.83466         10.8061         2.79512 
        1.84078         10.7897         2.77254 
        1.84692         10.7621         2.75017 
        1.85306          10.708         2.72802 
         1.8592         10.6601         2.70615 
        1.86533         10.5979         2.68453 
        1.87147         10.5523         2.66312 
        1.87761         10.5139         2.64194 
        1.88375         10.4708         2.62101 
        1.88988         10.4028         2.60033 
        1.89601         10.3862         2.57986 
        1.90215         10.3183          2.5596 
        1.90829         10.2747         2.53956 
        1.91442         10.2275         2.51974 
        1.92056         10.2305         2.50014 
         1.9267         10.1587         2.48074 
        1.93284         10.1427         2.46152 
        1.93897         10.0656         2.44255 
        1.94509         10.0265         2.42382 
        1.95123         10.0019         2.40524 
        1.95737         9.96552         2.38684 
        1.96349         9.88459         2.36867 
        1.96964         9.85557         2.35065 
        1.97578          9.8339          2.3328 
        1.98192         9.78411         2.31518 
        1.98805         9.74428         2.29773 
        1.99419         9.70824         2.28047 
        2.00033         9.67104         2.26337 
        2.00647         9.63064         2.24646 
         2.0126         9.59954         2.22974 
        2.01874         9.53097         2.21317 
        2.02488         9.50752         2.19675 
        2.03101         9.47921         2.18053 
        2.03714         9.42729         2.16449 
        2.04328         9.37693         2.14859 
        2.04941         9.33952         2.13286 
        2.05554         9.32669         2.11731 
        2.06167         9.29173         2.10188 
        2.06781         9.24038         2.08661 
        2.07396         9.22151         2.07147 
        2.08009         9.14747          2.0565 
        2.08622         9.15629          2.0417 
        2.09237         9.11824         2.02702 
        2.09851         9.05502         2.01247 
        2.10464         9.04407          1.9981 
        2.11077         8.97823         1.98388 
        2.11691         8.97729         1.96977 
        2.12305         8.92139         1.95579 
        2.12918         8.87269         1.94199 
        2.13531           8.859         1.92831 
        2.14145         8.82043         1.91474 
         2.1476         8.79412         1.90128 
        2.15372         8.75557         1.88802 
        2.15985         8.72391         1.87487 
        2.16599         8.69575         1.86181 
        2.17213         8.68551         1.84889 
        2.17827         8.63014         1.83609 
         2.1844         8.60799         1.82342 
        2.19054         8.57953         1.81087 
        2.19666         8.54326         1.79846 
         2.2028         8.50874         1.78615 
        2.20893         8.47286         1.77395 
        2.21508         8.44957         1.76185 
        2.22122         8.39342         1.74985 
        2.22736         8.37474           1.738 
        2.23349         8.34622         1.72626 
        2.23962         8.32527         1.71462 
        2.24577         8.29855         1.70307 
         2.2519         8.28004         1.69165 
        2.25802         8.19665         1.68036 
        2.26417          8.2045         1.66913 
        2.27031         8.16691         1.65799 
        2.27644         8.14381         1.64699 
        2.28257         8.08756         1.63609 
        2.28872         8.08001         1.62527 
        2.29486         8.04995         1.61455 
        2.30099         8.03547         1.60395 
        2.30712         7.98038         1.59343 
        2.31326         7.95053           1.583 
         2.3194            7.93         1.57266 
        2.32553         7.89864         1.56243 
        2.33166          7.8686          1.5523 
         2.3378         7.85154         1.54224 
        2.34394         7.82319         1.53227 
        2.35007         7.78933          1.5224 
        2.35619         7.76637         1.51263 
        2.36233         7.72494         1.50292 
        2.36848         7.70771         1.49328 
        2.37462         7.68358         1.48374 
        2.38075         7.66287          1.4743 
        2.38689         7.64275         1.46493 
        2.39303         7.59076         1.45564 
        2.39916         7.57996         1.44644 
        2.40529         7.55239         1.43732 
        2.41143         7.52047         1.42827 
        2.41757         7.49208          1.4193 
         2.4237          7.4783         1.41042 
        2.42983         7.45296         1.40162 
        2.43598         7.42756         1.39287 
        2.44211         7.40469         1.38421 
        2.44823         7.36635         1.37564 
        2.45437         7.34406         1.36712 
        2.46052          7.3338         1.35867 
        2.46665         7.30584          1.3503 
        2.47279         7.28226           1.342 
        2.47892         7.24084         1.33377 
        2.48507         7.22357          1.3256 
         2.4912         7.20086         1.31752 
