# k  (h/Mpc)    Pcb(k)  (Mpc/h)^3    Pcb_linear(k)  (Mpc/h)^3
     0.00783031         17756.7         17835.6 
       0.013688         21700.9         22337.5 
       0.019231         22409.1         22813.9 
      0.0249154         21239.1         21238.6 
      0.0312784         18268.9         18538.5 
      0.0375637         15573.6         15948.1 
      0.0433917         13881.8         14045.5 
      0.0492413         12411.1         12676.1 
      0.0555754         11470.3         11650.2 
      0.0619321           10327         10853.5 
       0.067871         9771.75         10124.1 
      0.0738098         9087.99          9309.3 
      0.0800417         8197.16          8365.2 
      0.0862327         7269.09          7418.5 
      0.0921407         6545.08         6601.94 
      0.0982031         5983.61         5920.11 
       0.104506         5386.45         5399.49 
       0.110769         5056.18         5043.44 
       0.116806         4874.86          4795.9 
       0.122832         4606.32         4580.68 
       0.129052         4341.87         4341.01 
       0.135211         4187.01         4062.68 
       0.141259         3843.69         3756.49 
       0.147318         3541.26         3443.57 
       0.153489         3323.52         3150.27 
       0.159709         3194.72         2904.38 
       0.165845         2936.27         2718.49 
       0.171974            2868         2581.83 
       0.178125          2793.3         2476.75 
       0.184229         2580.57         2384.19 
        0.19034          2546.6         2286.77 
       0.196428         2470.84         2176.61 
       0.202534         2322.23         2053.81 
       0.208729         2266.49         1924.54 
       0.214876         2160.15         1802.13 
       0.220989         2061.68         1694.78 
       0.227147         2004.77         1605.35 
        0.23329         1928.51         1533.95 
       0.239377         1922.85          1476.2 
       0.245482         1838.04         1424.99 
       0.251667          1771.8         1373.97 
       0.257832         1741.41         1320.14 
       0.263955         1666.73         1262.98 
       0.270079         1626.41         1203.72 
        0.27624         1559.14          1145.2 
       0.282372         1544.21          1091.1 
        0.28843         1510.89         1043.66 
       0.294538         1448.26         1002.37 
       0.300721         1424.85          966.23 
        0.30691         1386.45          933.91 
       0.313033         1338.82         903.609 
       0.319153         1326.97         873.482 
       0.325316         1309.54         842.468 
        0.33145         1280.18         811.147 
       0.337538         1241.17         780.288 
       0.343633         1214.23          750.64 
       0.349808         1194.81         722.681 
       0.355968          1169.4         697.275 
       0.362074         1137.78         674.494 
       0.368217         1133.73         653.483 
       0.374374         1115.92         633.751 
       0.380519         1079.51         614.721 
       0.386598         1075.58         596.162 
       0.392688         1047.43         577.726 
        0.39888         1029.59         559.193 
       0.405048         1008.63         541.257 
       0.411186         1005.18         524.199 
       0.417313         999.621         508.124 
       0.423458         970.706          493.06 
       0.429607         946.628         478.954 
       0.435692         939.043         465.752 
       0.441815         920.806         453.045 
       0.447964         912.357         440.697 
       0.454126         900.011         428.593 
       0.460267         890.086         416.794 
       0.466387         874.196         405.352 
        0.47254         861.227         394.219 
       0.478662         850.064         383.572 
       0.484765          840.68         373.445 
       0.490885         832.379         363.781 
       0.497035         816.839         354.507 
       0.503198         816.024          345.59 
       0.509342         800.746         337.018 
       0.515458         785.277         328.754 
       0.521598         786.018         320.688 
       0.527764         767.015         312.798 
       0.533884         758.239         305.194 
           0.54         754.243         297.845 
       0.546137         744.164         290.734 
       0.552299         738.188         283.857 
       0.558452         730.233          277.24 
       0.564573          727.27          270.89 
       0.570708         718.169         264.742 
       0.576825         703.996         258.812 
       0.582926         702.443         253.074 
       0.589034         693.753         247.489 
       0.595184         685.722         242.018 
       0.601379         675.445         236.667 
       0.607522         666.494          231.52 
       0.613639         665.602         226.556 
       0.619772         659.453         221.738 
       0.625918         650.738         217.061 
       0.632068         647.482         212.522 
       0.638161         638.417         208.156 
         0.6443          631.95          203.88 
       0.650464         627.602         199.708 
       0.656582          622.71         195.682 
       0.662703         615.155         191.766 
       0.668861         608.471         187.936 
       0.675024         605.545         184.208 
       0.681124         593.464          180.62 
       0.687237         594.195         177.123 
       0.693381         584.081         173.702 
       0.699536         586.039         170.368 
       0.705665         576.483         167.137 
       0.711789         575.174         163.993 
       0.717957         568.218         160.911 
        0.72409         563.535         157.926 
       0.730186         561.724         155.035 
       0.736317         554.464         152.202 
       0.742472          547.82          149.43 
       0.748622         547.442          146.73 
        0.75476         538.764         144.104 
       0.760888         537.247         141.546 
       0.767043         534.592          139.04 
       0.773185         529.848         136.601 
       0.779291         524.492         134.235 
       0.785407         520.186         131.922 
       0.791564         517.931          129.65 
       0.797719          509.75         127.433 
       0.803834         510.284         125.282 
       0.809972         502.708         123.174 
       0.816124         499.689          121.11 
       0.822261         496.717         119.099 
       0.828378         494.761         117.141 
       0.834502         487.034         115.225 
       0.840667         485.195         113.341 
       0.846816         481.309         111.504 
       0.852925         480.602         109.721 
       0.859047         474.583         107.972 
       0.865192         472.229         106.257 
       0.871341         467.168         104.578 
       0.877463          466.29         102.944 
       0.883569         461.877         101.348 
       0.889708         456.557         99.7791 
       0.895864         451.888         98.2394 
       0.902008          451.61         96.7357 
       0.908149         446.928         95.2646 
       0.914301         445.505         93.8221 
       0.920448         439.905         92.4111 
       0.926574         437.731         91.0343 
       0.932687         436.463         89.6887 
       0.938823         431.401         88.3657 
       0.944975         429.878         87.0665 
       0.951105         426.692         85.7984 
       0.957225         421.261         84.5579 
       0.963368         421.369         83.3379 
       0.969511         416.373         82.1422 
       0.975621         413.426         80.9765 
       0.981748          411.77         79.8307 
       0.987916          409.05         78.6999 
        0.99406         404.969         77.5955 
        1.00019         401.216         76.5147 
        1.00632         399.833         75.4555 
        1.01246         396.563          74.415 
        1.01859         393.703         73.3959 
        1.02471         392.035         72.3973 
        1.03085         389.206          71.414 
        1.03698         387.117         70.4511 
        1.04314         383.937         69.5021 
        1.04929         382.713         68.5729 
        1.05541          378.23         67.6646 
        1.06154         375.983         66.7706 
        1.06769         373.004         65.8915 
        1.07382         369.875         65.0313 
        1.07993         369.895         64.1886 
        1.08607         367.192         63.3574 
        1.09222         363.696         62.5401 
        1.09836         361.671         61.7384 
        1.10449         358.693         60.9518 
        1.11063          357.59         60.1782 
        1.11677         353.612         59.4183 
         1.1229         352.167          58.673 
        1.12903         349.079         57.9399 
        1.13518         347.817         57.2189 
        1.14131         345.433         56.5106 
        1.14745         342.361         55.8147 
        1.15359         339.645         55.1306 
        1.15973         338.059         54.4577 
        1.16584         336.592         53.7991 
        1.17197         333.976         53.1506 
        1.17811         330.185         52.5108 
        1.18424         329.612         51.8835 
        1.19038         327.666         51.2647 
        1.19652         324.222         50.6563 
        1.20267         322.907         50.0578 
        1.20881         321.518         49.4692 
        1.21495         317.991          48.891 
        1.22108         317.473         48.3223 
         1.2272         312.971         47.7639 
        1.23334         311.799         47.2132 
        1.23949         309.763         46.6698 
        1.24562         308.792         46.1366 
        1.25174         306.714         45.6125 
        1.25789         303.913         45.0951 
        1.26402         302.571         44.5866 
        1.27014         300.825         44.0872 
        1.27628         298.698         43.5941 
        1.28244         295.894         43.1076 
        1.28858          295.04         42.6292 
        1.29471         293.354         42.1592 
        1.30084         292.399         41.6967 
        1.30697         288.944         41.2405 
        1.31312         287.442         40.7906 
        1.31925         285.991         40.3488 
        1.32537          284.83          39.914 
        1.33151         281.612         39.4842 
        1.33765         279.859         39.0609 
        1.34378         278.897         38.6448 
        1.34992         276.109         38.2344 
        1.35606         274.383         37.8292 
         1.3622         272.461         37.4306 
        1.36833           272.3         37.0387 
        1.37445         270.714         36.6526 
        1.38059         267.288          36.271 
        1.38675         266.081         35.8938 
        1.39288         265.343         35.5236 
        1.39901         262.909         35.1588 
        1.40515         261.572         34.7983 
         1.4113         259.714          34.443 
        1.41742         257.916         34.0941 
        1.42355         256.557         33.7494 
         1.4297         254.888         33.4084 
        1.43585         252.966         33.0723 
        1.44198         251.606         32.7421 
        1.44809         250.252         32.4171 
        1.45423         248.805         32.0953 
        1.46036         248.066         31.7785 
        1.46649         245.777         31.4658 
        1.47263         243.718         31.1571 
        1.47877         242.661         30.8528 
        1.48491          240.71          30.552 
        1.49104         238.625         30.2559 
        1.49718         237.932         29.9635 
        1.50333         236.311         29.6745 
        1.50947         234.765           29.39 
         1.5156         233.412         29.1096 
        1.52172         231.784         28.8329 
        1.52787         230.268         28.5593 
          1.534         229.762         28.2895 
        1.54013          227.64         28.0236 
        1.54627         226.237         27.7606 
        1.55241         225.452         27.5009 
        1.55855         223.642         27.2449 
        1.56467         222.233          26.993 
         1.5708         220.819         26.7435 
        1.57695         220.062         26.4968 
        1.58308         218.845         26.2538 
        1.58922         216.857         26.0137 
        1.59535         215.382         25.7767 
         1.6015          214.44         25.5423 
        1.60764         212.983          25.311 
        1.61376         211.587         25.0832 
        1.61989         210.174         24.8581 
        1.62604         209.033         24.6352 
        1.63218         207.403         24.4151 
        1.63831         206.603         24.1983 
        1.64444         205.047         23.9841 
        1.65059         204.116         23.7719 
        1.65673         202.783         23.5626 
        1.66285          201.43         23.3564 
        1.66898         200.177         23.1525 
        1.67512         199.045         22.9507 
        1.68127         197.847         22.7512 
         1.6874         196.467         22.5545 
        1.69353         195.969         22.3602 
        1.69967         194.292         22.1678 
        1.70581         193.252         21.9777 
        1.71193          192.03         21.7906 
        1.71806         190.394         21.6052 
        1.72421         189.816         21.4217 
        1.73035         188.381         21.2405 
        1.73649         186.961         21.0615 
        1.74262         186.289         20.8847 
        1.74876         184.831         20.7098 
        1.75489         184.284         20.5372 
        1.76101         183.203         20.3667 
        1.76715         181.978         20.1979 
        1.77329         180.603         20.0308 
        1.77943         179.336         19.8656 
        1.78557          178.39         19.7024 
        1.79171         177.663         19.5411 
        1.79785         176.164         19.3815 
        1.80399         175.353         19.2238 
        1.81012         174.805         19.0681 
        1.81625         172.962         18.9141 
        1.82239         172.502         18.7616 
        1.82853         171.338         18.6109 
        1.83466         170.048          18.462 
        1.84078         169.255         18.3149 
        1.84692         168.492         18.1691 
        1.85306          167.19         18.0248 
         1.8592         166.503         17.8823 
        1.86533         164.972         17.7414 
        1.87147         164.176         17.6018 
        1.87761         163.243         17.4637 
        1.88375         162.198         17.3273 
        1.88988         161.453         17.1924 
        1.89601         160.697          17.059 
        1.90215         159.823         16.9268 
        1.90829         158.321         16.7961 
        1.91442         157.557         16.6668 
        1.92056         156.761          16.539 
         1.9267         155.657         16.4123 
        1.93284         154.427          16.287 
        1.93897         153.969         16.1632 
        1.94509         153.109         16.0409 
        1.95123         152.295         15.9196 
        1.95737         151.649         15.7995 
        1.96349         150.403         15.6809 
        1.96964         149.441         15.5632 
        1.97578         148.657         15.4466 
        1.98192         148.097         15.3315 
        1.98805         147.049         15.2176 
        1.99419         146.156         15.1048 
        2.00033         145.353         14.9931 
        2.00647          144.12         14.8826 
         2.0126          143.56         14.7734 
        2.01874         142.714         14.6651 
        2.02488         141.958         14.5578 
        2.03101         141.258         14.4517 
        2.03714         140.782         14.3469 
        2.04328         139.436         14.2429 
        2.04941         138.724         14.1401 
        2.05554         137.909         14.0384 
        2.06167         137.382         13.9375 
        2.06781         136.571         13.8376 
        2.07396         135.499         13.7386 
        2.08009         135.027         13.6407 
        2.08622         134.292         13.5439 
        2.09237         133.078         13.4478 
        2.09851         132.681         13.3526 
        2.10464         132.016         13.2585 
        2.11077         131.347         13.1655 
        2.11691         130.481         13.0731 
        2.12305         129.576         12.9816 
        2.12918         128.948         12.8913 
        2.13531         128.046         12.8017 
        2.14145         127.435         12.7129 
         2.1476          126.53         12.6247 
        2.15372         125.975         12.5379 
        2.15985         125.341         12.4517 
        2.16599         124.519         12.3662 
        2.17213         123.777         12.2815 
        2.17827         123.273         12.1977 
         2.1844         122.403         12.1147 
        2.19054         121.778         12.0324 
        2.19666         121.106         11.9511 
         2.2028          120.47         11.8704 
        2.20893         119.834         11.7904 
        2.21508         119.025         11.7111 
        2.22122         118.175         11.6325 
        2.22736         117.956         11.5548 
        2.23349          117.25         11.4778 
        2.23962          116.56         11.4014 
        2.24577         115.636         11.3257 
         2.2519         114.984         11.2508 
        2.25802         114.618         11.1767 
        2.26417         113.926          11.103 
        2.27031         113.299           11.03 
        2.27644         112.614         10.9578 
        2.28257           112.3         10.8863 
        2.28872         111.505         10.8153 
        2.29486         110.814         10.7449 
        2.30099         109.965         10.6753 
        2.30712         109.669         10.6063 
        2.31326         108.806         10.5378 
         2.3194          108.39         10.4699 
        2.32553         107.771         10.4027 
        2.33166         107.383         10.3362 
         2.3378         106.609         10.2701 
        2.34394         105.987         10.2046 
        2.35007         105.348         10.1398 
        2.35619         104.847         10.0756 
        2.36233         104.478         10.0119 
        2.36848         103.882         9.94851 
        2.37462          103.41         9.88584 
        2.38075         102.691         9.82377 
        2.38689         102.219         9.76218 
        2.39303         101.715         9.70114 
        2.39916         101.153         9.64067 
        2.40529         100.439         9.58073 
        2.41143         99.9301         9.52126 
        2.41757         99.2881         9.46227 
         2.4237         98.8164         9.40388 
        2.42983         98.3788           9.346 
        2.43598          97.717         9.28845 
        2.44211          97.192         9.23148 
        2.44823         96.7865         9.17512 
        2.45437         96.3541         9.11908 
        2.46052         95.7006         9.06346 
        2.46665         95.2378          9.0084 
        2.47279         94.7258         8.95382 
        2.47892          94.216         8.89965 
        2.48507           93.84         8.84589 
         2.4912         93.1367         8.79267 
