# k  (h/Mpc)    Pcb(k)  (Mpc/h)^3    Pcb_linear(k)  (Mpc/h)^3
     0.00783031         2442.93         2458.95 
       0.013688         3040.14         3081.34 
       0.019231         3128.17          3147.8 
      0.0249154         2934.27         2930.82 
      0.0312784         2553.55         2558.45 
      0.0375637         2190.71         2201.07 
      0.0433917         1940.97         1938.56 
      0.0492413         1744.43         1749.59 
      0.0555754         1610.97         1608.03 
      0.0619321         1478.92         1498.09 
       0.067871         1390.83         1397.42 
      0.0738098         1281.96         1284.97 
      0.0800417         1156.04         1154.66 
      0.0862327         1022.75         1023.99 
      0.0921407         911.041         911.287 
      0.0982031          822.49         817.176 
       0.104506          743.52         745.314 
       0.110769         695.627          696.17 
       0.116806         667.521         662.003 
       0.122832         631.948         632.295 
       0.129052         601.343         599.213 
       0.135211         567.047         560.796 
       0.141259         521.942         518.531 
       0.147318         475.899         475.337 
       0.153489          439.15         434.852 
       0.159709         409.207          400.91 
       0.165845         377.664         375.251 
       0.171974         365.794         356.388 
       0.178125          350.84         341.883 
       0.184229         333.677         329.107 
        0.19034         323.497         315.659 
       0.196428         308.701         300.453 
       0.202534         287.556         283.502 
       0.208729         274.758         265.658 
       0.214876         260.383         248.761 
       0.220989         241.516         233.944 
       0.227147         233.833         221.598 
        0.23329         224.489         211.742 
       0.239377         217.653          203.77 
       0.245482          208.45         196.703 
       0.251667         199.886          189.66 
       0.257832         195.774          182.23 
       0.263955         185.055         174.338 
       0.270079         177.129         166.159 
        0.27624         168.348         158.081 
       0.282372         161.957         150.614 
        0.28843         158.742         144.065 
       0.294538         151.721         138.366 
       0.300721         145.363         133.376 
        0.30691         142.664         128.915 
       0.313033         137.174         124.732 
       0.319153          134.64         120.574 
       0.325316         128.858         116.293 
        0.33145          124.47         111.969 
       0.337538         120.356         107.709 
       0.343633         116.575         103.617 
       0.349808         112.573         99.7575 
       0.355968          109.13         96.2505 
       0.362074         106.962         93.1058 
       0.368217          104.02         90.2055 
       0.374374         101.743         87.4818 
       0.380519         97.4925         84.8549 
       0.386598         94.9185         82.2931 
       0.392688         92.1049         79.7482 
        0.39888         90.3112         77.1899 
       0.405048         88.0684         74.7141 
       0.411186         85.8531         72.3594 
       0.417313         83.4522         70.1405 
       0.423458         81.1468         68.0612 
       0.429607         79.7085         66.1139 
       0.435692         78.3575         64.2916 
       0.441815         75.5298         62.5375 
       0.447964         73.2761          60.833 
       0.454126         71.9779         59.1622 
       0.460267         71.2833         57.5335 
       0.466387         69.3278          55.954 
        0.47254         68.3427         54.4173 
       0.478662         66.0585         52.9477 
       0.484765         64.8065         51.5497 
       0.490885          63.026         50.2157 
       0.497035         62.2424         48.9356 
       0.503198         60.7796         47.7047 
       0.509342         59.1902         46.5213 
       0.515458         58.4529         45.3807 
       0.521598          57.047         44.2673 
       0.527764         56.3048         43.1782 
       0.533884         55.2714         42.1285 
           0.54         54.0464          41.114 
       0.546137         52.4847         40.1325 
       0.552299          51.634         39.1832 
       0.558452         50.5909         38.2697 
       0.564573         50.2166         37.3931 
       0.570708         48.7892         36.5446 
       0.576825         48.2285          35.726 
       0.582926         47.4805         34.9339 
       0.589034         46.5528         34.1629 
       0.595184         45.9407         33.4078 
       0.601379         44.7133         32.6691 
       0.607522         44.0481         31.9586 
       0.613639         43.4474         31.2734 
       0.619772         42.6711         30.6083 
       0.625918          41.895         29.9627 
       0.632068         41.5325         29.3361 
       0.638161         40.6796         28.7335 
         0.6443         40.1396         28.1433 
       0.650464         39.1712         27.5674 
       0.656582         38.9471         27.0117 
       0.662703          38.479         26.4711 
       0.668861         37.4971         25.9423 
       0.675024         37.1321         25.4278 
       0.681124         36.8227         24.9325 
       0.687237         36.0821         24.4497 
       0.693381         35.4572         23.9776 
       0.699536         35.2556         23.5173 
       0.705665         34.6116         23.0713 
       0.711789         34.0321         22.6374 
       0.717957         33.4059         22.2119 
        0.72409         33.0958         21.7998 
       0.730186         32.9386         21.4008 
       0.736317          32.288         21.0097 
       0.742472         31.9064         20.6271 
       0.748622         31.4031         20.2544 
        0.75476         30.6851         19.8918 
       0.760888         30.6238         19.5387 
       0.767043         30.0983         19.1929 
       0.773185         29.8017         18.8562 
       0.779291         29.4606         18.5296 
       0.785407         28.9952         18.2104 
       0.791564         28.8671         17.8967 
       0.797719         28.2591         17.5906 
       0.803834         28.1191         17.2937 
       0.809972         27.6205         17.0027 
       0.816124         27.3322         16.7178 
       0.822261         27.0416         16.4403 
       0.828378         26.7873           16.17 
       0.834502         26.5151         15.9055 
       0.840667         26.2389         15.6454 
       0.846816         25.6879         15.3919 
       0.852925          25.628         15.1457 
       0.859047         25.3569         14.9043 
       0.865192         24.9916         14.6676 
       0.871341         24.6919         14.4358 
       0.877463         24.4395         14.2102 
       0.883569         24.3141           13.99 
       0.889708         23.9433         13.7734 
       0.895864         23.6519         13.5608 
       0.902008         23.3858         13.3532 
       0.908149         23.1289         13.1502 
       0.914301         23.0098         12.9511 
       0.920448         22.6815         12.7563 
       0.926574         22.4818         12.5662 
       0.932687         22.2205         12.3805 
       0.938823         21.9491         12.1979 
       0.944975         21.7833         12.0185 
       0.951105         21.5713         11.8435 
       0.957225         21.4397         11.6722 
       0.963368         21.1115         11.5038 
       0.969511         20.9268         11.3388 
       0.975621         20.7477         11.1779 
       0.981748         20.4956         11.0197 
       0.987916         20.3687         10.8636 
        0.99406         20.1255         10.7112 
        1.00019         19.9892          10.562 
        1.00632         19.8236         10.4158 
        1.01246         19.6429         10.2721 
        1.01859         19.4132         10.1315 
        1.02471           19.23         9.99362 
        1.03085         19.1523         9.85788 
        1.03698         18.9819         9.72497 
        1.04314         18.7512         9.59396 
        1.04929         18.5387          9.4657 
        1.05541         18.4653         9.34032 
        1.06154         18.3213         9.21691 
        1.06769         18.1354         9.09557 
        1.07382           17.91         8.97683 
        1.07993         17.7706         8.86049 
        1.08607         17.6854         8.74576 
        1.09222         17.4848         8.63295 
        1.09836         17.3764         8.52228 
        1.10449         17.2075          8.4137 
        1.11063         17.1191          8.3069 
        1.11677         17.0238         8.20202 
         1.1229          16.848         8.09913 
        1.12903         16.7162         7.99794 
        1.13518          16.537         7.89841 
        1.14131         16.4517         7.80064 
        1.14745         16.2279         7.70458 
        1.15359         16.1026         7.61015 
        1.15973         15.9851         7.51726 
        1.16584         15.8615         7.42635 
        1.17197         15.7183         7.33683 
        1.17811         15.6164         7.24852 
        1.18424         15.5106         7.16192 
        1.19038         15.4311         7.07651 
        1.19652         15.2753         6.99252 
        1.20267         15.1898         6.90991 
        1.20881         15.0192         6.82866 
        1.21495         14.9255         6.74885 
        1.22108         14.8748         6.67034 
         1.2272         14.7458         6.59326 
        1.23334         14.6596         6.51724 
        1.23949         14.5311         6.44224 
        1.24562         14.4001         6.36863 
        1.25174         14.3389         6.29629 
        1.25789         14.2001         6.22486 
        1.26402         14.1437         6.15467 
        1.27014         14.0703         6.08574 
        1.27628         13.8933         6.01767 
        1.28244          13.889         5.95051 
        1.28858         13.7415         5.88447 
        1.29471          13.579         5.81959 
        1.30084         13.5043         5.75576 
        1.30697         13.4897         5.69279 
        1.31312         13.3485         5.63068 
        1.31925         13.2818         5.56969 
        1.32537         13.1829         5.50968 
        1.33151         13.0973         5.45034 
        1.33765         13.0136         5.39192 
        1.34378         12.9742         5.33447 
        1.34992         12.8518         5.27783 
        1.35606         12.7353         5.22189 
         1.3622         12.6475         5.16686 
        1.36833         12.6166         5.11277 
        1.37445         12.5407         5.05948 
        1.38059          12.458         5.00679 
        1.38675         12.3746         4.95474 
        1.39288         12.2579         4.90363 
        1.39901         12.2038         4.85327 
        1.40515         12.1209         4.80351 
         1.4113         12.0377         4.75447 
        1.41742         11.9951         4.70631 
        1.42355         11.8788         4.65872 
         1.4297          11.831         4.61165 
        1.43585         11.7711         4.56526 
        1.44198         11.7145         4.51968 
        1.44809         11.6288         4.47481 
        1.45423         11.5432         4.43039 
        1.46036         11.4833         4.38666 
        1.46649         11.4115          4.3435 
        1.47263         11.3643         4.30089 
        1.47877         11.2864         4.25887 
        1.48491         11.2317         4.21735 
        1.49104         11.1444         4.17648 
        1.49718         11.1065         4.13612 
        1.50333         11.0375         4.09623 
        1.50947         10.9685         4.05695 
         1.5156         10.9282         4.01825 
        1.52172         10.8499         3.98006 
        1.52787         10.8033         3.94228 
          1.534           10.74         3.90505 
        1.54013         10.6882         3.86834 
        1.54627         10.6129         3.83203 
        1.55241          10.531         3.79619 
        1.55855         10.5158         3.76086 
        1.56467         10.4522         3.72607 
         1.5708          10.403         3.69164 
        1.57695         10.3267         3.65758 
        1.58308         10.2579         3.62404 
        1.58922         10.2262          3.5909 
        1.59535         10.1661         3.55818 
         1.6015         10.0746         3.52583 
        1.60764          10.045          3.4939 
        1.61376         10.0141         3.46246 
        1.61989         9.92857         3.43137 
        1.62604         9.90872         3.40061 
        1.63218         9.86176         3.37024 
        1.63831         9.78979         3.34031 
        1.64444          9.7185         3.31073 
        1.65059         9.67176         3.28145 
        1.65673         9.65163         3.25255 
        1.66285         9.59114         3.22408 
        1.66898         9.55716         3.19595 
        1.67512         9.50182         3.16809 
        1.68127         9.42203         3.14055 
         1.6874         9.40649         3.11339 
        1.69353         9.33457         3.08657 
        1.69967         9.30586         3.06001 
        1.70581         9.24966         3.03377 
        1.71193         9.22348         3.00794 
        1.71806         9.17256         2.98236 
        1.72421         9.11302         2.95703 
        1.73035         9.08156         2.93202 
        1.73649         9.04603          2.9073 
        1.74262         8.95541         2.88289 
        1.74876         8.96586         2.85875 
        1.75489         8.91101         2.83493 
        1.76101         8.84248          2.8114 
        1.76715         8.83131          2.7881 
        1.77329         8.78569         2.76503 
        1.77943         8.71616         2.74222 
        1.78557          8.7207          2.7197 
        1.79171         8.66438         2.69743 
        1.79785         8.63492         2.67541 
        1.80399         8.55856         2.65363 
        1.81012         8.54051         2.63213 
        1.81625         8.47987         2.61088 
        1.82239         8.45176         2.58983 
        1.82853         8.39943         2.56903 
        1.83466         8.34699         2.54847 
        1.84078         8.33423         2.52816 
        1.84692         8.30097         2.50805 
        1.85306         8.26334         2.48812 
         1.8592         8.23571         2.46845 
        1.86533         8.19635           2.449 
        1.87147         8.15085         2.42974 
        1.87761          8.1268         2.41067 
        1.88375         8.07965         2.39184 
        1.88988         8.03729         2.37322 
        1.89601         8.01955          2.3548 
        1.90215          7.9631         2.33656 
        1.90829         7.93946         2.31852 
        1.91442         7.89499         2.30067 
        1.92056         7.89423         2.28302 
         1.9267         7.83205         2.26554 
        1.93284         7.82229         2.24824 
        1.93897         7.76762         2.23114 
        1.94509         7.72026         2.21427 
        1.95123         7.71303         2.19752 
        1.95737          7.6824         2.18094 
        1.96349         7.61976         2.16457 
        1.96964         7.59383         2.14832 
        1.97578         7.57196         2.13224 
        1.98192         7.53427         2.11635 
        1.98805         7.50938         2.10062 
        1.99419         7.48492         2.08505 
        2.00033         7.44338         2.06963 
        2.00647         7.42376         2.05438 
         2.0126         7.39284          2.0393 
        2.01874          7.3465         2.02435 
        2.02488         7.32833         2.00954 
        2.03101         7.28959          1.9949 
        2.03714         7.25043         1.98043 
        2.04328          7.2261         1.96608 
        2.04941          7.1908         1.95189 
        2.05554          7.1786         1.93784 
        2.06167         7.15159         1.92392 
        2.06781         7.10936         1.91013 
        2.07396         7.08439         1.89646 
        2.08009         7.04813         1.88295 
        2.08622           7.041         1.86958 
        2.09237         7.01612         1.85632 
        2.09851         6.96308         1.84318 
        2.10464         6.95082          1.8302 
        2.11077         6.91323         1.81735 
        2.11691         6.90678          1.8046 
        2.12305         6.86376         1.79197 
        2.12918         6.83909          1.7795 
        2.13531         6.81397         1.76714 
        2.14145         6.78899         1.75487 
         2.1476         6.76618          1.7427 
        2.15372         6.73025         1.73071 
        2.15985         6.71314         1.71882 
        2.16599         6.69062         1.70701 
        2.17213         6.68108         1.69533 
        2.17827         6.63297         1.68375 
         2.1844         6.61457          1.6723 
        2.19054         6.59655         1.66095 
        2.19666         6.56351         1.64971 
         2.2028         6.53184         1.63858 
        2.20893         6.51937         1.62754 
        2.21508         6.49364         1.61659 
        2.22122         6.44643         1.60574 
        2.22736         6.43384         1.59501 
        2.23349         6.41219         1.58438 
        2.23962          6.3981         1.57384 
        2.24577         6.36388         1.56339 
         2.2519         6.36115         1.55305 
        2.25802         6.29431         1.54282 
        2.26417         6.29498         1.53265 
        2.27031         6.26839         1.52257 
        2.27644         6.24824         1.51261 
        2.28257         6.21756         1.50273 
        2.28872         6.20601         1.49293 
        2.29486         6.17896         1.48321 
        2.30099         6.16364         1.47361 
        2.30712         6.13259         1.46408 
        2.31326         6.11085         1.45462 
         2.3194         6.08699         1.44525 
        2.32553         6.06146         1.43598 
        2.33166         6.04494          1.4268 
         2.3378          6.0258         1.41768 
        2.34394         6.00365         1.40864 
        2.35007         5.97502         1.39969 
        2.35619         5.96692         1.39083 
        2.36233         5.93125         1.38203 
        2.36848         5.91942         1.37328 
        2.37462         5.89809         1.36463 
        2.38075          5.8849         1.35606 
        2.38689         5.86562         1.34756 
        2.39303         5.82949         1.33914 
        2.39916         5.81912         1.33079 
        2.40529         5.79349         1.32252 
        2.41143         5.77971         1.31431 
        2.41757         5.75843         1.30616 
         2.4237         5.73802          1.2981 
        2.42983         5.72411         1.29011 
        2.43598         5.70695         1.28217 
        2.44211         5.68457         1.27431 
        2.44823         5.65195         1.26653 
        2.45437         5.64016         1.25879 
        2.46052         5.62668         1.25111 
        2.46665         5.60736         1.24351 
        2.47279         5.58405         1.23598 
        2.47892         5.55971          1.2285 
        2.48507         5.54823         1.22108 
         2.4912         5.52706         1.21373 
