# k  (h/Mpc)    Pcb(k)  (Mpc/h)^3    Pcb_linear(k)  (Mpc/h)^3
     0.00783031         16512.5         16753.1 
       0.013688         18866.2         18690.1 
       0.019231         17247.5         17169.1 
      0.0249154           14038         14268.7 
      0.0312784         10884.9         10924.2 
      0.0375637            8421         8333.56 
      0.0433917         6722.21         6741.03 
      0.0492413         5838.84         5800.73 
      0.0555754          5187.5         5268.78 
      0.0619321         5028.59          4960.7 
       0.067871         4604.78          4669.9 
      0.0738098         4214.52         4267.87 
      0.0800417          3661.1         3722.32 
      0.0862327          3139.7         3134.61 
      0.0921407         2702.79          2625.4 
      0.0982031         2286.67         2220.69 
       0.104506         2076.11         1946.63 
       0.110769         1912.66         1801.25 
       0.116806         1828.75         1738.37 
       0.122832         1778.83         1702.57 
       0.129052         1677.22         1648.96 
       0.135211         1584.64         1553.24 
       0.141259         1484.74          1417.8 
       0.147318         1352.01         1260.71 
       0.153489         1198.27         1106.21 
       0.159709         1096.32         978.613 
       0.165845          1025.8         890.375 
       0.171974         966.379          837.67 
       0.178125         927.089         810.252 
       0.184229         895.559         794.398 
        0.19034         848.678         776.369 
       0.196428         830.579         747.157 
       0.202534         797.179         704.108 
       0.208729         745.307         650.381 
       0.214876         697.948         594.761 
       0.220989           660.5         544.732 
       0.227147          625.72         504.593 
        0.23329         595.562         476.121 
       0.239377         581.226         457.567 
       0.245482         542.488         444.934 
       0.251667         539.815         433.817 
       0.257832         519.539         420.773 
       0.263955         500.948         404.019 
       0.270079         478.136         383.558 
        0.27624         469.018         361.008 
       0.282372         449.397         338.922 
        0.28843         434.554          319.45 
       0.294538         411.239          303.32 
       0.300721         406.747         290.636 
        0.30691         388.564         280.862 
       0.313033         380.213         272.763 
       0.319153         367.281         264.986 
       0.325316         357.412         256.472 
        0.33145         345.304         246.989 
       0.337538         338.763         236.723 
       0.343633         327.197         226.185 
       0.349808         314.736         215.919 
       0.355968         310.379         206.643 
       0.362074         304.628         198.691 
       0.368217         295.574         191.863 
       0.374374         282.716         185.961 
       0.380519         280.229         180.573 
       0.386598         272.583         175.375 
       0.392688         269.138         170.066 
        0.39888         261.848          164.44 
       0.405048         255.268         158.719 
       0.411186         250.291         153.072 
       0.417313         244.978         147.664 
       0.423458         239.023         142.643 
       0.429607         234.868          138.08 
       0.435692         228.132         133.973 
       0.441815         225.601         130.184 
       0.447964         220.493         126.598 
       0.454126         213.976         123.096 
       0.460267         210.095         119.634 
       0.466387         207.089         116.203 
        0.47254         202.687         112.775 
       0.478662          201.93         109.436 
       0.484765         194.276         106.243 
       0.490885         191.845         103.219 
       0.497035         188.329         100.359 
       0.503198         184.728         97.6642 
       0.509342          182.91         95.1277 
       0.515458         179.932         92.7159 
       0.521598         175.524         90.3666 
       0.527764         173.693         88.0519 
       0.533884         171.212            85.8 
           0.54         168.343         83.6046 
       0.546137           167.1         81.4647 
       0.552299         163.578         79.3878 
       0.558452         162.161         77.3946 
       0.564573         159.509         75.4981 
       0.570708         155.909         73.6844 
       0.576825         153.895         71.9517 
       0.582926         151.247         70.2839 
       0.589034          149.65         68.6619 
       0.595184         148.013         67.0701 
       0.601379         145.353         65.5091 
       0.607522         143.292         64.0052 
       0.613639         141.967         62.5524 
       0.619772         139.145         61.1411 
       0.625918         137.955          59.772 
       0.632068         135.813         58.4465 
       0.638161          134.81         57.1763 
         0.6443         132.765         55.9389 
       0.650464         131.439         54.7371 
       0.656582         129.204         53.5807 
       0.662703          128.68         52.4574 
       0.668861         126.328         51.3583 
       0.675024         124.504          50.287 
       0.681124         123.669         49.2548 
       0.687237         121.796         48.2482 
       0.693381         119.824         47.2648 
       0.699536         118.956         46.3079 
       0.705665         118.004         45.3832 
       0.711789         116.236         44.4863 
       0.717957         116.103         43.6089 
        0.72409         114.112         42.7609 
       0.730186         112.572         41.9408 
       0.736317         111.366         41.1377 
       0.742472         110.489         40.3522 
       0.748622         109.394         39.5872 
        0.75476         108.304         38.8434 
       0.760888          107.08         38.1195 
       0.767043         106.478         37.4111 
       0.773185         105.487         36.7223 
       0.779291         103.473          36.055 
       0.785407         103.068         35.4036 
       0.791564         102.397         34.7647 
       0.797719          100.18          34.142 
       0.803834         99.7844         33.5388 
       0.809972         99.0219         32.9482 
       0.816124         98.2681         32.3707 
       0.822261         97.4729         31.8086 
       0.828378         96.5861         31.2616 
       0.834502         96.0568          30.727 
       0.840667         94.5896         30.2014 
       0.846816         93.5739         29.6897 
       0.852925          92.981          29.193 
       0.859047         92.0374         28.7067 
       0.865192         91.1715         28.2299 
       0.871341          90.436         27.7636 
       0.877463         89.3629           27.31 
       0.883569         89.2747         26.8678 
       0.889708          88.202         26.4331 
       0.895864         87.3367         26.0069 
       0.902008          86.688         25.5911 
       0.908149         86.3177         25.1846 
       0.914301         85.3244         24.7864 
       0.920448         84.6524         24.3972 
       0.926574         83.9508         24.0177 
       0.932687         83.8757         23.6472 
       0.938823         82.6119         23.2831 
       0.944975         81.8409          22.926 
       0.951105         81.2725         22.5776 
       0.957225         80.7318         22.2371 
       0.963368          79.619         21.9025 
       0.969511         79.5434         21.5748 
       0.975621         78.9522         21.2556 
       0.981748         78.5272         20.9421 
       0.987916         77.6723          20.633 
        0.99406         77.1048         20.3313 
        1.00019         76.8541         20.0362 
        1.00632          75.944         19.7473 
        1.01246         75.5959         19.4637 
        1.01859         74.9739         19.1861 
        1.02471         74.2158         18.9143 
        1.03085           73.59         18.6468 
        1.03698         73.4139         18.3852 
        1.04314          72.696         18.1274 
        1.04929         72.3068         17.8752 
        1.05541         71.5317         17.6288 
        1.06154         71.4191         17.3865 
        1.06769         70.9909         17.1484 
        1.07382          70.405         16.9155 
        1.07993         70.0606         16.6875 
        1.08607         69.3572         16.4627 
        1.09222         69.2452         16.2419 
        1.09836         68.5598         16.0254 
        1.10449         68.1372         15.8131 
        1.11063         67.6676         15.6044 
        1.11677         67.1703         15.3996 
         1.1229         66.6927         15.1988 
        1.12903         66.3104         15.0015 
        1.13518          66.129         14.8074 
        1.14131         65.6258          14.617 
        1.14745         65.2325         14.4299 
        1.15359         64.7895         14.2462 
        1.15973         64.4301         14.0655 
        1.16584         63.8488         13.8888 
        1.17197         63.4257         13.7149 
        1.17811         63.2334         13.5435 
        1.18424         62.6524         13.3755 
        1.19038         62.5526         13.2098 
        1.19652         62.1318         13.0471 
        1.20267         61.3723          12.887 
        1.20881         61.2616         12.7297 
        1.21495         60.6899         12.5753 
        1.22108         60.6564         12.4235 
         1.2272         59.9099         12.2746 
        1.23334         59.6061         12.1277 
        1.23949          59.431         11.9829 
        1.24562          58.918         11.8409 
        1.25174         58.7427         11.7014 
        1.25789         58.4568         11.5638 
        1.26402         57.8019         11.4286 
        1.27014         57.7218         11.2959 
        1.27628         57.3583         11.1649 
        1.28244         57.0125         11.0357 
        1.28858         56.8144         10.9088 
        1.29471          56.474         10.7841 
        1.30084         56.1899         10.6615 
        1.30697         55.7413         10.5407 
        1.31312         55.4124         10.4215 
        1.31925         55.1013         10.3046 
        1.32537         54.8173         10.1895 
        1.33151         54.3744         10.0758 
        1.33765         54.2444         9.96395 
        1.34378         53.9774         9.85398 
        1.34992          53.583         9.74559 
        1.35606         53.2981          9.6386 
         1.3622         52.9951         9.53341 
        1.36833         52.8312         9.43004 
        1.37445         52.4277         9.32826 
        1.38059         52.0063         9.22767 
        1.38675         51.7873         9.12833 
        1.39288         51.6327         9.03084 
        1.39901         51.3489         8.93483 
        1.40515         50.9445         8.83999 
         1.4113         50.7386         8.74657 
        1.41742         50.5844         8.65486 
        1.42355          50.278         8.56429 
         1.4297         50.1376         8.47475 
        1.43585         49.8118         8.38653 
        1.44198         49.4165          8.2999 
        1.44809         49.2618         8.21465 
        1.45423         49.0589          8.1303 
        1.46036         48.7546         8.04728 
        1.46649         48.4818         7.96539 
        1.47263         48.2408         7.88458 
        1.47877         47.9197         7.80492 
        1.48491         47.7837         7.72625 
        1.49104         47.5162         7.64882 
        1.49718         47.1967          7.5724 
        1.50333         47.1946          7.4969 
        1.50947         46.7999         7.42259 
         1.5156         46.6412         7.34939 
        1.52172          46.386         7.27718 
        1.52787         46.2108          7.2058 
          1.534         45.8469         7.13546 
        1.54013         45.5936         7.06613 
        1.54627         45.5229          6.9976 
        1.55241         45.0956         6.92996 
        1.55855         44.9909         6.86332 
        1.56467         44.7769         6.79773 
         1.5708         44.6424         6.73282 
        1.57695         44.4599         6.66865 
        1.58308         44.1784         6.60548 
        1.58922         43.8477         6.54307 
        1.59535         43.7958          6.4815 
         1.6015         43.3916         6.42063 
        1.60764         43.2679         6.36058 
        1.61376          43.046         6.30145 
        1.61989            42.9         6.24304 
        1.62604         42.6221         6.18523 
        1.63218         42.5645         6.12819 
        1.63831         42.1965           6.072 
        1.64444         42.0414         6.01649 
        1.65059         42.0282         5.96155 
        1.65673         41.6377         5.90735 
        1.66285         41.3849         5.85397 
        1.66898         41.3473         5.80124 
        1.67512         40.9755         5.74906 
        1.68127         40.9115         5.69746 
         1.6874         40.6762         5.64662 
        1.69353         40.4766         5.59643 
        1.69967         40.3211         5.54673 
        1.70581         40.1716         5.49766 
        1.71193         39.9919         5.44936 
        1.71806         39.6518         5.40154 
        1.72421         39.6618          5.3542 
        1.73035         39.4364         5.30749 
        1.73649          39.172         5.26134 
        1.74262         38.9736         5.21577 
        1.74876          38.763         5.17072 
        1.75489         38.6931         5.12629 
        1.76101         38.5318         5.08239 
        1.76715         38.2783         5.03895 
        1.77329         38.0903         4.99596 
        1.77943         37.9179         4.95345 
        1.78557          37.715         4.91151 
        1.79171         37.6365         4.87003 
        1.79785         37.3725         4.82903 
        1.80399         37.3426         4.78852 
        1.81012         37.0558         4.74852 
        1.81625         36.8997         4.70899 
        1.82239         36.7208         4.66986 
        1.82853         36.5877         4.63118 
        1.83466         36.3315         4.59299 
        1.84078         36.1596         4.55526 
        1.84692         36.0771          4.5179 
        1.85306         35.8628         4.48091 
         1.8592         35.7289          4.4444 
        1.86533         35.5255         4.40831 
        1.87147         35.3502         4.37258 
        1.87761         35.2654         4.33723 
        1.88375         35.0889         4.30231 
        1.88988         34.9237         4.26781 
        1.89601         34.7447         4.23367 
        1.90215         34.6436         4.19988 
        1.90829         34.5443         4.16648 
        1.91442         34.3757         4.13343 
        1.92056         34.1398         4.10077 
         1.9267         34.0831         4.06843 
        1.93284         33.7938         4.03642 
        1.93897          33.716         4.00481 
        1.94509         33.5978         3.97362 
        1.95123         33.4164         3.94267 
        1.95737         33.2215         3.91203 
        1.96349         33.1279          3.8818 
        1.96964         32.9542         3.85179 
        1.97578          32.762         3.82209 
        1.98192          32.709         3.79277 
        1.98805         32.5759         3.76375 
        1.99419         32.4271         3.73503 
        2.00033         32.2791         3.70659 
        2.00647         32.1672         3.67846 
         2.0126         31.9267         3.65067 
        2.01874           31.86         3.62312 
        2.02488         31.7411         3.59584 
        2.03101         31.5815         3.56888 
        2.03714         31.4724         3.54223 
        2.04328         31.2857         3.51581 
        2.04941         31.1614         3.48969 
        2.05554         31.0216         3.46385 
        2.06167         30.9329         3.43824 
        2.06781         30.7646         3.41288 
        2.07396         30.6698         3.38774 
        2.08009         30.4797          3.3629 
        2.08622         30.2917         3.33834 
        2.09237         30.2867         3.31397 
        2.09851         30.1671         3.28984 
        2.10464         29.9932         3.26599 
        2.11077         29.8732         3.24241 
        2.11691         29.6903           3.219 
        2.12305         29.5739         3.19583 
        2.12918         29.4841         3.17294 
        2.13531         29.3241         3.15027 
        2.14145         29.1741         3.12778 
         2.1476         29.0107         3.10547 
        2.15372         28.9185         3.08349 
        2.15985         28.9177         3.06171 
        2.16599         28.7122         3.04007 
        2.17213          28.643         3.01867 
        2.17827         28.4754         2.99747 
         2.1844         28.3536          2.9765 
        2.19054         28.2425         2.95572 
        2.19666         28.0704         2.93517 
         2.2028         28.0202          2.9148 
        2.20893         27.9176          2.8946 
        2.21508         27.8084         2.87458 
        2.22122         27.6604         2.85474 
        2.22736         27.5622         2.83513 
        2.23349         27.4014         2.81571 
        2.23962         27.3271         2.79645 
        2.24577         27.1635         2.77736 
         2.2519         27.0609         2.75848 
        2.25802         27.0107          2.7398 
        2.26417         26.8499         2.72124 
        2.27031         26.7075         2.70284 
        2.27644         26.6301         2.68466 
        2.28257         26.5382         2.66665 
        2.28872         26.4241         2.64877 
        2.29486         26.2781         2.63106 
        2.30099         26.1933         2.61354 
        2.30712         26.0898         2.59618 
        2.31326         25.9955         2.57895 
         2.3194         25.8539         2.56188 
        2.32553         25.7681         2.54499 
        2.33166         25.6618         2.52826 
         2.3378         25.5733         2.51167 
        2.34394         25.4925         2.49521 
        2.35007         25.3404         2.47892 
        2.35619         25.2256          2.4628 
        2.36233         25.1418         2.44679 
        2.36848         25.0604         2.43088 
        2.37462         24.9218         2.41515 
        2.38075         24.8758         2.39957 
        2.38689         24.7414         2.38412 
        2.39303         24.6177          2.3688 
        2.39916         24.4804         2.35364 
        2.40529         24.4308         2.33861 
        2.41143         24.3486          2.3237 
        2.41757          24.233         2.30891 
         2.4237         24.1813         2.29428 
        2.42983         24.0416         2.27977 
        2.43598         23.9676         2.26536 
        2.44211         23.8287         2.25109 
        2.44823         23.7477         2.23697 
        2.45437         23.6181         2.22294 
        2.46052         23.5371         2.20902 
        2.46665         23.4502         2.19524 
        2.47279         23.3455         2.18158 
        2.47892         23.2944         2.16803 
        2.48507          23.161         2.15459 
         2.4912         23.0761         2.14128 
