# k  (h/Mpc)    P(k)  (Mpc/h)^3    P_linear(k)  (Mpc/h)^3
     0.00783031          604.61         610.993 
       0.013688         665.043         671.304 
       0.019231          612.46         614.366 
      0.0249154         515.566         514.467 
      0.0312784         404.301         403.137 
      0.0375637         319.065         318.516 
      0.0433917         267.667         266.524 
      0.0492413          235.01         234.621 
      0.0555754          214.49         213.645 
      0.0619321         196.563          197.33 
       0.067871         180.635         180.564 
      0.0738098         160.767         160.583 
      0.0800417         138.338         137.802 
      0.0862327         116.931          116.59 
      0.0921407          100.54         100.182 
      0.0982031         88.8452         88.2345 
       0.104506         80.6199         80.5342 
       0.110769         76.1775         76.0679 
       0.116806         73.2642         72.9437 
       0.122832         69.5184         69.4731 
       0.129052          64.942         64.6938 
       0.135211         59.2204         58.8316 
       0.141259         52.9507         52.6898 
       0.147318         47.1645         47.0104 
       0.153489         42.6285         42.3418 
       0.159709          39.338         38.9851 
       0.165845         36.9033         36.8121 
       0.171974         35.7065         35.3437 
       0.178125         34.3537         34.0826 
       0.184229         32.8316         32.6545 
        0.19034         31.1932         30.8726 
       0.196428         29.1005         28.7984 
       0.202534         26.7557         26.6222 
       0.208729         24.8707         24.5614 
       0.214876           23.23         22.8395 
       0.220989         21.7508         21.5058 
       0.227147         20.8707         20.4963 
        0.23329         20.0676         19.7056 
       0.239377         19.3694         19.0003 
       0.245482         18.6182         18.2628 
       0.251667         17.6984         17.4337 
       0.257832         16.9231         16.5344 
       0.263955         15.9204          15.621 
       0.270079         15.0534         14.7529 
        0.27624         14.2409         13.9753 
       0.282372         13.5919         13.3181 
        0.28843         13.1276         12.7743 
       0.294538         12.6278         12.3014 
       0.300721         12.1235         11.8626 
        0.30691         11.7581           11.43 
       0.313033         11.2998          10.992 
       0.319153          10.923         10.5422 
       0.325316         10.3721         10.0902 
        0.33145          9.9256         9.65703 
       0.337538         9.54537         9.25837 
       0.343633         9.22117         8.89734 
       0.349808         8.86476         8.56963 
       0.355968         8.55392         8.27344 
       0.362074         8.31883         7.99947 
       0.368217         8.03354         7.73469 
       0.374374         7.80805         7.47333 
       0.380519          7.5069         7.21523 
       0.386598         7.23442         6.96457 
       0.392688         6.97567         6.72158 
        0.39888         6.76941         6.48716 
       0.405048         6.56012          6.2686 
       0.411186         6.34466         6.06578 
       0.417313         6.15364         5.87677 
       0.423458         5.94306         5.69764 
       0.429607          5.8098          5.5258 
       0.435692         5.65531         5.36136 
       0.441815         5.46515         5.20038 
       0.447964         5.28568         5.04298 
       0.454126         5.15679         4.89052 
       0.460267         5.03348         4.74484 
       0.466387         4.87824         4.60626 
        0.47254           4.758         4.47361 
       0.478662         4.61776         4.34818 
       0.484765         4.49975         4.22882 
       0.490885         4.36439         4.11387 
       0.497035          4.2391         4.00231 
       0.503198         4.15337         3.89424 
       0.509342         4.02617         3.78999 
       0.515458         3.93737         3.68956 
       0.521598         3.84276         3.59218 
       0.527764          3.7608         3.49802 
       0.533884          3.6391         3.40826 
           0.54         3.56592          3.3221 
       0.546137         3.46644         3.23887 
       0.552299         3.38996         3.15826 
       0.558452         3.30598         3.08052 
       0.564573         3.23655         3.00573 
       0.570708         3.16376         2.93319 
       0.576825         3.09313         2.86315 
       0.582926         3.01529         2.79549 
       0.589034         2.95781         2.72991 
       0.595184         2.90179         2.66605 
       0.601379         2.82587         2.60388 
       0.607522         2.75798         2.54431 
       0.613639         2.69551         2.48691 
       0.619772         2.64876         2.43118 
       0.625918         2.59138         2.37705 
       0.632068         2.53892         2.32449 
       0.638161          2.4851         2.27397 
         0.6443         2.43016         2.22457 
       0.650464         2.38084         2.17646 
       0.656582         2.34309         2.13014 
       0.662703         2.29324         2.08518 
       0.668861         2.23573         2.04128 
       0.675024         2.19336         1.99863 
       0.681124         2.17504         1.95764 
       0.687237         2.12044         1.91772 
       0.693381         2.06727         1.87873 
       0.699536         2.04233         1.84075 
       0.705665         2.00244         1.80399 
       0.711789         1.95603         1.76827 
       0.717957         1.92052         1.73328 
        0.72409         1.88693         1.69944 
       0.730186         1.86415         1.66671 
       0.736317         1.81865         1.63468 
       0.742472          1.7937         1.60338 
       0.748622          1.7636         1.57293 
        0.75476         1.72158         1.54335 
       0.760888         1.69919         1.51457 
       0.767043         1.65413         1.48641 
       0.773185         1.63351         1.45903 
       0.779291           1.617          1.4325 
       0.785407         1.58335         1.40659 
       0.791564         1.55457         1.38116 
       0.797719         1.52786         1.35638 
       0.803834          1.5044         1.33236 
       0.809972          1.4779         1.30884 
       0.816124         1.45514         1.28584 
       0.822261         1.43198         1.26346 
       0.828378         1.40823         1.24168 
       0.834502         1.38399          1.2204 
       0.840667         1.36646         1.19948 
       0.846816         1.34034         1.17912 
       0.852925         1.31834         1.15935 
       0.859047           1.298            1.14 
       0.865192         1.27894         1.12103 
       0.871341         1.26134         1.10248 
       0.877463         1.23663         1.08443 
       0.883569         1.22051         1.06683 
       0.889708         1.20492         1.04954 
       0.895864         1.18633         1.03259 
       0.902008         1.16462         1.01604 
       0.908149         1.14936        0.999873 
       0.914301         1.13414        0.984031 
       0.920448         1.11991        0.968547 
       0.926574         1.10632        0.953452 
       0.932687         1.08861        0.938712 
       0.938823          1.0667        0.924231 
       0.944975         1.05691        0.910024 
       0.951105         1.03454        0.896168 
       0.957225         1.02472        0.882625 
       0.963368         1.01176        0.869317 
       0.969511        0.999146        0.856284 
       0.975621        0.981681        0.843589 
       0.981748        0.964038         0.83112 
       0.987916        0.954137        0.818825 
        0.99406        0.943659        0.806826 
        1.00019        0.929737        0.795092 
        1.00632         0.92041        0.783603 
        1.01246        0.907009        0.772324 
        1.01859        0.895606        0.761286 
        1.02471        0.879835        0.750478 
        1.03085        0.867875        0.739844 
        1.03698        0.859722        0.729438 
        1.04314        0.847528        0.719189 
        1.04929         0.83954         0.70916 
        1.05541        0.824456        0.699364 
        1.06154        0.816909        0.689729 
        1.06769        0.807516         0.68026 
        1.07382        0.795653        0.671001 
        1.07993        0.785491        0.661935 
        1.08607        0.777404           0.653 
        1.09222        0.765763        0.644221 
        1.09836        0.758781        0.635614 
        1.10449        0.745836        0.627174 
        1.11063        0.737057        0.618879 
        1.11677        0.729932        0.610737 
         1.1229        0.718761        0.602755 
        1.12903        0.712756        0.594909 
        1.13518        0.702617        0.587197 
        1.14131         0.69589        0.579625 
        1.14745        0.688854        0.572192 
        1.15359        0.679021        0.564888 
        1.15973        0.671631        0.557708 
        1.16584        0.663238        0.550686 
        1.17197        0.654305        0.543774 
        1.17811        0.646634        0.536961 
        1.18424        0.639779        0.530284 
        1.19038        0.631381        0.523701 
        1.19652        0.626064        0.517233 
        1.20267        0.620457        0.510875 
        1.20881        0.610556        0.504625 
        1.21495        0.604919        0.498489 
        1.22108        0.598848        0.492457 
         1.2272        0.590399        0.486539 
        1.23334        0.584764        0.480705 
        1.23949         0.57892        0.474952 
        1.24562        0.572525         0.46931 
        1.25174         0.56731        0.463768 
        1.25789        0.558769        0.458299 
        1.26402        0.553549        0.452928 
        1.27014        0.545738        0.447657 
        1.27628         0.54236        0.442453 
        1.28244        0.535896        0.437322 
        1.28858        0.529379         0.43228 
        1.29471        0.524042        0.427328 
        1.30084        0.519207        0.422458 
        1.30697        0.515013        0.417657 
        1.31312        0.509157        0.412923 
        1.31925        0.503536        0.408278 
        1.32537        0.498938        0.403708 
        1.33151        0.493047        0.399192 
        1.33765        0.488138        0.394748 
        1.34378         0.48289         0.39038 
        1.34992        0.479368        0.386076 
        1.35606        0.473136        0.381827 
         1.3622        0.469322        0.377649 
        1.36833        0.464974        0.373544 
        1.37445         0.45987        0.369502 
        1.38059        0.455677        0.365508 
        1.38675        0.450637        0.361563 
        1.39288        0.446092        0.357692 
        1.39901        0.441898        0.353879 
        1.40515        0.437593        0.350114 
         1.4113        0.434924        0.346405 
        1.41742        0.429639        0.342763 
        1.42355        0.424146        0.339167 
         1.4297        0.421532        0.335612 
        1.43585        0.416869         0.33211 
        1.44198        0.413657         0.32867 
        1.44809        0.409078        0.325286 
        1.45423        0.405509        0.321938 
        1.46036        0.401703        0.318642 
        1.46649        0.397932        0.315391 
        1.47263        0.393777        0.312183 
        1.47877        0.392451        0.309022 
        1.48491        0.386153        0.305899 
        1.49104        0.384505        0.302825 
        1.49718        0.379665        0.299792 
        1.50333        0.376971        0.296795 
        1.50947        0.373918        0.293845 
         1.5156        0.370363         0.29094 
        1.52172        0.367079        0.288074 
        1.52787        0.362929        0.285241 
          1.534        0.360786        0.282449 
        1.54013        0.357463        0.279698 
        1.54627        0.354441        0.276978 
        1.55241        0.350999        0.274294 
        1.55855        0.347976        0.271649 
        1.56467        0.344912        0.269046 
         1.5708        0.341875         0.26647 
        1.57695        0.338745        0.263924 
        1.58308        0.335155        0.261417 
        1.58922        0.333195        0.258941 
        1.59535         0.32982        0.256498 
         1.6015        0.327202        0.254083 
        1.60764        0.324183          0.2517 
        1.61376        0.321611        0.249354 
        1.61989        0.318866        0.247037 
        1.62604        0.315631        0.244743 
        1.63218         0.31378         0.24248 
        1.63831        0.310757        0.240251 
        1.64444        0.308743        0.238049 
        1.65059        0.305605        0.235869 
        1.65673        0.302887        0.233719 
        1.66285        0.300803        0.231601 
        1.66898        0.298558         0.22951 
        1.67512        0.295244         0.22744 
        1.68127        0.293066        0.225393 
         1.6874        0.291356        0.223376 
        1.69353         0.28826        0.221386 
        1.69967        0.286219        0.219414 
        1.70581        0.284549        0.217468 
        1.71193        0.282184        0.215552 
        1.71806        0.280024        0.213656 
        1.72421        0.277256        0.211778 
        1.73035         0.27472        0.209925 
        1.73649        0.273659        0.208095 
        1.74262        0.270501        0.206288 
        1.74876         0.26884        0.204501 
        1.75489        0.267073        0.202739 
        1.76101        0.264523        0.200999 
        1.76715        0.262506        0.199276 
        1.77329        0.260497        0.197571 
        1.77943         0.25839        0.195886 
        1.78557        0.257142        0.194222 
        1.79171        0.254896        0.192578 
        1.79785        0.252815        0.190952 
        1.80399        0.250052        0.189346 
        1.81012        0.249076         0.18776 
        1.81625        0.247576        0.186193 
        1.82239        0.245799        0.184641 
        1.82853        0.243276        0.183108 
        1.83466        0.241466        0.181594 
        1.84078        0.239641        0.180098 
        1.84692        0.238084        0.178617 
        1.85306        0.236596        0.177151 
         1.8592        0.234674        0.175703 
        1.86533        0.233155        0.174272 
        1.87147        0.230775        0.172856 
        1.87761        0.229251        0.171455 
        1.88375        0.227769         0.17007 
        1.88988        0.225693        0.168703 
        1.89601        0.223929         0.16735 
        1.90215        0.222906         0.16601 
        1.90829        0.220716        0.164686 
        1.91442         0.21982        0.163376 
        1.92056        0.218362        0.162082 
         1.9267        0.216366          0.1608 
        1.93284        0.214693        0.159532 
        1.93897        0.213432        0.158279 
        1.94509          0.2122        0.157043 
        1.95123        0.210083        0.155816 
        1.95737        0.208804        0.154602 
        1.96349        0.207273        0.153404 
        1.96964        0.205939        0.152215 
        1.97578        0.204354        0.151038 
        1.98192        0.203347        0.149876 
        1.98805        0.201919        0.148726 
        1.99419        0.200739        0.147588 
        2.00033        0.199132        0.146461 
        2.00647        0.198029        0.145346 
         2.0126        0.196477        0.144245 
        2.01874        0.195198        0.143154 
        2.02488        0.193696        0.142072 
        2.03101        0.192445        0.141004 
        2.03714        0.191745        0.139948 
        2.04328         0.18977        0.138902 
        2.04941        0.189041        0.137867 
        2.05554        0.187564        0.136843 
        2.06167        0.186275        0.135828 
        2.06781         0.18453        0.134824 
        2.07396        0.184046        0.133828 
        2.08009        0.182479        0.132844 
        2.08622        0.181502        0.131871 
        2.09237        0.180316        0.130906 
        2.09851        0.178754         0.12995 
        2.10464        0.177862        0.129005 
        2.11077        0.176183        0.128071 
        2.11691        0.175416        0.127144 
        2.12305        0.174481        0.126226 
        2.12918        0.173115         0.12532 
        2.13531        0.172053        0.124422 
        2.14145        0.170901        0.123531 
         2.1476        0.169867        0.122647 
        2.15372        0.169108        0.121777 
        2.15985        0.167442        0.120914 
        2.16599        0.166808        0.120057 
        2.17213        0.165755        0.119209 
        2.17827        0.164513         0.11837 
         2.1844        0.163834        0.117539 
        2.19054        0.162687        0.116717 
        2.19666        0.161686        0.115903 
         2.2028        0.160241        0.115096 
        2.20893        0.159708        0.114296 
        2.21508        0.158755        0.113503 
        2.22122        0.157843        0.112718 
        2.22736        0.156374        0.111941 
        2.23349        0.155464        0.111172 
        2.23962         0.15466         0.11041 
        2.24577        0.153858        0.109654 
         2.2519        0.152872        0.108906 
        2.25802        0.151832        0.108167 
        2.26417        0.151158        0.107432 
        2.27031        0.150123        0.106704 
        2.27644         0.14971        0.105984 
        2.28257        0.148311        0.105271 
        2.28872         0.14763        0.104563 
        2.29486        0.146723        0.103862 
        2.30099        0.145667        0.103168 
        2.30712        0.144849        0.102481 
        2.31326        0.143938        0.101799 
         2.3194        0.143242        0.101123 
        2.32553        0.142382        0.100455 
        2.33166        0.141675       0.0997924 
         2.3378         0.14081       0.0991353 
        2.34394        0.140004       0.0984839 
        2.35007        0.139073       0.0978392 
        2.35619        0.138108       0.0972011 
        2.36233        0.137599       0.0965672 
        2.36848        0.136674       0.0959376 
        2.37462         0.13611       0.0953149 
        2.38075        0.135314       0.0946984 
        2.38689        0.134541       0.0940867 
        2.39303        0.133777       0.0934806 
        2.39916         0.13292       0.0928804 
        2.40529        0.132151       0.0922856 
        2.41143        0.131334       0.0916955 
        2.41757        0.130647       0.0911103 
         2.4237        0.129919       0.0905312 
        2.42983        0.129269       0.0899573 
        2.43598        0.128645       0.0893867 
        2.44211        0.127553       0.0888221 
        2.44823        0.127187       0.0882636 
        2.45437         0.12661       0.0877084 
        2.46052        0.125755       0.0871574 
        2.46665        0.125089       0.0866122 
        2.47279        0.124315       0.0860718 
        2.47892        0.123902       0.0855356 
        2.48507        0.123018       0.0850035 
         2.4912        0.122386       0.0844769 
