# k  (h/Mpc)    P(k)  (Mpc/h)^3    P_linear(k)  (Mpc/h)^3
     0.00783031         788.081         796.496 
       0.013688         866.268             875 
       0.019231         797.916         800.744 
      0.0249154          672.04          670.52 
      0.0312784         526.835         525.411 
      0.0375637         415.676         415.119 
      0.0433917         348.834         347.356 
      0.0492413         306.219         305.776 
      0.0555754         279.583         278.438 
      0.0619321         256.002         257.174 
       0.067871          235.39         235.323 
      0.0738098         209.531         209.282 
      0.0800417         180.343         179.592 
      0.0862327         152.409         151.947 
      0.0921407          131.06         130.563 
      0.0982031         115.866         114.992 
       0.104506         105.069         104.957 
       0.110769         99.2989         99.1362 
       0.116806         95.5462         95.0645 
       0.122832         90.6201         90.5414 
       0.129052         84.6833         84.3127 
       0.135211          77.261         76.6727 
       0.141259         69.0688         68.6683 
       0.147318         61.5079         61.2666 
       0.153489         55.6168         55.1822 
       0.159709         51.3537         50.8076 
       0.165845         48.1316         47.9756 
       0.171974         46.6241         46.0619 
       0.178125         44.8479         44.4183 
       0.184229         42.8409         42.5571 
        0.19034         40.7295         40.2349 
       0.196428         38.0081         37.5316 
       0.202534         34.9194         34.6955 
       0.208729         32.5011         32.0098 
       0.214876         30.3786         29.7657 
       0.220989         28.4196         28.0276 
       0.227147         27.2991         26.7119 
        0.23329         26.2504         25.6814 
       0.239377          25.347         24.7622 
       0.245482         24.3547         23.8011 
       0.251667         23.1442         22.7205 
       0.257832         22.1623         21.5485 
       0.263955         20.8349         20.3581 
       0.270079         19.7042         19.2267 
        0.27624         18.6418         18.2134 
       0.282372         17.8007         17.3569 
        0.28843         17.2123         16.6482 
       0.294538         16.5534         16.0318 
       0.300721         15.8843           15.46 
        0.30691         15.4192         14.8961 
       0.313033         14.8151         14.3253 
       0.319153         14.3365         13.7392 
       0.325316         13.6073         13.1501 
        0.33145          13.021         12.5856 
       0.337538         12.5263          12.066 
       0.343633         12.1097         11.5955 
       0.349808         11.6419         11.1684 
       0.355968         11.2342         10.7824 
       0.362074         10.9369         10.4253 
       0.368217         10.5601         10.0803 
       0.374374         10.2703         9.73964 
       0.380519         9.86914         9.40328 
       0.386598         9.51188          9.0766 
       0.392688         9.17269         8.75993 
        0.39888         8.91004         8.45441 
       0.405048         8.63965         8.16958 
       0.411186         8.35583         7.90525 
       0.417313         8.10466         7.65892 
       0.423458         7.82589         7.42546 
       0.429607         7.65836         7.20152 
       0.435692         7.46128         6.98722 
       0.441815         7.20381         6.77741 
       0.447964         6.96616         6.57228 
       0.454126         6.80273         6.37359 
       0.460267         6.64861         6.18373 
       0.466387         6.44137         6.00312 
        0.47254         6.28894         5.83025 
       0.478662          6.1014         5.66678 
       0.484765         5.94623         5.51123 
       0.490885         5.76581         5.36141 
       0.497035         5.60418         5.21602 
       0.503198         5.49452         5.07518 
       0.509342         5.32382         4.93931 
       0.515458         5.21115         4.80843 
       0.521598         5.08748         4.68153 
       0.527764         4.98201         4.55881 
       0.533884         4.81968         4.44182 
           0.54         4.72593         4.32954 
       0.546137         4.59155         4.22106 
       0.552299         4.49244         4.11601 
       0.558452           4.381          4.0147 
       0.564573         4.29329         3.91723 
       0.570708         4.19706         3.82269 
       0.576825         4.10498         3.73141 
       0.582926         4.00323         3.64323 
       0.589034         3.92661         3.55777 
       0.595184         3.85673         3.47453 
       0.601379         3.75403         3.39352 
       0.607522         3.66539         3.31588 
       0.613639         3.58364         3.24108 
       0.619772         3.52226         3.16845 
       0.625918         3.44645         3.09789 
       0.632068          3.3798          3.0294 
       0.638161         3.30826         2.96356 
         0.6443         3.23597         2.89918 
       0.650464         3.16832         2.83648 
       0.656582         3.12238         2.77611 
       0.662703         3.05802         2.71751 
       0.668861         2.97999         2.66031 
       0.675024         2.92381         2.60472 
       0.681124         2.90431          2.5513 
       0.687237         2.83071         2.49927 
       0.693381         2.75851         2.44846 
       0.699536          2.7278         2.39896 
       0.705665         2.67469         2.35106 
       0.711789         2.61309         2.30451 
       0.717957         2.56476          2.2589 
        0.72409         2.52278          2.2148 
       0.730186         2.49477         2.17215 
       0.736317         2.43293          2.1304 
       0.742472         2.40117         2.08961 
       0.748622         2.36094         2.04993 
        0.75476         2.30337         2.01137 
       0.760888         2.27526         1.97386 
       0.767043         2.21569         1.93717 
       0.773185         2.18845         1.90149 
       0.779291         2.16891         1.86691 
       0.785407         2.12298         1.83314 
       0.791564         2.08516             1.8 
       0.797719         2.04968          1.7677 
       0.803834         2.02008          1.7364 
       0.809972         1.98369         1.70575 
       0.816124         1.95457         1.67578 
       0.822261          1.9236         1.64661 
       0.828378         1.89247         1.61823 
       0.834502         1.86093         1.59049 
       0.840667         1.83813         1.56323 
       0.846816         1.80178         1.53669 
       0.852925         1.77441         1.51093 
       0.859047         1.74721         1.48571 
       0.865192         1.72163         1.46098 
       0.871341          1.6981         1.43681 
       0.877463         1.66588         1.41329 
       0.883569         1.64523         1.39035 
       0.889708         1.62398         1.36782 
       0.895864         1.59957         1.34572 
       0.902008         1.57049         1.32416 
       0.908149         1.55018         1.30309 
       0.914301         1.52956         1.28244 
       0.920448         1.51161         1.26226 
       0.926574         1.49422         1.24259 
       0.932687         1.46995         1.22338 
       0.938823         1.44046         1.20451 
       0.944975         1.42883         1.18599 
       0.951105         1.39794         1.16793 
       0.957225         1.38639         1.15028 
       0.963368         1.36879         1.13294 
       0.969511         1.35188         1.11595 
       0.975621         1.32866         1.09941 
       0.981748         1.30494         1.08316 
       0.987916         1.29188         1.06714 
        0.99406         1.27869          1.0515 
        1.00019         1.26028         1.03621 
        1.00632         1.24767         1.02123 
        1.01246         1.22936         1.00653 
        1.01859         1.21436        0.992148 
        1.02471         1.19328        0.978063 
        1.03085         1.17805        0.964203 
        1.03698         1.16654        0.950642 
        1.04314         1.15067        0.937285 
        1.04929         1.13985        0.924215 
        1.05541         1.11983        0.911448 
        1.06154         1.11039        0.898891 
        1.06769         1.09828        0.886551 
        1.07382         1.08171        0.874484 
        1.07993         1.06757        0.862669 
        1.08607         1.05784        0.851025 
        1.09222         1.04203        0.839583 
        1.09836         1.03393        0.828366 
        1.10449         1.01511        0.817367 
        1.11063          1.0039        0.806556 
        1.11677        0.994473        0.795944 
         1.1229        0.979797        0.785542 
        1.12903        0.972192        0.775317 
        1.13518        0.957918        0.765266 
        1.14131        0.948898        0.755399 
        1.14745         0.93896        0.745711 
        1.15359        0.926413        0.736192 
        1.15973        0.916078        0.726835 
        1.16584        0.905467        0.717683 
        1.17197        0.893251        0.708676 
        1.17811        0.883087        0.699796 
        1.18424        0.873856        0.691094 
        1.19038        0.863215        0.682515 
        1.19652        0.855552        0.674086 
        1.20267        0.848317        0.665799 
        1.20881        0.835753        0.657654 
        1.21495        0.827652        0.649658 
        1.22108        0.819848        0.641796 
         1.2272        0.807882        0.634083 
        1.23334        0.800997         0.62648 
        1.23949         0.79252        0.618983 
        1.24562        0.784389         0.61163 
        1.25174        0.777654        0.604407 
        1.25789        0.766102         0.59728 
        1.26402        0.758569         0.59028 
        1.27014        0.748543         0.58341 
        1.27628        0.743633        0.576628 
        1.28244        0.735091        0.569942 
        1.28858        0.726612         0.56337 
        1.29471         0.71892        0.556916 
        1.30084        0.713063         0.55057 
        1.30697        0.707296        0.544313 
        1.31312        0.699301        0.538144 
        1.31925        0.691968        0.532089 
        1.32537        0.685891        0.526134 
        1.33151         0.67765        0.520249 
        1.33765        0.671295        0.514457 
        1.34378        0.664471        0.508765 
        1.34992        0.659436        0.503154 
        1.35606        0.651327        0.497617 
         1.3622        0.646121        0.492172 
        1.36833        0.639594        0.486822 
        1.37445        0.632906        0.481555 
        1.38059        0.627505        0.476349 
        1.38675         0.62077        0.471208 
        1.39288        0.615437        0.466163 
        1.39901        0.609071        0.461194 
        1.40515        0.603503        0.456287 
         1.4113         0.59975        0.451453 
        1.41742        0.592266        0.446707 
        1.42355        0.585509        0.442021 
         1.4297        0.581691        0.437388 
        1.43585        0.575659        0.432823 
        1.44198         0.57115        0.428341 
        1.44809        0.565282        0.423931 
        1.45423        0.560171        0.419566 
        1.46036        0.555348        0.415271 
        1.46649        0.549601        0.411035 
        1.47263         0.54503        0.406854 
        1.47877        0.542806        0.402733 
        1.48491        0.534004        0.398663 
        1.49104        0.531601        0.394658 
        1.49718        0.525181        0.390705 
        1.50333        0.521503        0.386799 
        1.50947         0.51761        0.382955 
         1.5156        0.512844        0.379169 
        1.52172        0.508291        0.375433 
        1.52787        0.503005        0.371741 
          1.534        0.500105        0.368103 
        1.54013        0.495401        0.364517 
        1.54627        0.491047        0.360972 
        1.55241        0.486566        0.357474 
        1.55855        0.482507        0.354027 
        1.56467        0.478154        0.350635 
         1.5708        0.474415        0.347278 
        1.57695        0.470011         0.34396 
        1.58308        0.465282        0.340693 
        1.58922        0.462356        0.337466 
        1.59535         0.45777        0.334282 
         1.6015        0.454205        0.331134 
        1.60764        0.450364        0.328029 
        1.61376        0.446754        0.324972 
        1.61989        0.443258        0.321951 
        1.62604        0.438511        0.318962 
        1.63218        0.436287        0.316013 
        1.63831        0.431985        0.313107 
        1.64444        0.429219        0.310237 
        1.65059        0.425419        0.307397 
        1.65673        0.421259        0.304595 
        1.66285        0.418509        0.301835 
        1.66898        0.415631        0.299109 
        1.67512        0.410774        0.296411 
        1.68127        0.407963        0.293744 
         1.6874        0.406013        0.291116 
        1.69353        0.401467        0.288521 
        1.69967        0.399083        0.285952 
        1.70581        0.396745        0.283416 
        1.71193        0.392902        0.280919 
        1.71806         0.39047        0.278448 
        1.72421        0.386919        0.276001 
        1.73035        0.382946        0.273586 
        1.73649        0.381919        0.271201 
        1.74262        0.377378        0.268846 
        1.74876        0.375073        0.266517 
        1.75489        0.372711        0.264221 
        1.76101        0.368997        0.261952 
        1.76715        0.366531        0.259707 
        1.77329        0.364101        0.257485 
        1.77943         0.36116        0.255288 
        1.78557        0.359415        0.253121 
        1.79171        0.356357        0.250978 
        1.79785         0.35356        0.248859 
        1.80399        0.349768        0.246765 
        1.81012        0.348326        0.244698 
        1.81625        0.345973        0.242656 
        1.82239        0.343703        0.240634 
        1.82853        0.340353        0.238636 
        1.83466        0.337967        0.236662 
        1.84078        0.335388        0.234713 
        1.84692        0.333173        0.232783 
        1.85306        0.331529        0.230872 
         1.8592        0.328417        0.228985 
        1.86533        0.326612        0.227121 
        1.87147         0.32328        0.225275 
        1.87761         0.32127        0.223449 
        1.88375        0.319207        0.221645 
        1.88988        0.316282        0.219863 
        1.89601        0.313986        0.218099 
        1.90215        0.312538        0.216354 
        1.90829        0.309778        0.214628 
        1.91442        0.308342        0.212921 
        1.92056        0.306311        0.211234 
         1.9267        0.303632        0.209563 
        1.93284        0.301346         0.20791 
        1.93897        0.299588        0.206278 
        1.94509        0.297861        0.204666 
        1.95123        0.295041        0.203068 
        1.95737        0.293309        0.201485 
        1.96349        0.291148        0.199924 
        1.96964        0.289573        0.198374 
        1.97578        0.287184        0.196841 
        1.98192        0.285654        0.195326 
        1.98805        0.283797        0.193827 
        1.99419        0.282121        0.192344 
        2.00033          0.2803        0.190876 
        2.00647         0.27859        0.189423 
         2.0126         0.27654        0.187988 
        2.01874        0.274625        0.186565 
        2.02488        0.272473        0.185156 
        2.03101        0.270841        0.183764 
        2.03714        0.269798        0.182388 
        2.04328        0.267262        0.181024 
        2.04941        0.265977        0.179675 
        2.05554        0.264075        0.178341 
        2.06167        0.262357        0.177019 
        2.06781        0.260029         0.17571 
        2.07396        0.259397        0.174412 
        2.08009        0.257162        0.173129 
        2.08622        0.255763        0.171861 
        2.09237        0.254255        0.170603 
        2.09851        0.252145        0.169357 
        2.10464        0.250895        0.168126 
        2.11077        0.248399        0.166909 
        2.11691        0.247485        0.165701 
        2.12305        0.246482        0.164505 
        2.12918         0.24429        0.163323 
        2.13531        0.242879        0.162153 
        2.14145        0.241251        0.160992 
         2.1476        0.239839         0.15984 
        2.15372        0.238726        0.158706 
        2.15985        0.236613        0.157582 
        2.16599        0.235645        0.156465 
        2.17213        0.234117         0.15536 
        2.17827        0.232309        0.154266 
         2.1844        0.231532        0.153184 
        2.19054        0.230072        0.152111 
        2.19666        0.228479        0.151051 
         2.2028         0.22686        0.149999 
        2.20893        0.226044        0.148957 
        2.21508        0.224657        0.147924 
        2.22122        0.223281          0.1469 
        2.22736        0.221172        0.145888 
        2.23349        0.219934        0.144885 
        2.23962        0.218991        0.143892 
        2.24577        0.217739        0.142907 
         2.2519        0.216404        0.141933 
        2.25802        0.215122        0.140969 
        2.26417        0.213747        0.140011 
        2.27031        0.212666        0.139062 
        2.27644        0.212052        0.138124 
        2.28257        0.210068        0.137194 
        2.28872        0.209283        0.136272 
        2.29486        0.207918        0.135358 
        2.30099         0.20653        0.134454 
        2.30712        0.205361        0.133559 
        2.31326        0.204168        0.132669 
         2.3194        0.203141        0.131789 
        2.32553        0.201923        0.130918 
        2.33166        0.201172        0.130055 
         2.3378        0.199848        0.129198 
        2.34394        0.198737        0.128349 
        2.35007        0.197335        0.127509 
        2.35619          0.1959        0.126678 
        2.36233        0.195325        0.125851 
        2.36848        0.194167        0.125031 
        2.37462         0.19323        0.124219 
        2.38075        0.192165        0.123416 
        2.38689        0.191136        0.122619 
        2.39303        0.190009        0.121829 
        2.39916        0.188905        0.121047 
        2.40529        0.187841        0.120271 
        2.41143        0.186702        0.119502 
        2.41757        0.185691         0.11874 
         2.4237        0.184793        0.117985 
        2.42983        0.183622        0.117237 
        2.43598        0.182841        0.116494 
        2.44211        0.181548        0.115758 
        2.44823        0.180944         0.11503 
        2.45437        0.180134        0.114306 
        2.46052        0.178981        0.113588 
        2.46665         0.17796        0.112878 
        2.47279        0.176989        0.112173 
        2.47892        0.176283        0.111475 
        2.48507        0.175278        0.110781 
         2.4912        0.174293        0.110095 
