# k  (h/Mpc)    Pcb(k)  (Mpc/h)^3    Pcb_linear(k)  (Mpc/h)^3
     0.00783031         10128.4         10263.2 
       0.013688         13507.1         13418.3 
       0.019231         14229.5         14229.5 
      0.0249154         13484.2         13755.4 
      0.0312784         12326.6           12481 
      0.0375637         11014.3         11065.6 
      0.0433917         9704.27         9918.77 
      0.0492413         8908.37          9024.6 
      0.0555754         8030.29         8316.54 
      0.0619321         7715.85         7773.45 
       0.067871         7064.04         7312.59 
      0.0738098         6583.11         6825.66 
      0.0800417         5963.41         6261.51 
      0.0862327         5461.84         5669.96 
      0.0921407         5007.79         5122.91 
      0.0982031         4504.13         4625.89 
       0.104506         4216.87         4208.62 
       0.110769         3903.18         3898.03 
       0.116806         3661.34         3678.16 
       0.122832         3501.87          3506.1 
       0.129052         3271.86         3344.69 
       0.135211         3115.24         3175.37 
       0.141259         2983.43         2989.17 
       0.147318         2815.58         2786.66 
       0.153489            2589         2577.89 
       0.159709         2447.58         2382.13 
       0.165845         2350.63         2216.29 
       0.171974         2211.79         2082.96 
       0.178125         2105.94         1978.96 
       0.184229         2025.97         1897.05 
        0.19034         1910.49          1825.7 
       0.196428         1880.84         1755.62 
       0.202534          1817.2         1680.19 
       0.208729         1735.94         1596.92 
       0.214876         1656.94         1510.28 
       0.220989         1606.13         1425.19 
       0.227147         1528.44         1345.78 
        0.23329          1469.8         1276.44 
       0.239377         1446.59         1218.57 
       0.245482         1356.62         1170.08 
       0.251667         1349.27         1127.82 
       0.257832         1300.09         1089.12 
       0.263955         1259.43         1051.09 
       0.270079         1218.92          1011.8 
        0.27624         1207.03         970.739 
       0.282372          1155.4         929.281 
        0.28843         1142.99         889.325 
       0.294538         1087.87          851.54 
       0.300721         1084.39         816.949 
        0.30691         1038.63         786.236 
       0.313033         1019.81         759.299 
       0.319153         999.438         734.856 
       0.325316         967.765         711.698 
        0.33145         945.171         689.167 
       0.337538         933.201         666.832 
       0.343633         908.478         644.368 
       0.349808         879.484         621.825 
       0.355968         874.763         599.969 
       0.362074         862.922         579.415 
       0.368217         838.579         560.147 
       0.374374         805.866         542.324 
       0.380519         804.257         525.908 
       0.386598         785.496         510.708 
       0.392688         782.935         496.219 
        0.39888         760.233         481.945 
       0.405048          748.96         467.991 
       0.411186         737.587         454.345 
       0.417313         723.472         441.001 
       0.423458         712.332         428.017 
       0.429607         700.227         415.572 
       0.435692         685.536         403.867 
       0.441815         681.784         392.717 
       0.447964          667.37         382.137 
       0.454126         655.214         372.053 
       0.460267         644.105         362.411 
       0.466387         637.243         353.125 
        0.47254          626.93          344.05 
       0.478662          624.94         335.239 
       0.484765         607.481         326.686 
       0.490885         602.579         318.373 
       0.497035         591.135         310.311 
       0.503198         584.777         302.541 
       0.509342         579.446         295.112 
       0.515458         575.335         288.026 
       0.521598         563.111          281.19 
       0.527764         551.468         274.567 
       0.533884         550.645           268.2 
           0.54         543.538         262.029 
       0.546137         541.353         256.012 
       0.552299         531.667         250.139 
       0.558452         529.043         244.443 
       0.564573         520.663          238.95 
       0.570708         514.215         233.624 
       0.576825           502.4         228.495 
       0.582926         502.411          223.55 
       0.589034         497.792         218.756 
       0.595184         493.062         214.079 
       0.601379         487.412         209.511 
       0.607522         480.337         205.112 
       0.613639         479.717         200.856 
       0.619772         467.151         196.706 
       0.625918         466.364         192.661 
       0.632068          459.96         188.725 
       0.638161         458.308         184.936 
         0.6443         449.539         181.228 
       0.650464         447.297         177.615 
       0.656582          446.04         174.132 
       0.662703         442.673         170.746 
       0.668861         434.783         167.433 
       0.675024           431.4         164.205 
       0.681124         429.046         161.093 
       0.687237         424.755         158.056 
       0.693381         419.387         155.083 
       0.699536         414.655         152.182 
       0.705665         412.662          149.37 
       0.711789         409.158         146.633 
       0.717957         405.727         143.947 
        0.72409          402.39         141.345 
       0.730186         398.243         138.825 
       0.736317          394.83         136.353 
       0.742472         393.481         133.934 
       0.748622         389.036         131.575 
        0.75476         385.121          129.28 
       0.760888         380.709         127.043 
       0.767043         381.254         124.851 
       0.773185         375.987         122.716 
       0.779291         370.994         120.644 
       0.785407         369.502         118.618 
       0.791564         365.474         116.626 
       0.797719          363.12         114.682 
       0.803834         360.382         112.795 
       0.809972          358.35         110.944 
       0.816124           358.4         109.132 
       0.822261         352.348         107.365 
       0.828378         350.651         105.644 
       0.834502         348.647         103.959 
       0.840667          344.06           102.3 
       0.846816         342.813         100.683 
       0.852925         339.922         99.1116 
       0.859047          338.72         97.5707 
       0.865192         335.403          96.058 
       0.871341         332.587         94.5767 
       0.877463         330.511         93.1339 
       0.883569         328.515         91.7252 
       0.889708         325.721         90.3389 
       0.895864         321.992          88.978 
       0.902008         321.252         87.6485 
       0.908149         319.383         86.3472 
       0.914301         315.542         85.0707 
       0.920448         313.173         83.8215 
       0.926574         310.648          82.602 
       0.932687         310.959         81.4098 
       0.938823         306.982         80.2371 
       0.944975         306.053         79.0851 
       0.951105         303.563         77.9602 
       0.957225         301.122         76.8594 
       0.963368         297.581         75.7763 
       0.969511         296.153         74.7144 
       0.975621         293.762         73.6788 
       0.981748         294.052         72.6605 
       0.987916         290.941         71.6552 
        0.99406         287.212         70.6729 
        1.00019         287.381         69.7113 
        1.00632         285.138         68.7686 
        1.01246         282.699         67.8422 
        1.01859         282.726         66.9345 
        1.02471         279.139         66.0448 
        1.03085         276.467         65.1683 
        1.03698         275.752         64.3099 
        1.04314         273.327         63.4634 
        1.04929          271.29         62.6343 
        1.05541         270.933         61.8235 
        1.06154         267.696         61.0253 
        1.06769         266.936         60.2401 
        1.07382         265.267         59.4714 
        1.07993         263.147          58.718 
        1.08607         262.306         57.9748 
        1.09222         260.351         57.2438 
        1.09836         258.056         56.5263 
        1.10449         255.619         55.8222 
        1.11063         253.685         55.1294 
        1.11677         253.385         54.4488 
         1.1229         251.496          53.781 
        1.12903         249.736         53.1239 
        1.13518         248.242         52.4773 
        1.14131         246.494          51.842 
        1.14745         245.987         51.2177 
        1.15359         243.626         50.6037 
        1.15973         242.832         49.9996 
        1.16584         240.195         49.4082 
        1.17197          239.84         48.8256 
        1.17811         237.757         48.2507 
        1.18424         236.329         47.6869 
        1.19038         235.414         47.1305 
        1.19652         233.734         46.5834 
        1.20267         232.889          46.045 
        1.20881         230.819         45.5153 
        1.21495         229.309         44.9949 
        1.22108         228.411         44.4828 
         1.2272         226.551         43.9799 
        1.23334         225.256         43.4838 
        1.23949          223.95         42.9942 
        1.24562         222.846         42.5135 
        1.25174         220.233         42.0411 
        1.25789          219.12         41.5744 
        1.26402         218.238         41.1157 
        1.27014         216.714         40.6652 
        1.27628         215.561         40.2201 
        1.28244         215.097         39.7809 
        1.28858         213.013         39.3489 
        1.29471         211.061         38.9243 
        1.30084         210.221         38.5065 
        1.30697         208.814         38.0942 
        1.31312         207.555         37.6874 
        1.31925         207.003         37.2879 
        1.32537         205.643         36.8946 
        1.33151         203.827         36.5056 
        1.33765         202.792         36.1226 
        1.34378         201.759         35.7458 
        1.34992         200.663         35.3742 
        1.35606         200.053         35.0071 
         1.3622         198.571         34.6459 
        1.36833         196.728         34.2908 
        1.37445         195.438         33.9408 
        1.38059         194.428         33.5947 
        1.38675         193.395         33.2527 
        1.39288         192.225         32.9168 
        1.39901         192.042         32.5858 
        1.40515         190.282         32.2586 
         1.4113         188.636         31.9361 
        1.41742         188.042         31.6192 
        1.42355         186.351         31.3062 
         1.4297           185.5         30.9964 
        1.43585         183.983          30.691 
        1.44198         183.376         30.3909 
        1.44809         182.497         30.0955 
        1.45423         180.918         29.8029 
        1.46036         180.288         29.5148 
        1.46649          179.08         29.2304 
        1.47263         177.995         28.9495 
        1.47877         177.098         28.6725 
        1.48491         175.544         28.3988 
        1.49104          175.18         28.1292 
        1.49718         173.167          27.863 
        1.50333         172.653         27.5997 
        1.50947         171.901         27.3405 
         1.5156         170.564          27.085 
        1.52172         169.593         26.8328 
        1.52787         168.456         26.5833 
          1.534         167.923         26.3373 
        1.54013         166.378         26.0947 
        1.54627         165.869         25.8548 
        1.55241         164.573         25.6179 
        1.55855          163.74         25.3842 
        1.56467         162.821         25.1542 
         1.5708         161.917         24.9264 
        1.57695         160.768         24.7011 
        1.58308         160.263         24.4791 
        1.58922          159.23         24.2597 
        1.59535          157.95         24.0431 
         1.6015         157.567         23.8289 
        1.60764          156.36         23.6174 
        1.61376         155.422         23.4091 
        1.61989          154.44         23.2032 
        1.62604         153.772         22.9993 
        1.63218         152.867          22.798 
        1.63831         151.838         22.5995 
        1.64444         151.258         22.4034 
        1.65059         150.377         22.2092 
        1.65673         149.182         22.0175 
        1.66285         148.807         21.8286 
        1.66898          147.83         21.6419 
        1.67512         147.117          21.457 
        1.68127         145.878         21.2742 
         1.6874         144.574         21.0939 
        1.69353         144.383         20.9158 
        1.69967         143.492         20.7393 
        1.70581         142.652          20.565 
        1.71193          141.72         20.3934 
        1.71806         141.114         20.2234 
        1.72421         140.288          20.055 
        1.73035         139.551         19.8887 
        1.73649         138.887         19.7244 
        1.74262         137.913          19.562 
        1.74876         137.448         19.4014 
        1.75489         136.054         19.2429 
        1.76101         135.625         19.0863 
        1.76715         134.689         18.9312 
        1.77329         134.363         18.7777 
        1.77943         133.199         18.6258 
        1.78557         132.479         18.4758 
        1.79171         131.779         18.3274 
        1.79785         130.983         18.1807 
        1.80399         130.293         18.0356 
        1.81012         129.593         17.8923 
        1.81625         128.774         17.7507 
        1.82239          128.39         17.6103 
        1.82853         127.743         17.4716 
        1.83466           126.8         17.3345 
        1.84078         126.261          17.199 
        1.84692         125.243         17.0648 
        1.85306           124.7         16.9319 
         1.8592         123.761         16.8006 
        1.86533         123.095         16.6707 
        1.87147         122.283         16.5421 
        1.87761         121.965         16.4149 
        1.88375         120.806         16.2891 
        1.88988         120.249         16.1647 
        1.89601         119.485         16.0416 
        1.90215         119.043         15.9198 
        1.90829         118.358         15.7992 
        1.91442         117.901         15.6799 
        1.92056         117.142         15.5619 
         1.9267         116.542         15.4451 
        1.93284         115.915         15.3293 
        1.93897         115.169          15.215 
        1.94509          114.76         15.1021 
        1.95123         114.059         14.9901 
        1.95737         113.415         14.8792 
        1.96349          112.77         14.7696 
        1.96964         111.825         14.6609 
        1.97578         111.452         14.5532 
        1.98192         110.817         14.4468 
        1.98805         109.874         14.3415 
        1.99419         109.563         14.2372 
        2.00033         109.025         14.1339 
        2.00647          108.36         14.0317 
         2.0126         107.773         13.9307 
        2.01874         107.079         13.8305 
        2.02488         106.655         13.7312 
        2.03101         105.901         13.6331 
        2.03714         105.309         13.5361 
        2.04328         104.863         13.4398 
        2.04941         104.173         13.3446 
        2.05554         103.527         13.2504 
        2.06167         103.076          13.157 
        2.06781         102.673         13.0645 
        2.07396          101.84         12.9728 
        2.08009         101.242          12.882 
        2.08622          100.98         12.7923 
        2.09237         100.114         12.7033 
        2.09851         99.8503         12.6151 
        2.10464          99.093         12.5278 
        2.11077         98.7294         12.4416 
        2.11691         98.2593         12.3559 
        2.12305         97.5524         12.2711 
        2.12918          96.942         12.1872 
        2.13531         96.6534         12.1042 
        2.14145         95.7109         12.0217 
         2.1476         95.4442         11.9399 
        2.15372         94.9464         11.8593 
        2.15985         94.4725         11.7793 
        2.16599         94.0313         11.6999 
        2.17213         93.2908         11.6213 
        2.17827         93.0386         11.5434 
         2.1844         92.3391         11.4663 
        2.19054          92.101         11.3899 
        2.19666         91.4842         11.3143 
         2.2028           91.11         11.2394 
        2.20893         90.3975          11.165 
        2.21508         89.8186         11.0913 
        2.22122         89.5238         11.0182 
        2.22736         88.9361          10.946 
        2.23349          88.716         10.8744 
        2.23962          88.045         10.8034 
        2.24577         87.5598          10.733 
         2.2519         87.3197         10.6633 
        2.25802         86.5475         10.5944 
        2.26417         86.1465         10.5258 
        2.27031         85.7558         10.4578 
        2.27644          85.303         10.3907 
        2.28257         84.6674         10.3241 
        2.28872         84.3135          10.258 
        2.29486         83.9506         10.1925 
        2.30099         83.4215         10.1276 
        2.30712         82.9612         10.0634 
        2.31326         82.6543         9.99955 
         2.3194         82.1373         9.93633 
        2.32553         81.7053         9.87376 
        2.33166         81.1603         9.81176 
         2.3378         80.7741          9.7502 
        2.34394         80.4694         9.68917 
        2.35007         79.8547         9.62874 
        2.35619         79.3924          9.5689 
        2.36233          79.027         9.50944 
        2.36848         78.6633         9.45036 
        2.37462         78.2581         9.39191 
        2.38075         77.9895         9.33401 
        2.38689         77.3932         9.27656 
        2.39303         77.0661         9.21961 
        2.39916         76.6791         9.16319 
        2.40529         76.3676         9.10725 
        2.41143         75.8223         9.05175 
        2.41757         75.5207         8.99668 
         2.4237         75.2096         8.94218 
        2.42983         74.7044         8.88813 
        2.43598         74.3361         8.83439 
        2.44211         73.9499         8.78119 
        2.44823         73.5636         8.72855 
        2.45437         73.1398          8.6762 
        2.46052         72.6946         8.62424 
        2.46665         72.3585          8.5728 
        2.47279         71.9786         8.52179 
        2.47892         71.6403         8.47117 
        2.48507         71.1736         8.42092 
         2.4912         70.8804         8.37117 
