# k  (h/Mpc)    P(k)  (Mpc/h)^3    P_linear(k)  (Mpc/h)^3
     0.00783031         14215.5         14421.7 
       0.013688         18988.8         18830.9 
       0.019231         19944.8         19956.8 
      0.0249154         18812.4         19284.4 
      0.0312784         17198.6         17493.1 
      0.0375637         15382.2         15506.5 
      0.0433917           13498         13897.9 
      0.0492413         12408.9           12644 
      0.0555754         11125.8         11651.1 
      0.0619321         10736.4         10889.7 
       0.067871         9774.67         10243.6 
      0.0738098         9110.93         9561.22 
      0.0800417         8230.29         8770.73 
      0.0862327         7554.83         7941.95 
      0.0921407         6954.73         7175.55 
      0.0982031         6262.73         6479.29 
       0.104506         5890.98         5894.75 
       0.110769         5456.19         5459.67 
       0.116806         5131.83         5151.66 
       0.122832          4897.5         4910.62 
       0.129052         4562.74         4684.52 
       0.135211         4345.08         4447.34 
       0.141259         4176.24         4186.53 
       0.147318         3952.89         3902.88 
       0.153489         3636.18         3610.47 
       0.159709         3450.97         3336.27 
       0.165845         3338.38            3104 
       0.171974          3150.1         2917.26 
       0.178125         3001.06         2771.59 
       0.184229         2877.55         2656.86 
        0.19034         2735.78         2556.93 
       0.196428         2688.23         2458.77 
       0.202534         2588.02         2353.14 
       0.208729         2484.82          2236.5 
       0.214876         2392.03         2115.16 
       0.220989         2317.12         1995.99 
       0.227147         2222.56         1884.77 
        0.23329         2140.77         1787.66 
       0.239377         2116.84         1706.61 
       0.245482         1992.54         1638.69 
       0.251667         1985.17          1579.5 
       0.257832         1910.64          1525.3 
       0.263955         1850.33         1472.05 
       0.270079         1793.57         1417.01 
        0.27624         1774.48         1359.51 
       0.282372          1702.2         1301.45 
        0.28843         1702.86         1245.49 
       0.294538         1624.51         1192.57 
       0.300721         1615.35         1144.13 
        0.30691          1557.4         1101.11 
       0.313033         1527.05         1063.38 
       0.319153         1511.41         1029.15 
       0.325316         1460.28         996.722 
        0.33145         1431.12         965.164 
       0.337538         1408.13         933.886 
       0.343633         1381.32         902.424 
       0.349808         1339.97         870.853 
       0.355968         1330.35         840.243 
       0.362074         1319.71         811.458 
       0.368217         1279.05         784.473 
       0.374374         1236.89          759.51 
       0.380519         1240.39         736.521 
       0.386598         1208.16         715.233 
       0.392688         1201.83         694.941 
        0.39888         1170.73         674.952 
       0.405048         1159.63         655.407 
       0.411186         1143.01           636.3 
       0.417313         1119.76         617.608 
       0.423458          1102.5         599.426 
       0.429607         1088.75         581.997 
       0.435692          1069.9         565.604 
       0.441815         1063.36         549.987 
       0.447964         1040.25         535.172 
       0.454126         1033.74         521.049 
       0.460267         1010.69         507.545 
       0.466387         996.498          494.54 
        0.47254         993.917         481.832 
       0.478662         982.253         469.492 
       0.484765         959.551         457.513 
       0.490885         953.915         445.871 
       0.497035         932.899          434.58 
       0.503198         929.253         423.699 
       0.509342          917.32         413.294 
       0.515458         914.494         403.371 
       0.521598         894.305         393.798 
       0.527764         876.532         384.521 
       0.533884         876.958         375.605 
           0.54         869.164         366.962 
       0.546137         859.084         358.537 
       0.552299          850.36         350.311 
       0.558452         843.305         342.334 
       0.564573         831.606         334.641 
       0.570708         824.498         327.182 
       0.576825         802.727         319.999 
       0.582926         807.647         313.074 
       0.589034         799.367         306.361 
       0.595184         791.663         299.811 
       0.601379         781.734         293.412 
       0.607522         771.123         287.253 
       0.613639         772.623         281.292 
       0.619772         755.927          275.48 
       0.625918         750.309         269.815 
       0.632068          742.36         264.303 
       0.638161         739.841         258.996 
         0.6443         726.408         253.803 
       0.650464         725.654         248.743 
       0.656582         720.895         243.866 
       0.662703         716.405         239.124 
       0.668861          704.29         234.483 
       0.675024          698.26         229.962 
       0.681124          695.34         225.605 
       0.687237         689.435         221.352 
       0.693381         682.022         217.188 
       0.699536         669.436         213.126 
       0.705665         670.864         209.187 
       0.711789         665.531         205.353 
       0.717957         659.304         201.593 
        0.72409         656.107         197.949 
       0.730186         646.244         194.419 
       0.736317         643.462         190.958 
       0.742472         639.978         187.569 
       0.748622         633.251         184.266 
        0.75476         623.354         181.051 
       0.760888         619.313         177.919 
       0.767043          617.21         174.849 
       0.773185         611.748         171.859 
       0.779291         607.169         168.958 
       0.785407         600.801          166.12 
       0.791564         595.104          163.33 
       0.797719         592.644         160.608 
       0.803834         587.443         157.965 
       0.809972         583.554         155.373 
       0.816124         582.476         152.835 
       0.822261         573.631         150.361 
       0.828378         570.425          147.95 
       0.834502         564.832          145.59 
       0.840667         560.518         143.268 
       0.846816         557.265         141.003 
       0.852925         552.341         138.802 
       0.859047         552.401         136.644 
       0.865192         545.009         134.525 
       0.871341         540.485         132.451 
       0.877463         539.909          130.43 
       0.883569         533.434         128.458 
       0.889708         531.322         126.516 
       0.895864         528.426          124.61 
       0.902008         524.234         122.748 
       0.908149         517.892         120.926 
       0.914301         515.709         119.138 
       0.920448         512.793         117.389 
       0.926574         504.121         115.681 
       0.932687          503.74         114.011 
       0.938823         498.837         112.369 
       0.944975         499.066         110.756 
       0.951105         492.298          109.18 
       0.957225         488.894         107.638 
       0.963368          484.91         106.122 
       0.969511         483.116         104.635 
       0.975621         479.765         103.184 
       0.981748         476.452         101.758 
       0.987916         473.314          100.35 
        0.99406         465.653         98.9746 
        1.00019         464.573         97.6278 
        1.00632         462.256         96.3076 
        1.01246         458.614         95.0102 
        1.01859         457.889          93.739 
        1.02471         452.088          92.493 
        1.03085          450.16         91.2656 
        1.03698         448.245         90.0634 
        1.04314         443.749         88.8779 
        1.04929         438.406         87.7168 
        1.05541         439.553         86.5814 
        1.06154         433.525         85.4635 
        1.06769         430.227         84.3638 
        1.07382         427.907         83.2873 
        1.07993         425.453         82.2322 
        1.08607         424.115         81.1913 
        1.09222         419.748         80.1675 
        1.09836          417.07         79.1628 
        1.10449         413.401         78.1767 
        1.11063         408.711         77.2065 
        1.11677         409.608         76.2533 
         1.1229         407.122          75.318 
        1.12903         403.332         74.3978 
        1.13518         398.848         73.4924 
        1.14131         397.997         72.6026 
        1.14745         394.189         71.7283 
        1.15359         392.537         70.8684 
        1.15973         389.825         70.0224 
        1.16584         387.193         69.1941 
        1.17197         385.293         68.3782 
        1.17811         381.899         67.5732 
        1.18424         378.347         66.7835 
        1.19038         376.055         66.0044 
        1.19652         374.624         65.2381 
        1.20267         372.186         64.4841 
        1.20881         370.457         63.7423 
        1.21495         367.139         63.0135 
        1.22108         365.108         62.2963 
         1.2272         362.057         61.5921 
        1.23334         359.881         60.8972 
        1.23949         357.684         60.2115 
        1.24562         355.999         59.5385 
        1.25174         352.995         58.8768 
        1.25789          349.12         58.2232 
        1.26402         347.374         57.5809 
        1.27014         345.271         56.9499 
        1.27628         342.936         56.3266 
        1.28244         343.113         55.7115 
        1.28858         338.785         55.1065 
        1.29471         337.046         54.5119 
        1.30084         335.059         53.9267 
        1.30697          332.88         53.3494 
        1.31312         329.352         52.7797 
        1.31925         328.654         52.2201 
        1.32537         327.312         51.6694 
        1.33151         323.481         51.1246 
        1.33765         321.551         50.5881 
        1.34378         320.385         50.0605 
        1.34992         317.956         49.5401 
        1.35606         316.083          49.026 
         1.3622         313.984         48.5202 
        1.36833         312.077         48.0228 
        1.37445         310.185         47.5327 
        1.38059         307.107          47.048 
        1.38675         305.576          46.569 
        1.39288         303.895         46.0986 
        1.39901         302.626          45.635 
        1.40515          300.25         45.1768 
         1.4113         298.921         44.7252 
        1.41742         296.429         44.2814 
        1.42355         294.343          43.843 
         1.4297         292.667         43.4092 
        1.43585         291.125         42.9815 
        1.44198         289.216         42.5612 
        1.44809         286.359         42.1474 
        1.45423         284.696         41.7377 
        1.46036         283.688         41.3342 
        1.46649          281.31         40.9359 
        1.47263         279.908         40.5426 
        1.47877         277.618         40.1547 
        1.48491         275.693         39.7713 
        1.49104         274.745         39.3938 
        1.49718         272.514         39.0209 
        1.50333         270.848         38.6523 
        1.50947         269.283         38.2892 
         1.5156         266.913         37.9314 
        1.52172         266.363         37.5782 
        1.52787         263.963         37.2288 
          1.534          262.99         36.8843 
        1.54013         260.215         36.5446 
        1.54627         259.197         36.2086 
        1.55241         257.723         35.8767 
        1.55855          255.75         35.5496 
        1.56467         254.216         35.2274 
         1.5708         253.504         34.9084 
        1.57695         251.127         34.5928 
        1.58308         249.824          34.282 
        1.58922         246.745         33.9747 
        1.59535         246.112         33.6714 
         1.6015         245.166         33.3714 
        1.60764         243.021         33.0752 
        1.61376         242.024         32.7835 
        1.61989         240.221         32.4951 
        1.62604         238.509         32.2095 
        1.63218         237.358         31.9276 
        1.63831         235.739         31.6497 
        1.64444         234.802          31.375 
        1.65059         233.192          31.103 
        1.65673         231.639         30.8346 
        1.66285         229.877           30.57 
        1.66898          228.46         30.3086 
        1.67512         227.485         30.0497 
        1.68127         225.152         29.7936 
         1.6874         223.807         29.5411 
        1.69353         222.934         29.2917 
        1.69967         221.438         29.0446 
        1.70581         220.251         28.8005 
        1.71193         218.469         28.5601 
        1.71806         217.671          28.322 
        1.72421         216.072         28.0862 
        1.73035         215.232         27.8533 
        1.73649         213.839         27.6231 
        1.74262         212.205         27.3958 
        1.74876         210.722         27.1708 
        1.75489         209.616         26.9489 
        1.76101         208.327         26.7296 
        1.76715         207.211         26.5124 
        1.77329         206.165         26.2973 
        1.77943         204.851         26.0846 
        1.78557         203.036         25.8745 
        1.79171         202.383         25.6668 
        1.79785         200.682         25.4613 
        1.80399         199.864         25.2581 
        1.81012         198.543         25.0574 
        1.81625         197.259          24.859 
        1.82239         196.023         24.6625 
        1.82853         195.358         24.4682 
        1.83466         193.873         24.2762 
        1.84078         192.755         24.0865 
        1.84692         191.383         23.8986 
        1.85306         190.494         23.7124 
         1.8592         189.154         23.5285 
        1.86533         188.412         23.3467 
        1.87147         186.992         23.1666 
        1.87761         186.212         22.9883 
        1.88375         184.476         22.8121 
        1.88988         183.072          22.638 
        1.89601         182.807         22.4656 
        1.90215         181.616         22.2949 
        1.90829          180.34         22.1261 
        1.91442         179.142          21.959 
        1.92056         178.444         21.7938 
         1.9267         176.658         21.6301 
        1.93284         175.963         21.4681 
        1.93897         175.184          21.308 
        1.94509         173.982         21.1499 
        1.95123         173.139          20.993 
        1.95737         171.928         20.8376 
        1.96349         170.874         20.6842 
        1.96964         169.824         20.5319 
        1.97578         168.909         20.3811 
        1.98192         167.855         20.2321 
        1.98805         166.658         20.0846 
        1.99419         165.915         19.9386 
        2.00033         164.862          19.794 
        2.00647         164.057         19.6508 
         2.0126         162.741         19.5093 
        2.01874         162.536          19.369 
        2.02488         161.325           19.23 
        2.03101         159.964         19.0926 
        2.03714         159.266         18.9567 
        2.04328         158.146         18.8219 
        2.04941         157.525         18.6886 
        2.05554         156.204         18.5567 
        2.06167         155.581         18.4259 
        2.06781          154.53         18.2963 
        2.07396         153.614         18.1678 
        2.08009         152.907         18.0408 
        2.08622         151.791         17.9151 
        2.09237         150.826         17.7904 
        2.09851         150.058         17.6669 
        2.10464         149.571         17.5447 
        2.11077         148.484         17.4239 
        2.11691         147.532         17.3039 
        2.12305         146.825         17.1851 
        2.12918         145.877         17.0677 
        2.13531         145.383         16.9513 
        2.14145          143.99         16.8359 
         2.1476         143.132         16.7213 
        2.15372         142.773         16.6084 
        2.15985         142.214         16.4964 
        2.16599          140.83         16.3852 
        2.17213         140.172         16.2751 
        2.17827         139.328          16.166 
         2.1844         138.401         16.0581 
        2.19054         137.621         15.9511 
        2.19666         136.883         15.8452 
         2.2028         136.275         15.7403 
        2.20893         135.656         15.6362 
        2.21508         134.861         15.5329 
        2.22122         133.733         15.4306 
        2.22736         133.064         15.3294 
        2.23349         132.253         15.2291 
        2.23962         131.446         15.1297 
        2.24577         130.822         15.0311 
         2.2519         130.339         14.9335 
        2.25802         129.491         14.8369 
        2.26417         128.767          14.741 
        2.27031         127.856         14.6458 
        2.27644         127.233         14.5517 
        2.28257         126.548         14.4584 
        2.28872         126.018         14.3659 
        2.29486         124.916         14.2741 
        2.30099         124.392         14.1833 
        2.30712          123.75         14.0933 
        2.31326         122.945         14.0039 
         2.3194         122.408         13.9154 
        2.32553         121.753         13.8278 
        2.33166          121.16         13.7409 
         2.3378         120.488         13.6547 
        2.34394         119.811         13.5693 
        2.35007         119.068         13.4846 
        2.35619          118.26         13.4008 
        2.36233          117.74         13.3176 
        2.36848          117.13         13.2348 
        2.37462         116.687          13.153 
        2.38075         115.667         13.0719 
        2.38689         115.232         12.9914 
        2.39303         114.703         12.9117 
        2.39916         114.157         12.8326 
        2.40529         113.497         12.7543 
        2.41143         112.943         12.6766 
        2.41757         112.051         12.5995 
         2.4237         111.503         12.5231 
        2.42983         110.777         12.4474 
        2.43598         110.397         12.3722 
        2.44211         109.836         12.2977 
        2.44823         109.141          12.224 
        2.45437         108.688         12.1506 
        2.46052         107.956         12.0779 
        2.46665         107.248         12.0058 
        2.47279         107.016         11.9344 
        2.47892         106.412         11.8635 
        2.48507           105.7         11.7931 
         2.4912         105.016         11.7235 
