# k  (h/Mpc)    Pcb(k)  (Mpc/h)^3    Pcb_linear(k)  (Mpc/h)^3
     0.00783031         7366.15         7405.41 
       0.013688         9000.08         9178.28 
       0.019231         9242.44         9340.47 
      0.0249154          8708.7         8693.01 
      0.0312784         7563.44         7608.69 
      0.0375637         6500.91         6576.53 
      0.0433917         5803.61         5818.39 
      0.0492413         5218.12         5266.68 
      0.0555754          4826.6          4840.9 
      0.0619321         4377.74         4495.81 
       0.067871         4115.38         4174.34 
      0.0738098         3789.14         3821.05 
      0.0800417         3411.29         3423.67 
      0.0862327         3018.71         3037.09 
      0.0921407         2707.16         2711.87 
      0.0982031          2468.5         2445.03 
       0.104506         2234.98         2242.25 
       0.110769         2099.53         2100.34 
       0.116806         2022.08         1995.35 
       0.122832         1900.57         1897.74 
       0.129052         1797.04         1787.29 
       0.135211         1702.47         1662.93 
       0.141259         1560.15         1532.22 
       0.147318         1422.95          1404.4 
       0.153489         1326.63         1289.09 
       0.159709         1258.42         1195.06 
       0.165845         1158.59         1124.57 
       0.171974         1135.34         1071.35 
       0.178125         1094.16         1027.41 
       0.184229         1023.35         985.539 
        0.19034         996.275         940.183 
       0.196428         955.312         890.055 
       0.202534         885.732         836.688 
       0.208729         859.222         783.262 
       0.214876         818.452         734.882 
       0.220989         764.494         693.816 
       0.227147         747.082         660.021 
        0.23329          720.17         632.542 
       0.239377         707.467         609.113 
       0.245482         672.948         586.913 
       0.251667         646.092         563.857 
       0.257832         636.918          539.57 
       0.263955          600.61         514.526 
       0.270079         577.993         489.638 
        0.27624         552.224         466.058 
       0.282372         538.661         444.941 
        0.28843         533.784         426.734 
       0.294538         507.317         410.765 
       0.300721         491.139         396.369 
        0.30691         483.229         382.889 
       0.313033         462.448          369.79 
       0.319153         454.364         356.559 
       0.325316         443.659         343.098 
        0.33145         432.459         329.826 
       0.337538         416.812          317.16 
       0.343633         403.966         305.297 
       0.349808         393.222         294.315 
       0.355968         385.143         284.346 
       0.362074         374.146         275.289 
       0.368217         369.897         266.736 
       0.374374         361.899         258.477 
       0.380519         347.317         250.397 
       0.386598         342.315         242.485 
       0.392688         334.062         234.701 
        0.39888         325.831         227.026 
       0.405048         319.651         219.721 
       0.411186         317.077         212.878 
       0.417313         311.224         206.477 
       0.423458         302.657         200.448 
       0.429607         295.366         194.744 
       0.435692         290.242         189.338 
       0.441815         284.902          184.06 
       0.447964         277.406         178.896 
       0.454126         273.401         173.853 
       0.460267         269.795         168.967 
       0.466387         264.503         164.267 
        0.47254         261.102         159.745 
       0.478662         253.726         155.454 
       0.484765         250.685         151.371 
       0.490885         247.293         147.458 
       0.497035         243.889         143.685 
       0.503198         241.285         140.038 
       0.509342         234.919         136.509 
       0.515458          232.01         133.094 
       0.521598         226.906         129.769 
       0.527764         224.415         126.536 
       0.533884         223.658         123.436 
           0.54         218.633         120.448 
       0.546137         213.795         117.561 
       0.552299         212.216          114.77 
       0.558452          208.57         112.086 
       0.564573         207.202         109.504 
       0.570708         202.652         106.994 
       0.576825         199.849         104.564 
       0.582926          197.76         102.212 
       0.589034         195.001         99.9265 
       0.595184         193.485         97.6963 
       0.601379         189.556         95.5206 
       0.607522         186.182         93.4305 
       0.613639         184.874         91.4138 
       0.619772         182.977         89.4541 
       0.625918         181.374         87.5506 
       0.632068         177.425         85.7032 
       0.638161         175.716         83.9265 
         0.6443          174.75         82.1874 
       0.650464         171.441         80.4904 
       0.656582         170.517         78.8524 
       0.662703         168.841         77.2587 
       0.668861         165.501            75.7 
       0.675024          165.47         74.1836 
       0.681124         162.928          72.725 
       0.687237         160.801          71.304 
       0.693381         159.492         69.9155 
       0.699536         157.619         68.5623 
       0.705665         155.768         67.2512 
       0.711789         153.912         65.9759 
       0.717957         152.312         64.7248 
        0.72409         151.011          63.513 
       0.730186         150.824         62.3394 
       0.736317         148.279         61.1891 
       0.742472         146.281         60.0636 
       0.748622         144.121         58.9677 
        0.75476         144.554         57.9017 
       0.760888         143.046         56.8641 
       0.767043         140.594          55.848 
       0.773185         139.187         54.8592 
       0.779291         137.573         53.9002 
       0.785407         136.538         52.9629 
       0.791564         135.714         52.0422 
       0.797719         133.877         51.1441 
       0.803834         133.699         50.2729 
       0.809972         132.682         49.4191 
       0.816124         130.786         48.5834 
       0.822261          129.57         47.7693 
       0.828378          129.35         46.9765 
       0.834502         127.341         46.2012 
       0.840667         126.821         45.4385 
       0.846816         125.586         44.6953 
       0.852925         124.302         43.9735 
       0.859047         123.443         43.2662 
       0.865192         122.424         42.5723 
       0.871341         121.104         41.8933 
       0.877463         120.236         41.2323 
       0.883569         120.106         40.5873 
       0.889708         119.016         39.9529 
       0.895864         117.911         39.3305 
       0.902008          116.79         38.7228 
       0.908149         115.335         38.1284 
       0.914301         115.378         37.5455 
       0.920448          114.83         36.9755 
       0.926574         112.733         36.4193 
       0.932687         112.674         35.8759 
       0.938823          111.77         35.3416 
       0.944975          110.57          34.817 
       0.951105         109.706         34.3051 
       0.957225         109.576         33.8043 
       0.963368         108.302         33.3119 
       0.969511         107.521         32.8293 
       0.975621         106.565          32.359 
       0.981748         105.758         31.8966 
       0.987916         105.172         31.4405 
        0.99406         104.742          30.995 
        1.00019         103.553          30.559 
        1.00632          102.94         30.1319 
        1.01246         102.301         29.7124 
        1.01859         101.803         29.3015 
        1.02471         100.963          28.899 
        1.03085         100.058         28.5027 
        1.03698         99.4588         28.1147 
        1.04314         98.7934         27.7323 
        1.04929         98.4355          27.358 
        1.05541         97.7072         26.9921 
        1.06154         97.1067          26.632 
        1.06769         96.3013          26.278 
        1.07382         95.5144         25.9316 
        1.07993         95.2062         25.5923 
        1.08607         94.4386         25.2577 
        1.09222         94.1562         24.9287 
        1.09836         93.1764         24.6061 
        1.10449          92.709         24.2895 
        1.11063         92.0813         23.9782 
        1.11677         91.5307         23.6725 
         1.1229         90.8136         23.3727 
        1.12903         90.5194         23.0778 
        1.13518          90.072         22.7878 
        1.14131         89.3924          22.503 
        1.14745         88.8451         22.2232 
        1.15359         87.8253         21.9482 
        1.15973          87.728         21.6777 
        1.16584          87.161          21.413 
        1.17197         86.6013         21.1523 
        1.17811         85.9924         20.8952 
        1.18424         85.2985         20.6432 
        1.19038         85.2435         20.3945 
        1.19652         84.6587         20.1501 
        1.20267         84.0354         19.9097 
        1.20881         83.5574         19.6733 
        1.21495         83.1191          19.441 
        1.22108         82.7893         19.2126 
         1.2272          81.965         18.9884 
        1.23334         81.7764         18.7673 
        1.23949         81.2466         18.5492 
        1.24562         80.6112         18.3351 
        1.25174         80.1815         18.1248 
        1.25789         80.1149         17.9172 
        1.26402         79.4402         17.7132 
        1.27014         79.0937         17.5128 
        1.27628         78.3991          17.315 
        1.28244         78.2525         17.1199 
        1.28858         77.7016          16.928 
        1.29471         77.2829         16.7395 
        1.30084         76.6075         16.5541 
        1.30697         76.6627         16.3712 
        1.31312         76.0245         16.1908 
        1.31925         75.5179         16.0137 
        1.32537         75.1542         15.8395 
        1.33151         74.9396         15.6672 
        1.33765         74.3828         15.4976 
        1.34378         74.0779         15.3309 
        1.34992         73.7415         15.1665 
        1.35606         73.2146         15.0041 
         1.3622         72.9785         14.8445 
        1.36833         72.4028         14.6875 
        1.37445          71.865         14.5329 
        1.38059         71.7622         14.3801 
        1.38675         71.0254         14.2291 
        1.39288         71.0356         14.0808 
        1.39901         70.3527         13.9348 
        1.40515         70.1706         13.7905 
         1.4113         69.9041         13.6483 
        1.41742         69.4529         13.5086 
        1.42355         69.1219         13.3707 
         1.4297         68.7444         13.2342 
        1.43585         68.2934         13.0998 
        1.44198          67.966         12.9677 
        1.44809         67.5419         12.8377 
        1.45423         67.2806          12.709 
        1.46036         66.8521         12.5823 
        1.46649         66.6549         12.4572 
        1.47263          66.298         12.3338 
        1.47877         66.0353         12.2121 
        1.48491         65.6627         12.0919 
        1.49104         65.1321         11.9735 
        1.49718         64.9495         11.8567 
        1.50333         64.6178         11.7412 
        1.50947         64.3638         11.6275 
         1.5156         64.1045         11.5154 
        1.52172         63.6345         11.4049 
        1.52787         63.2497         11.2955 
          1.534         63.0295         11.1878 
        1.54013         62.8652         11.0816 
        1.54627         62.2715         10.9765 
        1.55241         62.0016         10.8728 
        1.55855         61.8154         10.7706 
        1.56467         61.2884           10.67 
         1.5708         61.2225         10.5704 
        1.57695         60.8581         10.4719 
        1.58308         60.5195         10.3749 
        1.58922          60.251         10.2791 
        1.59535         60.0821         10.1845 
         1.6015         59.9923          10.091 
        1.60764         59.5494         9.99864 
        1.61376         59.1861         9.90775 
        1.61989         58.7451         9.81791 
        1.62604         58.5834         9.72898 
        1.63218         58.3097         9.64121 
        1.63831         58.1254         9.55473 
        1.64444         57.8613         9.46928 
        1.65059         57.5494         9.38468 
        1.65673         57.1518          9.3012 
        1.66285         57.0004         9.21897 
        1.66898         56.5182         9.13771 
        1.67512         56.3967         9.05727 
        1.68127         56.1629         8.97773 
         1.6874         55.8247         8.89932 
        1.69353         55.6356          8.8219 
        1.69967          55.411         8.74522 
        1.70581         55.0706         8.66948 
        1.71193         54.8325         8.59492 
        1.71806         54.5544         8.52109 
        1.72421         54.3701         8.44797 
        1.73035         54.1137          8.3758 
        1.73649          53.757         8.30448 
        1.74262         53.3944         8.23406 
        1.74876          53.366          8.1644 
        1.75489         52.9757          8.0957 
        1.76101         52.7653          8.0278 
        1.76715         52.7311          7.9606 
        1.77329         52.1742         7.89408 
        1.77943         52.1898         7.82829 
        1.78557         51.9286         7.76335 
        1.79171         51.6373         7.69914 
        1.79785         51.4066         7.63564 
        1.80399         51.1209         7.57287 
        1.81012         50.9437         7.51089 
        1.81625         50.6222         7.44964 
        1.82239         50.4173         7.38897 
        1.82853         50.2253         7.32901 
        1.83466         49.9857         7.26978 
        1.84078         49.7384         7.21126 
        1.84692         49.5093         7.15329 
        1.85306         49.2645         7.09588 
         1.8592         49.1187          7.0392 
        1.86533         48.8471         6.98317 
        1.87147         48.6135         6.92768 
        1.87761          48.367         6.87278 
        1.88375          48.196         6.81853 
        1.88988         48.0192         6.76493 
        1.89601         47.7406         6.71187 
        1.90215         47.5005         6.65934 
        1.90829         47.3339          6.6074 
        1.91442         47.0548         6.55601 
        1.92056         46.8977         6.50522 
         1.9267          46.752         6.45491 
        1.93284         46.4882          6.4051 
        1.93897         46.3418         6.35591 
        1.94509         45.9673         6.30735 
        1.95123         45.8268         6.25917 
        1.95737         45.5741         6.21145 
        1.96349         45.4816         6.16436 
        1.96964         45.1951         6.11762 
        1.97578         45.0193         6.07135 
        1.98192         44.7929         6.02565 
        1.98805         44.5897         5.98041 
        1.99419         44.4353         5.93563 
        2.00033         44.2701         5.89129 
        2.00647         44.1038         5.84742 
         2.0126         43.8238         5.80407 
        2.01874         43.6479         5.76109 
        2.02488          43.409         5.71851 
        2.03101          43.285         5.67644 
        2.03714         43.0693         5.63483 
        2.04328         42.9112         5.59359 
        2.04941         42.6653          5.5528 
        2.05554         42.5537         5.51244 
        2.06167         42.3756         5.47243 
        2.06781         42.0921         5.43281 
        2.07396         41.9376         5.39353 
        2.08009         41.7948         5.35471 
        2.08622         41.6056         5.31631 
        2.09237         41.3947         5.27821 
        2.09851         41.2276         5.24048 
        2.10464         41.0462         5.20318 
        2.11077         40.8958         5.16629 
        2.11691         40.6102         5.12967 
        2.12305         40.4347         5.09341 
        2.12918         40.3301         5.05759 
        2.13531         40.1711          5.0221 
        2.14145         39.9757         4.98688 
         2.1476            39.8         4.95195 
        2.15372         39.7065         4.91753 
        2.15985         39.4161          4.8834 
        2.16599         39.2542          4.8495 
        2.17213         39.1063         4.81596 
        2.17827         38.9238         4.78274 
         2.1844         38.7368         4.74987 
        2.19054         38.5853         4.71729 
        2.19666         38.3795         4.68507 
         2.2028         38.2181         4.65312 
        2.20893         38.0927         4.62145 
        2.21508         37.9429         4.59004 
        2.22122         37.7505         4.55891 
        2.22736         37.5123         4.52814 
        2.23349         37.4302         4.49765 
        2.23962          37.256         4.46743 
        2.24577         37.1129         4.43746 
         2.2519         36.9025         4.40781 
        2.25802         36.7964         4.37848 
        2.26417         36.6052         4.34933 
        2.27031         36.4758         4.32042 
        2.27644         36.3976         4.29186 
        2.28257         36.0683         4.26356 
        2.28872         36.0832         4.23545 
        2.29486         35.8672         4.20761 
        2.30099         35.6545         4.18008 
        2.30712         35.5777         4.15277 
        2.31326         35.3722         4.12567 
         2.3194         35.1953         4.09882 
        2.32553         35.1013         4.07226 
        2.33166         34.9333         4.04594 
         2.3378         34.7857         4.01982 
        2.34394          34.636         3.99393 
        2.35007         34.5233         3.96829 
        2.35619         34.4023         3.94292 
        2.36233         34.1646          3.9177 
        2.36848         34.0754         3.89266 
        2.37462         33.9428         3.86788 
        2.38075         33.7733         3.84335 
        2.38689         33.6554         3.81901 
        2.39303          33.562         3.79488 
        2.39916         33.2881         3.77099 
        2.40529         33.1683          3.7473 
        2.41143         33.0677          3.7238 
        2.41757         32.9729         3.70049 
         2.4237         32.8102         3.67742 
        2.42983         32.6564         3.65455 
        2.43598          32.525         3.63182 
        2.44211         32.4045         3.60932 
        2.44823         32.2061         3.58705 
        2.45437         32.1729         3.56492 
        2.46052         31.9589         3.54295 
        2.46665         31.8259         3.52121 
        2.47279          31.634         3.49965 
        2.47892         31.5745         3.47826 
        2.48507         31.4591         3.45703 
         2.4912         31.3342         3.43602 
