# k  (h/Mpc)    P(k)  (Mpc/h)^3    P_linear(k)  (Mpc/h)^3
     0.00783031         10050.2         10125.4 
       0.013688           12235         12530.2 
       0.019231         12571.1         12743.7 
      0.0249154         11866.2         11856.2 
      0.0312784         10284.2         10374.8 
      0.0375637         8829.54         8966.11 
      0.0433917         7890.71         7931.74 
      0.0492413         7088.03         7179.13 
      0.0555754         6556.89         6598.37 
      0.0619321         5926.95         6127.73 
       0.067871         5577.87          5689.4 
      0.0738098         5144.48         5207.75 
      0.0800417         4631.93         4666.05 
      0.0862327         4100.79         4139.12 
      0.0921407         3684.78         3695.84 
      0.0982031          3366.8         3332.14 
       0.104506         3045.89         3055.75 
       0.110769         2862.58         2862.33 
       0.116806         2759.18         2719.23 
       0.122832         2593.18          2586.2 
       0.129052         2448.38         2435.66 
       0.135211         2330.19         2266.18 
       0.141259         2134.89         2088.04 
       0.147318         1950.99         1913.85 
       0.153489          1824.1          1756.7 
       0.159709         1739.52         1628.56 
       0.165845         1599.83          1532.5 
       0.171974         1569.36         1459.96 
       0.178125         1517.09         1400.08 
       0.184229         1411.42         1343.02 
        0.19034         1379.23         1281.21 
       0.196428          1327.5          1212.9 
       0.202534         1233.49         1140.17 
       0.208729         1201.36         1067.36 
       0.214876         1144.53         1001.43 
       0.220989         1075.23         945.473 
       0.227147         1050.26         899.419 
        0.23329         1012.09          861.97 
       0.239377         1000.05         830.045 
       0.245482         951.284         799.792 
       0.251667         914.766         768.371 
       0.257832         901.835         735.274 
       0.263955         853.665         701.148 
       0.270079         824.486         667.232 
        0.27624          788.92         635.098 
       0.282372         773.521         606.318 
        0.28843         765.448         581.509 
       0.294538         727.293         559.749 
       0.300721         708.154         540.132 
        0.30691         695.467         521.762 
       0.313033         665.845          503.91 
       0.319153         655.761         485.882 
       0.325316         644.515         467.538 
        0.33145         629.763         449.452 
       0.337538         606.978         432.193 
       0.343633         589.959         416.025 
       0.349808         575.903         401.061 
       0.355968         565.127         387.475 
       0.362074         546.816         375.135 
       0.368217         543.613         363.479 
       0.374374         533.808         352.224 
       0.380519         512.882         341.215 
       0.386598         507.449         330.431 
       0.392688         496.081         319.826 
        0.39888         483.008         309.366 
       0.405048         474.407         299.412 
       0.411186         472.529         290.086 
       0.417313         466.648         281.364 
       0.423458          452.93         273.148 
       0.429607         440.886         265.376 
       0.435692         434.411          258.01 
       0.441815         427.223         250.817 
       0.447964          418.15          243.78 
       0.454126           413.2         236.908 
       0.460267         406.583         230.249 
       0.466387         399.582         223.845 
        0.47254         393.861         217.682 
       0.478662         385.178         211.835 
       0.484765         380.825         206.271 
       0.490885         376.868         200.939 
       0.497035         369.729         195.797 
       0.503198         368.783         190.827 
       0.509342         359.799         186.018 
       0.515458          354.17         181.365 
       0.521598         348.432         176.834 
       0.527764         343.537         172.429 
       0.533884         342.024         168.205 
           0.54         336.728         164.133 
       0.546137         329.599         160.198 
       0.552299         328.608         156.396 
       0.558452         323.283         152.738 
       0.564573         320.425         149.219 
       0.570708         315.613         145.799 
       0.576825         310.158         142.488 
       0.582926         307.838         139.282 
       0.589034         303.354         136.168 
       0.595184         301.401         133.129 
       0.601379         296.402         130.164 
       0.607522         290.759         127.316 
       0.613639         289.444         124.568 
       0.619772         288.051         121.898 
       0.625918         283.636         119.304 
       0.632068          279.69         116.786 
       0.638161         277.577         114.365 
         0.6443         275.013         111.995 
       0.650464         270.763         109.683 
       0.656582         268.481         107.451 
       0.662703         266.717         105.279 
       0.668861         261.984         103.155 
       0.675024         261.019         101.089 
       0.681124         257.863         99.1011 
       0.687237         255.683         97.1647 
       0.693381         252.574         95.2726 
       0.699536         250.532         93.4286 
       0.705665         248.008         91.6421 
       0.711789         245.759         89.9042 
       0.717957         243.168         88.1994 
        0.72409         240.433          86.548 
       0.730186          241.75         84.9488 
       0.736317         237.505         83.3812 
       0.742472         234.636         81.8476 
       0.748622         231.673         80.3542 
        0.75476         232.214         78.9017 
       0.760888         229.215         77.4876 
       0.767043         226.266         76.1031 
       0.773185         224.962         74.7556 
       0.779291         221.759         73.4488 
       0.785407         221.037         72.1716 
       0.791564         218.936          70.917 
       0.797719         215.534         69.6931 
       0.803834         216.952          68.506 
       0.809972         214.418         67.3425 
       0.816124         211.285         66.2037 
       0.822261         209.733         65.0944 
       0.828378         209.514         64.0141 
       0.834502         206.509         62.9575 
       0.840667         206.337         61.9182 
       0.846816         202.973         60.9054 
       0.852925          202.29         59.9218 
       0.859047         200.342         58.9581 
       0.865192         199.951         58.0125 
       0.871341         197.328         57.0872 
       0.877463         195.732         56.1865 
       0.883569         195.574         55.3076 
       0.889708         193.705         54.4431 
       0.895864         192.028          53.595 
       0.902008          190.18         52.7669 
       0.908149         188.525         51.9568 
       0.914301         187.812         51.1626 
       0.920448         187.267         50.3858 
       0.926574         184.869         49.6279 
       0.932687         184.338         48.8874 
       0.938823         182.883         48.1593 
       0.944975         181.683         47.4445 
       0.951105         179.994         46.7469 
       0.957225         179.088         46.0645 
       0.963368         178.002         45.3935 
       0.969511         175.797         44.7359 
       0.975621         174.528         44.0949 
       0.981748         173.625         43.4649 
       0.987916         172.951         42.8433 
        0.99406         171.668         42.2363 
        1.00019         170.576         41.6422 
        1.00632         169.642         41.0602 
        1.01246          168.45         40.4885 
        1.01859         167.097         39.9287 
        1.02471         165.863         39.3801 
        1.03085         164.803         38.8401 
        1.03698         163.682         38.3114 
        1.04314         163.391         37.7903 
        1.04929         162.459         37.2802 
        1.05541         161.297         36.7816 
        1.06154         159.947         36.2909 
        1.06769         158.971         35.8085 
        1.07382         158.363         35.3365 
        1.07993         156.939         34.8741 
        1.08607         156.099         34.4181 
        1.09222         155.142         33.9699 
        1.09836         154.264         33.5302 
        1.10449         153.018         33.0989 
        1.11063         152.127         32.6747 
        1.11677         151.481         32.2581 
         1.1229         150.265         31.8495 
        1.12903         149.579         31.4477 
        1.13518         148.551         31.0525 
        1.14131         147.781         30.6644 
        1.14745         146.805         30.2832 
        1.15359         145.421         29.9083 
        1.15973         145.113         29.5397 
        1.16584         144.348          29.179 
        1.17197         143.577         28.8238 
        1.17811         142.248         28.4735 
        1.18424         141.674           28.13 
        1.19038         140.838         27.7912 
        1.19652         139.963         27.4581 
        1.20267         139.094         27.1305 
        1.20881         138.168         26.8083 
        1.21495         137.834         26.4919 
        1.22108         136.844         26.1807 
         1.2272         135.864         25.8751 
        1.23334         135.464         25.5738 
        1.23949         134.916         25.2766 
        1.24562         133.864         24.9849 
        1.25174         133.056         24.6983 
        1.25789          132.21         24.4154 
        1.26402         131.971         24.1374 
        1.27014         131.007         23.8644 
        1.27628         129.743         23.5948 
        1.28244         129.591         23.3289 
        1.28858          128.51         23.0674 
        1.29471          127.85         22.8106 
        1.30084         127.066         22.5579 
        1.30697         126.505         22.3087 
        1.31312         125.698         22.0629 
        1.31925          124.78         21.8216 
        1.32537         124.426         21.5842 
        1.33151         124.012         21.3494 
        1.33765         122.779         21.1183 
        1.34378         122.669         20.8911 
        1.34992         122.123         20.6671 
        1.35606         121.225         20.4458 
         1.3622         121.037         20.2283 
        1.36833         119.616         20.0144 
        1.37445         119.504         19.8037 
        1.38059         118.825         19.5954 
        1.38675         117.997         19.3897 
        1.39288          117.28         19.1877 
        1.39901         116.624         18.9887 
        1.40515         116.284          18.792 
         1.4113         115.605         18.5982 
        1.41742         114.869         18.4079 
        1.42355         114.598           18.22 
         1.4297         113.671          18.034 
        1.43585         113.068         17.8508 
        1.44198         112.246         17.6708 
        1.44809         111.624         17.4936 
        1.45423         111.478         17.3182 
        1.46036         110.524         17.1456 
        1.46649         109.938         16.9752 
        1.47263         109.597          16.807 
        1.47877          108.77         16.6412 
        1.48491         108.386         16.4774 
        1.49104         107.231         16.3161 
        1.49718         107.181         16.1568 
        1.50333          106.75         15.9994 
        1.50947         106.162         15.8445 
         1.5156          105.67         15.6918 
        1.52172         104.919         15.5412 
        1.52787         104.479         15.3922 
          1.534         103.922         15.2454 
        1.54013         103.495         15.1006 
        1.54627         102.685         14.9575 
        1.55241         102.438         14.8162 
        1.55855         101.715         14.6769 
        1.56467         101.008         14.5398 
         1.5708          100.49         14.4041 
        1.57695          100.24         14.2699 
        1.58308         99.6218         14.1377 
        1.58922         99.5992         14.0071 
        1.59535         99.0881         13.8782 
         1.6015         98.2106         13.7507 
        1.60764         97.6521         13.6249 
        1.61376         97.2503         13.5011 
        1.61989         96.7286         13.3787 
        1.62604         96.2487         13.2575 
        1.63218         95.9367         13.1379 
        1.63831         95.2923           13.02 
        1.64444         94.7846         12.9036 
        1.65059         94.2771         12.7883 
        1.65673         93.9339         12.6746 
        1.66285          93.374         12.5625 
        1.66898         92.8162         12.4518 
        1.67512         92.3596         12.3422 
        1.68127         92.0302         12.2338 
         1.6874         91.3773         12.1269 
        1.69353         90.8996         12.0214 
        1.69967         90.5893         11.9169 
        1.70581         90.2398         11.8137 
        1.71193         89.6464         11.7121 
        1.71806         89.1984         11.6115 
        1.72421          88.733         11.5119 
        1.73035          88.456         11.4135 
        1.73649         87.8561         11.3163 
        1.74262         87.3865         11.2204 
        1.74876         86.9331         11.1255 
        1.75489         86.5014         11.0318 
        1.76101          86.035         10.9393 
        1.76715         85.6592         10.8477 
        1.77329         85.2541         10.7571 
        1.77943         84.9151         10.6674 
        1.78557         84.5352          10.579 
        1.79171         84.0663         10.4915 
        1.79785         83.4561         10.4049 
        1.80399         83.3276         10.3194 
        1.81012          82.714         10.2349 
        1.81625         82.3388         10.1515 
        1.82239         82.0361         10.0688 
        1.82853           81.46         9.98709 
        1.83466         81.0164         9.90637 
        1.84078         80.8172         9.82663 
        1.84692         80.6091         9.74763 
        1.85306         80.0519         9.66941 
         1.8592         79.7213         9.59217 
        1.86533         79.3077         9.51582 
        1.87147         78.8477         9.44021 
        1.87761         78.2821         9.36539 
        1.88375         78.0187         9.29147 
        1.88988         77.4634         9.21842 
        1.89601          77.359         9.14613 
        1.90215         76.7663         9.07455 
        1.90829         76.4188         9.00377 
        1.91442          76.115         8.93374 
        1.92056         75.9196         8.86452 
         1.9267         75.3622         8.79596 
        1.93284         75.0934         8.72809 
        1.93897         74.7575         8.66107 
        1.94509         74.3152         8.59489 
        1.95123         74.0042         8.52923 
        1.95737         73.6333         8.46422 
        1.96349         73.3306         8.40005 
        1.96964         72.9556         8.33636 
        1.97578         72.5085          8.2733 
        1.98192         72.1076         8.21102 
        1.98805         71.6468         8.14937 
        1.99419         71.5166         8.08836 
        2.00033         70.9981         8.02794 
        2.00647         70.7533         7.96815 
         2.0126         70.4266         7.90908 
        2.01874         70.2945         7.85051 
        2.02488         69.8755         7.79249 
        2.03101         69.4526         7.73516 
        2.03714         69.2306         7.67846 
        2.04328         68.8529         7.62226 
        2.04941          68.302         7.56668 
        2.05554         68.1714         7.51169 
        2.06167         67.8214         7.45717 
        2.06781          67.443         7.40318 
        2.07396         67.1781         7.34965 
        2.08009         66.8078         7.29674 
        2.08622         66.5225         7.24442 
        2.09237         66.2372         7.19251 
        2.09851         65.6968         7.14109 
        2.10464         65.5895         7.09026 
        2.11077         65.3135         7.03999 
        2.11691         64.9792          6.9901 
        2.12305          64.575         6.94068 
        2.12918         64.2744         6.89186 
        2.13531         64.0051         6.84351 
        2.14145         63.6215         6.79551 
         2.1476         63.5062         6.74791 
        2.15372         63.1049         6.70101 
        2.15985         62.7347         6.65451 
        2.16599         62.4519         6.60831 
        2.17213         62.1343         6.56261 
        2.17827         61.8185         6.51734 
         2.1844          61.528         6.47255 
        2.19054         61.3553         6.42816 
        2.19666         61.0757         6.38425 
         2.2028         60.6647         6.34071 
        2.20893         60.3797         6.29755 
        2.21508         59.9999         6.25475 
        2.22122         59.7691         6.21233 
        2.22736         59.4937         6.17039 
        2.23349         59.2501         6.12885 
        2.23962         59.0436         6.08767 
        2.24577         58.6315         6.04684 
         2.2519         58.4147         6.00643 
        2.25802         58.1369         5.96646 
        2.26417         57.8167         5.92674 
        2.27031         57.5894         5.88735 
        2.27644         57.4065         5.84842 
        2.28257         57.0068         5.80986 
        2.28872          56.852         5.77156 
        2.29486         56.5802         5.73362 
        2.30099         56.1554          5.6961 
        2.30712         56.0521          5.6589 
        2.31326         55.7991         5.62196 
         2.3194         55.4594         5.58538 
        2.32553         55.2672         5.54918 
        2.33166         54.9366         5.51332 
         2.3378         54.6601         5.47773 
        2.34394         54.4239         5.44244 
        2.35007         54.1856         5.40751 
        2.35619         53.9205         5.37293 
        2.36233          53.658         5.33857 
        2.36848          53.438         5.30444 
        2.37462         53.0946         5.27068 
        2.38075         52.9322         5.23725 
        2.38689         52.6647         5.20408 
        2.39303         52.4334          5.1712 
        2.39916         52.2082         5.13864 
        2.40529         51.9819         5.10636 
        2.41143         51.7483         5.07434 
        2.41757         51.5084         5.04258 
         2.4237         51.3551         5.01114 
        2.42983         50.9909         4.97998 
        2.43598         50.8272           4.949 
        2.44211         50.4795         4.91834 
        2.44823         50.2877           4.888 
        2.45437         50.0608         4.85784 
        2.46052         49.7522          4.8279 
        2.46665         49.5468         4.79827 
        2.47279         49.3482          4.7689 
        2.47892         49.1335         4.73975 
        2.48507         48.9649         4.71082 
         2.4912         48.6236         4.68219 
