#  k  (h/Mpc)          P(k)  (Mpc/h)^3     P_linear(k) (Mpc/h)^3
     0.00783031         2140.57          2163.7 
       0.013688         2551.58         2551.97 
       0.019231         2468.48         2466.37 
      0.0249154         2148.51         2162.28 
      0.0312784         1756.86         1757.06 
      0.0375637         1416.86         1410.34 
      0.0433917         1176.78         1177.15 
      0.0492413          1028.2         1025.22 
      0.0555754         923.018          927.69 
      0.0619321         871.361         865.825 
       0.067871         809.814         813.381 
      0.0738098         746.439         750.055 
      0.0800417         663.246         668.297 
      0.0862327         578.507         579.335 
      0.0921407         500.904         498.917 
      0.0982031         431.337         430.703 
       0.104506          385.26         379.848 
       0.110769         352.938         348.414 
       0.116806         333.068         331.177 
       0.122832         323.165         320.249 
       0.129052         308.988         308.966 
       0.135211         293.224          293.25 
       0.141259         274.172         272.175 
       0.147318         250.682         247.218 
       0.153489         224.238         221.321 
       0.159709         202.247         198.245 
       0.165845         186.427         180.588 
       0.171974         172.621         168.456 
       0.178125         165.327         160.838 
       0.184229         160.366         155.993 
        0.19034         153.774         151.827 
       0.196428         149.974         146.715 
       0.202534         144.339         139.787 
       0.208729         134.878         131.032 
       0.214876         124.938         121.487 
       0.220989         117.111         112.272 
       0.227147          108.37          104.22 
        0.23329         102.212         97.9085 
       0.239377         98.1963         93.3442 
       0.245482         93.4688         90.0641 
       0.251667         91.8357         87.4447 
       0.257832         89.0482         84.9003 
       0.263955         85.9924         81.9921 
       0.270079         82.4533         78.5246 
        0.27624         79.4065         74.5812 
       0.282372         75.5134         70.5042 
        0.28843         71.3708         66.6572 
       0.294538         67.9087         63.2353 
       0.300721          65.739         60.3604 
        0.30691         62.7768         58.0574 
       0.313033         60.8891         56.1947 
       0.319153         58.3381         54.5517 
       0.325316         57.5264         52.9188 
        0.33145         55.4043         51.1926 
       0.337538         53.7914         49.3309 
       0.343633         51.6122         47.3678 
       0.349808         49.8381         45.3631 
       0.355968         48.0953         43.4597 
       0.362074         46.3025         41.7444 
       0.368217         44.7729         40.2278 
       0.374374         43.3184         38.9086 
       0.380519         42.2535         37.7398 
       0.386598         41.1413         36.6711 
       0.392688         40.2543         35.6258 
        0.39888         39.0154         34.5477 
       0.405048         37.9837         33.4506 
       0.411186         36.9415         32.3424 
       0.417313         35.6634         31.2507 
       0.423458          34.641         30.2033 
       0.429607         33.6304         29.2226 
       0.435692         32.5424          28.332 
       0.441815         31.8952         27.5133 
       0.447964         31.3063         26.7507 
       0.454126         30.0871         26.0274 
       0.460267         29.5576         25.3307 
       0.466387         28.6587         24.6451 
        0.47254         28.1509         23.9583 
       0.478662         27.6198         23.2832 
       0.484765         26.7188         22.6261 
       0.490885         26.0777         21.9899 
       0.497035         25.7144         21.3802 
       0.503198         24.9827         20.8047 
       0.509342         24.3311         20.2652 
       0.515458          23.791         19.7553 
       0.521598         23.3461         19.2643 
       0.527764         22.8129         18.7877 
       0.533884         22.4264         18.3272 
           0.54         21.8902         17.8765 
       0.546137         21.5139         17.4328 
       0.552299         21.1205         16.9983 
       0.558452         20.4615         16.5789 
       0.564573         20.1393         16.1783 
       0.570708         19.7694         15.7932 
       0.576825         19.2734         15.4246 
       0.582926         18.8903          15.071 
       0.589034         18.3949         14.7297 
       0.595184         18.1413         14.3974 
       0.601379         17.7524         14.0726 
       0.607522         17.4471         13.7589 
       0.613639          17.233         13.4539 
       0.619772         16.7673         13.1559 
       0.625918         16.6486         12.8657 
       0.632068         16.3728         12.5847 
       0.638161         15.9851         12.3158 
         0.6443         15.6591          12.054 
       0.650464         15.3536         11.7998 
       0.656582         15.2449         11.5551 
       0.662703         14.9492         11.3171 
       0.668861         14.6527         11.0842 
       0.675024          14.375         10.8573 
       0.681124          14.124         10.6388 
       0.687237         13.8899         10.4257 
       0.693381         13.7334         10.2176 
       0.699536         13.3596         10.0149 
       0.705665          13.266         9.81872 
       0.711789         12.9916          9.6281 
       0.717957         12.7875         9.44132 
        0.72409         12.5843          9.2606 
       0.730186         12.4083         9.08573 
       0.736317         12.2612         8.91444 
       0.742472         12.0546         8.74696 
       0.748622         11.8925         8.58395 
        0.75476         11.6626         8.42548 
       0.760888         11.4899         8.27129 
       0.767043         11.3418         8.12038 
       0.773185         11.1253          7.9736 
       0.779291         11.0501         7.83132 
       0.785407         10.8962         7.69235 
       0.791564         10.7103          7.5559 
       0.797719         10.4761         7.42286 
       0.803834         10.4432         7.29388 
       0.809972         10.3326         7.16751 
       0.816124         10.1041         7.04387 
       0.822261         9.96131         6.92348 
       0.828378         9.84608         6.80627 
       0.834502         9.76323         6.69169 
       0.840667         9.59468         6.57901 
       0.846816         9.41842         6.46927 
       0.852925         9.32901         6.36273 
       0.859047         9.21517         6.25839 
       0.865192         9.13025         6.15606 
       0.871341          9.0354         6.05598 
       0.877463         8.87865         5.95859 
       0.883569         8.74935         5.86361 
       0.889708         8.60455         5.77023 
       0.895864         8.51878         5.67866 
       0.902008         8.44765         5.58928 
       0.908149         8.35424         5.50189 
       0.914301         8.25861         5.41623 
       0.920448         8.12155         5.33249 
       0.926574         8.02692         5.25083 
       0.932687         7.93581         5.17105 
       0.938823         7.83102         5.09265 
       0.944975         7.73472         5.01571 
       0.951105         7.65312         4.94064 
       0.957225         7.60587         4.86725 
       0.963368         7.51455          4.7951 
       0.969511          7.4268         4.72443 
       0.975621         7.33856         4.65556 
       0.981748          7.2486          4.5879 
       0.987916         7.19364         4.52117 
        0.99406         7.07564         4.45602 
        1.00019         6.97189         4.39229 
        1.00632         6.95033         4.32987 
        1.01246         6.86851         4.26857 
        1.01859          6.7607         4.20857 
        1.02471         6.71737          4.1498 
        1.03085         6.63915         4.09196 
        1.03698         6.54424         4.03535 
        1.04314         6.50019         3.97957 
        1.04929         6.41835         3.92498 
        1.05541         6.34183         3.87164 
        1.06154         6.29329         3.81916 
        1.06769         6.26206         3.76758 
        1.07382         6.15969         3.71712 
        1.07993         6.09805         3.66771 
        1.08607         6.05638         3.61899 
        1.09222         5.99353         3.57112 
        1.09836         5.92311         3.52417 
        1.10449         5.87156         3.47812 
        1.11063         5.80278         3.43285 
        1.11677         5.77032          3.3884 
         1.1229          5.7236         3.34482 
        1.12903          5.6463         3.30197 
        1.13518         5.58126         3.25984 
        1.14131         5.53407         3.21846 
        1.14745         5.47299         3.17784 
        1.15359         5.43853         3.13791 
        1.15973         5.37911         3.09865 
        1.16584          5.3098         3.06024 
        1.17197         5.26923         3.02243 
        1.17811          5.2451         2.98515 
        1.18424         5.18885         2.94861 
        1.19038         5.16399         2.91257 
        1.19652          5.0999         2.87716 
        1.20267         5.04762         2.84233 
        1.20881         5.02578         2.80809 
        1.21495         4.97666         2.77447 
        1.22108         4.91933         2.74141 
         1.2272         4.88541         2.70897 
        1.23334         4.82778         2.67698 
        1.23949          4.7834         2.64543 
        1.24562         4.75785         2.61448 
        1.25174         4.71234         2.58407 
        1.25789         4.67744         2.55406 
        1.26402         4.64608         2.52457 
        1.27014         4.60361         2.49563 
        1.27628         4.55533         2.46705 
        1.28244         4.50482         2.43887 
        1.28858         4.49805         2.41117 
        1.29471         4.43955         2.38396 
        1.30084         4.39707          2.3572 
        1.30697         4.39467          2.3308 
        1.31312         4.31848         2.30478 
        1.31925         4.28854         2.27923 
        1.32537         4.25669          2.2541 
        1.33151         4.24126         2.22925 
        1.33765         4.18907          2.2048 
        1.34378          4.1628         2.18076 
        1.34992         4.13588         2.15707 
        1.35606         4.08745         2.13368 
         1.3622         4.06924         2.11067 
        1.36833         4.03088         2.08806 
        1.37445         4.00219          2.0658 
        1.38059         3.98971         2.04379 
        1.38675         3.95464         2.02205 
        1.39288         3.92791         2.00072 
        1.39901         3.87819          1.9797 
        1.40515         3.85729         1.95894 
         1.4113         3.83009         1.93849 
        1.41742         3.80099          1.9184 
        1.42355         3.76681         1.89857 
         1.4297         3.74451         1.87895 
        1.43585         3.72496         1.85962 
        1.44198          3.7047         1.84064 
        1.44809         3.66797         1.82196 
        1.45423         3.63851         1.80347 
        1.46036         3.60601         1.78527 
        1.46649         3.58745         1.76731 
        1.47263         3.55545         1.74959 
        1.47877         3.53011         1.73212 
        1.48491         3.50815         1.71486 
        1.49104         3.48603         1.69788 
        1.49718         3.46216         1.68111 
        1.50333         3.44217         1.66454 
        1.50947         3.40949         1.64823 
         1.5156          3.3898         1.63216 
        1.52172         3.36882          1.6163 
        1.52787         3.34724         1.60063 
          1.534         3.31733         1.58518 
        1.54013         3.30218         1.56995 
        1.54627          3.2731          1.5549 
        1.55241         3.24976         1.54004 
        1.55855         3.23561         1.52539 
        1.56467         3.21321         1.51098 
         1.5708         3.19245         1.49672 
        1.57695         3.16593         1.48261 
        1.58308         3.13851         1.46872 
        1.58922         3.13213           1.455 
        1.59535         3.11246         1.44146 
         1.6015         3.08391         1.42807 
        1.60764         3.06439         1.41486 
        1.61376         3.04972         1.40186 
        1.61989         3.02846           1.389 
        1.62604          3.0074         1.37628 
        1.63218         3.00069         1.36373 
        1.63831         2.97127         1.35136 
        1.64444         2.95656         1.33914 
        1.65059         2.92743         1.32705 
        1.65673         2.92395         1.31511 
        1.66285         2.89504         1.30336 
        1.66898         2.87991         1.29175 
        1.67512         2.86029         1.28025 
        1.68127         2.84323         1.26889 
         1.6874         2.83386         1.25769 
        1.69353         2.80244         1.24663 
        1.69967         2.79434         1.23568 
        1.70581         2.78032         1.22486 
        1.71193         2.75873         1.21422 
        1.71806         2.74676         1.20367 
        1.72421         2.72825         1.19324 
        1.73035         2.71552         1.18294 
        1.73649         2.69728         1.17276 
        1.74262         2.67901         1.16271 
        1.74876         2.66986         1.15277 
        1.75489         2.65059         1.14297 
        1.76101         2.62965         1.13329 
        1.76715         2.62227          1.1237 
        1.77329         2.60856         1.11421 
        1.77943         2.58233         1.10483 
        1.78557         2.57285         1.09558 
        1.79171         2.56197         1.08642 
        1.79785         2.54467         1.07737 
        1.80399          2.5307         1.06842 
        1.81012         2.51537         1.05959 
        1.81625         2.50465         1.05086 
        1.82239         2.48883         1.04222 
        1.82853         2.46992         1.03368 
        1.83466         2.46213         1.02524 
        1.84078         2.45107         1.01691 
        1.84692         2.44038         1.00865 
        1.85306         2.41895         1.00048 
         1.8592         2.40339        0.992409 
        1.86533         2.39264        0.984432 
        1.87147         2.38316        0.976534 
        1.87761         2.36709        0.968719 
        1.88375         2.35485        0.960999 
        1.88988         2.34349        0.953371 
        1.89601          2.3282        0.945822 
        1.90215         2.31381        0.938349 
        1.90829         2.30068         0.93096 
        1.91442         2.29378         0.92365 
        1.92056         2.27819        0.916426 
         1.9267         2.26567        0.909271 
        1.93284         2.25864        0.902188 
        1.93897         2.24625        0.895195 
        1.94509         2.23333         0.88829 
        1.95123         2.22071        0.881441 
        1.95737         2.20494        0.874659 
        1.96349         2.19991        0.867967 
        1.96964         2.19118        0.861324 
        1.97578         2.17129        0.854749 
        1.98192         2.16568        0.848255 
        1.98805         2.15459        0.841828 
        1.99419         2.14377        0.835467 
        2.00033         2.13571        0.829169 
        2.00647         2.12203        0.822938 
         2.0126         2.11594        0.816781 
        2.01874         2.09695        0.810677 
        2.02488         2.09166        0.804631 
        2.03101         2.07538        0.798658 
        2.03714         2.06775         0.79275 
        2.04328         2.05776        0.786896 
        2.04941         2.04343        0.781106 
        2.05554         2.03733        0.775379 
        2.06167         2.02904        0.769701 
        2.06781         2.01965        0.764079 
        2.07396         2.01112        0.758505 
        2.08009         2.00048        0.752996 
        2.08622         1.99012        0.747549 
        2.09237         1.97684        0.742145 
        2.09851         1.97148        0.736793 
        2.10464         1.96548        0.731503 
        2.11077         1.95081        0.726271 
        2.11691          1.9422        0.721079 
        2.12305         1.93552        0.715937 
        2.12918         1.92822        0.710858 
        2.13531          1.9172        0.705828 
        2.14145         1.90869        0.700835 
         2.1476         1.89625        0.695884 
        2.15372         1.88749        0.691006 
        2.15985         1.88264         0.68617 
        2.16599         1.87164        0.681366 
        2.17213         1.85904        0.676614 
        2.17827         1.85543        0.671907 
         2.1844         1.84639         0.66725 
        2.19054         1.83862        0.662636 
        2.19666         1.82871        0.658071 
         2.2028         1.81967        0.653546 
        2.20893          1.8129        0.649061 
        2.21508         1.80372        0.644613 
        2.22122         1.79419        0.640205 
        2.22736         1.78791        0.635847 
        2.23349         1.78031        0.631532 
        2.23962         1.76985        0.627254 
        2.24577         1.76616        0.623011 
         2.2519         1.75863        0.618815 
        2.25802         1.75083        0.614663 
        2.26417         1.74421        0.610538 
        2.27031         1.73453        0.606447 
        2.27644         1.72627        0.602405 
        2.28257         1.71585        0.598401 
        2.28872         1.71404        0.594425 
        2.29486          1.7017        0.590486 
        2.30099         1.69445        0.586591 
        2.30712         1.68715        0.582729 
        2.31326         1.68052        0.578895 
         2.3194          1.6754        0.575099 
        2.32553         1.66935        0.571342 
        2.33166         1.66078        0.567621 
         2.3378         1.65343        0.563928 
        2.34394         1.64503        0.560266 
        2.35007         1.63896        0.556642 
        2.35619         1.63323        0.553055 
        2.36233         1.62486         0.54949 
        2.36848         1.61801         0.54595 
        2.37462         1.61339        0.542448 
        2.38075         1.60449        0.538981 
        2.38689         1.60132        0.535541 
        2.39303         1.59107        0.532131 
        2.39916         1.58617        0.528755 
        2.40529         1.57939        0.525408 
        2.41143         1.57166        0.522088 
        2.41757         1.56624        0.518795 
         2.4237         1.56193        0.515536 
        2.42983         1.55126        0.512306 
        2.43598         1.54815        0.509095 
        2.44211         1.53972        0.505917 
        2.44823          1.5349        0.502773 
        2.45437          1.5283        0.499647 
        2.46052          1.5244        0.496545 
        2.46665         1.51703        0.493475 
        2.47279         1.50931        0.490431 
        2.47892         1.50438        0.487412 
        2.48507         1.49964        0.484415 
         2.4912         1.48838        0.481449 
