# k  (h/Mpc)    Pcb(k)  (Mpc/h)^3    Pcb_linear(k)  (Mpc/h)^3
     0.00783031         15703.4         15784.4 
       0.013688           18881         19390.8 
       0.019231         19181.3         19487.2 
      0.0249154         17875.3         17841.7 
      0.0312784         15078.6         15238.9 
      0.0375637         12549.2         12776.8 
      0.0433917           10906         10969.5 
      0.0492413         9553.27         9679.22 
      0.0555754         8712.82         8759.07 
      0.0619321         7834.51         8131.84 
       0.067871         7458.52         7631.77 
      0.0738098         6990.98         7092.74 
      0.0800417         6363.53         6436.66 
      0.0862327         5642.77         5722.24 
      0.0921407         5037.49         5051.21 
      0.0982031         4526.95          4444.7 
       0.104506         3987.86         3949.53 
       0.110769          3676.6         3602.45 
       0.116806         3511.55         3380.92 
       0.122832          3316.9         3229.35 
       0.129052         3156.31         3098.43 
       0.135211         3072.53         2955.28 
       0.141259         2847.78         2781.97 
       0.147318         2631.28         2577.29 
       0.153489         2453.84         2354.53 
       0.159709         2327.32         2139.89 
       0.165845         2112.21         1957.96 
       0.171974         2044.29          1815.9 
       0.178125         1966.83         1712.51 
       0.184229         1818.19         1639.76 
        0.19034         1794.53         1583.46 
       0.196428          1744.6          1530.4 
       0.202534         1638.39          1470.3 
       0.208729         1606.99         1397.98 
       0.214876         1530.53         1316.79 
       0.220989         1445.39         1232.71 
       0.227147         1400.89         1151.98 
        0.23329         1341.32         1081.28 
       0.239377         1329.24         1023.74 
       0.245482         1262.78         978.258 
       0.251667         1217.04         941.847 
       0.257832         1197.82         910.973 
       0.263955         1142.03         881.545 
       0.270079         1109.05         850.353 
        0.27624         1063.17         815.931 
       0.282372         1047.66         779.241 
        0.28843         1030.21         742.284 
       0.294538         980.274         706.461 
       0.300721         959.279         673.473 
        0.30691         936.502         644.724 
       0.313033         897.887         620.486 
       0.319153         887.317         599.618 
       0.325316         875.123         580.755 
        0.33145         855.019         562.833 
       0.337538         825.554         544.933 
       0.343633         805.769         526.479 
       0.349808         788.952          507.29 
       0.355968         773.863         488.149 
       0.362074          747.41         469.767 
       0.368217         745.084         452.455 
       0.374374         733.441         436.588 
       0.380519         705.784         422.295 
       0.386598         700.732         409.466 
       0.392688         682.958         397.546 
        0.39888         667.533         386.011 
       0.405048         653.918         374.769 
       0.411186         652.773         363.631 
       0.417313         647.163         352.578 
       0.423458         627.926          341.63 
       0.429607         610.338         330.986 
       0.435692         603.895         320.943 
       0.441815         592.275         311.411 
       0.447964         583.436          302.45 
       0.454126         576.339         294.054 
       0.460267         567.722         286.153 
       0.466387          557.21         278.613 
        0.47254          549.25         271.275 
       0.478662         539.867         264.148 
       0.484765         533.488         257.174 
       0.490885          528.22         250.331 
       0.497035         516.999         243.654 
       0.503198         516.638         237.206 
       0.509342         506.244          231.04 
       0.515458         496.222          225.18 
       0.521598         493.063         219.574 
       0.527764         482.633         214.192 
       0.533884         478.211         209.051 
           0.54         473.825         204.078 
       0.546137         465.468         199.232 
       0.552299         463.641           194.5 
       0.558452         456.497           189.9 
       0.564573         453.304         185.446 
       0.570708         447.535         181.117 
       0.576825         438.901         176.946 
       0.582926         437.521         172.938 
       0.589034         430.118          169.07 
       0.595184         426.684         165.309 
       0.601379         419.962         161.646 
       0.607522         412.327         158.125 
       0.613639         411.577         154.724 
       0.619772         409.586         151.411 
       0.625918         401.612         148.183 
       0.632068         399.457          145.04 
       0.638161          395.59          142.01 
         0.6443         390.202         139.044 
       0.650464         386.555         136.155 
       0.656582         383.114         133.375 
       0.662703         380.186          130.68 
       0.668861         373.906         128.048 
       0.675024         372.413         125.489 
       0.681124         365.712         123.026 
       0.687237         364.808         120.623 
       0.693381         359.388          118.27 
       0.699536         358.732         115.975 
       0.705665         353.746          113.75 
       0.711789         351.992         111.586 
       0.717957         347.729         109.465 
        0.72409         343.631         107.413 
       0.730186         344.888         105.427 
       0.736317         338.737         103.482 
       0.742472         336.011         101.579 
       0.748622         333.811         99.7267 
        0.75476         331.128         97.9245 
       0.760888         328.256         96.1697 
       0.767043         325.095         94.4511 
       0.773185         322.678         92.7783 
       0.779291         319.166         91.1559 
       0.785407         317.223         89.5705 
       0.791564         315.056         88.0133 
       0.797719         309.905         86.4944 
       0.803834         311.514         85.0216 
       0.809972         306.414         83.5784 
       0.816124         303.538         82.1659 
       0.822261         301.279         80.7902 
       0.828378         299.979         79.4505 
       0.834502         295.351         78.1403 
       0.840667         295.547         76.8513 
       0.846816         290.597         75.5952 
       0.852925         291.075         74.3753 
       0.859047         288.106         73.1799 
       0.865192         286.793         72.0071 
       0.871341         283.151         70.8594 
       0.877463         281.593         69.7421 
       0.883569         279.589          68.652 
       0.889708         277.078         67.5797 
       0.895864          273.85         66.5279 
       0.902008         272.631         65.5008 
       0.908149         270.115         64.4963 
       0.914301         268.731         63.5113 
       0.920448         266.706         62.5481 
       0.926574         264.793         61.6083 
       0.932687         264.166         60.6901 
       0.938823             261         59.7874 
       0.944975         260.486         58.9011 
       0.951105          257.73         58.0361 
       0.957225         255.094         57.1902 
       0.963368         255.429         56.3583 
       0.969511         250.892         55.5431 
       0.975621          249.16         54.7486 
       0.981748          248.74         53.9677 
       0.987916         247.184         53.1973 
        0.99406         244.856         52.4449 
        1.00019         242.959         51.7087 
        1.00632         242.303         50.9874 
        1.01246         240.199         50.2789 
        1.01859         237.657         49.5852 
        1.02471         236.161         48.9055 
        1.03085         235.036         48.2362 
        1.03698          234.12         47.5811 
        1.04314         232.853         46.9354 
        1.04929         231.314         46.3033 
        1.05541         229.609         45.6855 
        1.06154         227.685         45.0776 
        1.06769         225.947         44.4798 
        1.07382         224.497          43.895 
        1.07993         223.003          43.322 
        1.08607         221.944          42.757 
        1.09222         219.875         42.2015 
        1.09836         219.202         41.6567 
        1.10449         217.613         41.1221 
        1.11063         216.037         40.5964 
        1.11677         214.254         40.0802 
         1.1229         213.789         39.5738 
        1.12903         211.496         39.0759 
        1.13518         210.336         38.5861 
        1.14131         209.525         38.1051 
        1.14745         207.389         37.6325 
        1.15359         205.973          37.168 
        1.15973         205.228         36.7111 
        1.16584         203.769          36.264 
        1.17197         202.835         35.8238 
        1.17811          200.97         35.3896 
        1.18424         199.825         34.9638 
        1.19038         199.065         34.5439 
        1.19652         196.671         34.1311 
        1.20267         196.054         33.7251 
        1.20881         194.578         33.3258 
        1.21495         194.302         32.9336 
        1.22108         192.612         32.5479 
         1.2272         190.985         32.1693 
        1.23334         190.131         31.7959 
        1.23949         189.057         31.4276 
        1.24562         187.792         31.0661 
        1.25174         186.927          30.711 
        1.25789          185.13         30.3603 
        1.26402         184.757         30.0158 
        1.27014         183.866         29.6775 
        1.27628         182.451         29.3434 
        1.28244         180.915         29.0139 
        1.28858         179.997         28.6899 
        1.29471         178.781         28.3716 
        1.30084         178.097         28.0585 
        1.30697         176.533         27.7496 
        1.31312         175.662          27.445 
        1.31925         174.404         27.1459 
        1.32537         173.887         26.8516 
        1.33151         172.566         26.5606 
        1.33765         171.482         26.2742 
        1.34378         170.875         25.9925 
        1.34992         169.374         25.7148 
        1.35606         168.702         25.4406 
         1.3622         167.358         25.1708 
        1.36833         166.488         24.9057 
        1.37445         166.161         24.6445 
        1.38059         164.303         24.3863 
        1.38675         163.411         24.1312 
        1.39288         162.502         23.8807 
        1.39901          161.19          23.634 
        1.40515         160.777         23.3902 
         1.4113         159.686         23.1499 
        1.41742         158.548          22.914 
        1.42355         158.096         22.6809 
         1.4297         156.882         22.4504 
        1.43585         156.372         22.2232 
        1.44198         154.739              22 
        1.44809         154.322         21.7803 
        1.45423         153.435         21.5628 
        1.46036         152.332         21.3487 
        1.46649         151.306         21.1375 
        1.47263         150.798         20.9289 
        1.47877          149.73         20.7233 
        1.48491         148.651         20.5201 
        1.49104         147.343         20.3201 
        1.49718         147.096         20.1226 
        1.50333          145.71         19.9275 
        1.50947         145.269         19.7353 
         1.5156         144.251          19.546 
        1.52172         143.529         19.3592 
        1.52787         142.876         19.1744 
          1.534         142.112         18.9923 
        1.54013         141.012         18.8128 
        1.54627         140.313         18.6352 
        1.55241         139.667           18.46 
        1.55855         138.934         18.2872 
        1.56467         138.081         18.1171 
         1.5708         136.956         17.9488 
        1.57695         136.567         17.7823 
        1.58308         135.386         17.6183 
        1.58922          134.71         17.4563 
        1.59535         133.986         17.2964 
         1.6015         133.168         17.1383 
        1.60764         132.275         16.9823 
        1.61376         131.542         16.8286 
        1.61989         131.042         16.6767 
        1.62604         129.977         16.5264 
        1.63218         129.455          16.378 
        1.63831         128.604         16.2318 
        1.64444         127.638         16.0873 
        1.65059         127.202         15.9443 
        1.65673          126.49         15.8031 
        1.66285         125.955         15.6641 
        1.66898         125.057         15.5267 
        1.67512         124.067         15.3906 
        1.68127         123.766         15.2561 
         1.6874         122.894         15.1235 
        1.69353          122.34         14.9926 
        1.69967         121.442         14.8629 
        1.70581         121.008         14.7348 
        1.71193         120.258         14.6087 
        1.71806         119.122         14.4838 
        1.72421         118.719         14.3601 
        1.73035         118.108          14.238 
        1.73649         117.285         14.1174 
        1.74262         116.788         13.9983 
        1.74876         116.062         13.8805 
        1.75489         115.829         13.7642 
        1.76101         114.698         13.6494 
        1.76715         114.025         13.5357 
        1.77329          113.38         13.4232 
        1.77943         112.706         13.3119 
        1.78557         112.231          13.202 
        1.79171         111.465         13.0934 
        1.79785         110.751         12.9859 
        1.80399         110.265         12.8797 
        1.81012          109.51         12.7748 
        1.81625         108.966         12.6712 
        1.82239         108.561         12.5685 
        1.82853         107.617         12.4671 
        1.83466          106.84         12.3668 
        1.84078         106.677         12.2678 
        1.84692          106.29         12.1697 
        1.85306          105.46         12.0726 
         1.8592         104.982         11.9767 
        1.86533         104.231         11.8818 
        1.87147          103.75         11.7879 
        1.87761         103.045          11.695 
        1.88375          102.41         11.6032 
        1.88988         101.876         11.5125 
        1.89601         101.473         11.4227 
        1.90215         101.074         11.3338 
        1.90829          100.12         11.2458 
        1.91442         99.3784         11.1589 
        1.92056         99.0832         11.0729 
         1.9267         98.5152         10.9877 
        1.93284         97.8269         10.9034 
        1.93897         97.4752         10.8201 
        1.94509         96.9802         10.7379 
        1.95123         96.4239         10.6563 
        1.95737         95.8759         10.5755 
        1.96349         95.3908         10.4958 
        1.96964         94.7503         10.4166 
        1.97578         94.2979         10.3383 
        1.98192           93.93         10.2609 
        1.98805         93.3722         10.1843 
        1.99419          92.773         10.1084 
        2.00033         92.2296         10.0334 
        2.00647         91.7694         9.95905 
         2.0126         91.2572         9.88563 
        2.01874         90.8159         9.81284 
        2.02488         90.2195         9.74072 
        2.03101         89.8187         9.66946 
        2.03714         89.2623         9.59899 
        2.04328          89.014         9.52913 
        2.04941         88.4289         9.46003 
        2.05554          88.033         9.39167 
        2.06167         87.2625         9.32389 
        2.06781         86.9786         9.25678 
        2.07396           86.38         9.19023 
        2.08009         85.8177         9.12445 
        2.08622         85.5097         9.05939 
        2.09237         84.9489         8.99484 
        2.09851         84.4969         8.93091 
        2.10464         84.3137         8.86771 
        2.11077         83.5988          8.8052 
        2.11691         83.2403         8.74315 
        2.12305         82.7832          8.6817 
        2.12918          82.302         8.62099 
        2.13531         81.8953         8.56086 
        2.14145         81.5203         8.50117 
         2.1476         81.0811         8.44198 
        2.15372         80.5477         8.38365 
        2.15985         80.1527         8.32581 
        2.16599         79.6823         8.26836 
        2.17213         79.2012         8.21151 
        2.17827         78.7427         8.15521 
         2.1844         78.4586         8.09949 
        2.19054         77.8998         8.04427 
        2.19666         77.3777         7.98965 
         2.2028         77.3086         7.93549 
        2.20893         76.8824          7.8818 
        2.21508         76.3792         7.82856 
        2.22122         75.9294         7.77578 
        2.22736          75.619         7.72361 
        2.23349         75.0613         7.67192 
        2.23962         74.7574         7.62069 
        2.24577         74.4081         7.56987 
         2.2519         73.9468          7.5196 
        2.25802          73.595         7.46986 
        2.26417         73.0853         7.42043 
        2.27031         72.6419         7.37141 
        2.27644          72.398         7.32297 
        2.28257         72.0499         7.27498 
        2.28872          71.599         7.22732 
        2.29486         71.4219          7.1801 
        2.30099         70.8281          7.1334 
        2.30712         70.6395          7.0871 
        2.31326         70.1254         7.04113 
         2.3194         69.8347          6.9956 
        2.32553         69.4199         6.95054 
        2.33166         69.0654         6.90591 
         2.3378         68.6939          6.8616 
        2.34394           68.49         6.81767 
        2.35007         67.9705         6.77419 
        2.35619         67.6293         6.73114 
        2.36233         67.1939         6.68837 
        2.36848         66.9476         6.64588 
        2.37462         66.6374         6.60384 
        2.38075          66.221         6.56222 
        2.38689         65.8721         6.52091 
        2.39303          65.634         6.47997 
        2.39916         65.2109         6.43943 
        2.40529         64.9614         6.39923 
        2.41143         64.5477         6.35935 
        2.41757         64.1524          6.3198 
         2.4237         63.8566         6.28065 
        2.42983         63.5078         6.24184 
        2.43598         63.2761         6.20326 
        2.44211         62.9567         6.16506 
        2.44823         62.5914         6.12728 
        2.45437         62.2978         6.08971 
        2.46052         61.9502         6.05242 
        2.46665         61.4214         6.01551 
        2.47279         61.2803         5.97892 
        2.47892          61.057         5.94262 
        2.48507         60.7004         5.90658 
         2.4912         60.3631         5.87091 
