# k  (h/Mpc)    Pcb(k)  (Mpc/h)^3    Pcb_linear(k)  (Mpc/h)^3
     0.00783031         1496.03         1509.04 
       0.013688         1613.52         1631.15 
       0.019231         1467.18         1473.32 
      0.0249154         1219.11         1215.12 
      0.0312784         935.059         932.366 
      0.0375637          720.02         719.351 
      0.0433917          592.58          589.73 
      0.0492413         512.872         512.009 
      0.0555754         466.646         464.258 
      0.0619321         428.496         431.064 
       0.067871         397.935         397.945 
      0.0738098         356.958         356.568 
      0.0800417         307.847         306.462 
      0.0862327         258.093         257.243 
      0.0921407         218.536         217.509 
      0.0982031         189.614         187.632 
       0.104506         168.613         168.168 
       0.110769         158.228          157.62 
       0.116806         152.961         151.758 
       0.122832         146.608         146.298 
       0.129052         139.062         138.293 
       0.135211         128.415         127.176 
       0.141259         115.056         114.211 
       0.147318         101.729         101.152 
       0.153489         90.6449         89.6506 
       0.159709         82.3191         80.9666 
       0.165845         75.9038         75.3244 
       0.171974         73.3405         71.9102 
       0.178125          70.766         69.6469 
       0.184229         68.2293         67.4819 
        0.19034          65.743         64.6397 
       0.196428         61.9743         60.8911 
       0.202534         56.9712         56.4575 
       0.208729         52.9554         51.8164 
       0.214876         49.0627         47.6275 
       0.220989         45.2323         44.2332 
       0.227147         43.1005         41.6867 
        0.23329          41.252         39.8749 
       0.239377         39.9362         38.5146 
       0.245482         38.5539         37.2744 
       0.251667         36.8917         35.8965 
       0.257832         35.6721          34.284 
       0.263955         33.5536         32.4794 
       0.270079         31.6677         30.6014 
        0.27624         29.8068         28.7972 
       0.282372         28.2902         27.2145 
        0.28843         27.2584         25.9111 
       0.294538         26.0913         24.8458 
       0.300721         25.0009         23.9506 
        0.30691          24.368         23.1472 
       0.313033         23.4844         22.3606 
       0.319153         22.8541         21.5353 
       0.325316         21.7236         20.6547 
        0.33145         20.7687         19.7558 
       0.337538          19.936         18.8813 
       0.343633         19.2284         18.0652 
       0.349808         18.4253         17.3218 
       0.355968         17.7308         16.6712 
       0.362074         17.2883         16.1001 
       0.368217         16.6942         15.5768 
       0.374374         16.2675         15.0782 
       0.380519         15.6374         14.5853 
       0.386598          15.092         14.0962 
       0.392688         14.5504         13.6046 
        0.39888         14.1552         13.1129 
       0.405048         13.7189         12.6439 
       0.411186         13.2418         12.2054 
       0.417313         12.8214         11.8008 
       0.423458         12.3699         11.4272 
       0.429607         12.1226         11.0789 
       0.435692          11.838         10.7524 
       0.441815         11.4059         10.4361 
       0.447964         11.0252         10.1252 
       0.454126         10.7873           9.819 
       0.460267         10.5668         9.52122 
       0.466387         10.2227         9.23393 
        0.47254         9.99491         8.95672 
       0.478662         9.67442         8.69466 
       0.484765         9.42261         8.44793 
       0.490885         9.12465         8.21347 
       0.497035         8.88785          7.9886 
       0.503198         8.72123         7.77227 
       0.509342         8.43956         7.56401 
       0.515458         8.27465         7.36277 
       0.521598         8.07869         7.16599 
       0.527764         7.91578         6.97419 
       0.533884         7.65821         6.79039 
           0.54         7.51183         6.61388 
       0.546137         7.28315         6.44385 
       0.552299         7.12967         6.27989 
       0.558452         6.94738          6.1226 
       0.564573         6.82149           5.972 
       0.570708          6.6661         5.82633 
       0.576825         6.52702         5.68577 
       0.582926         6.36943         5.54974 
       0.589034         6.23996         5.41742 
       0.595184         6.14163         5.28822 
       0.601379         5.96908         5.16232 
       0.607522         5.83135          5.0417 
       0.613639         5.70638         4.92573 
       0.619772         5.60333         4.81335 
       0.625918         5.48274         4.70439 
       0.632068         5.38787         4.59877 
       0.638161         5.27149         4.49729 
         0.6443         5.15925         4.39809 
       0.650464         5.04158         4.30148 
       0.656582         4.97772         4.20844 
       0.662703          4.8817         4.11811 
       0.668861         4.75223         4.02991 
       0.675024         4.66102         3.94422 
       0.681124         4.64187         3.86188 
       0.687237         4.52383         3.78175 
       0.693381         4.40382         3.70353 
       0.699536         4.36175         3.62741 
       0.705665         4.27085         3.55377 
       0.711789          4.1776         3.48225 
       0.717957          4.0928         3.41223 
        0.72409         4.03522         3.34453 
       0.730186          3.9979         3.27907 
       0.736317         3.89391         3.21501 
       0.742472         3.84621         3.15242 
       0.748622         3.77897         3.09156 
        0.75476         3.68104         3.03243 
       0.760888         3.64366         2.97494 
       0.767043         3.55334         2.91871 
       0.773185         3.50679         2.86405 
       0.779291          3.4803          2.8111 
       0.785407         3.40477         2.75942 
       0.791564         3.34654         2.70871 
       0.797719         3.28614          2.6593 
       0.803834         3.24853         2.61144 
       0.809972          3.1831         2.56459 
       0.816124         3.14103         2.51879 
       0.822261         3.09221         2.47423 
       0.828378         3.04441         2.43088 
       0.834502          2.9961         2.38854 
       0.840667          2.9593         2.34693 
       0.846816         2.89517         2.30643 
       0.852925         2.86093         2.26714 
       0.859047         2.81488         2.22869 
       0.865192           2.773           2.191 
       0.871341         2.73474         2.15415 
       0.877463         2.68652         2.11832 
       0.883569         2.65704         2.08339 
       0.889708          2.6178         2.04907 
       0.895864         2.58044         2.01544 
       0.902008         2.53559         1.98262 
       0.908149         2.50126         1.95056 
       0.914301         2.46727         1.91916 
       0.920448         2.44168         1.88847 
       0.926574         2.41576         1.85856 
       0.932687         2.37336         1.82937 
       0.938823         2.32723         1.80069 
       0.944975         2.31358         1.77257 
       0.951105         2.26191         1.74514 
       0.957225         2.24845         1.71834 
       0.963368         2.21628         1.69202 
       0.969511         2.18784         1.66624 
       0.975621          2.1535         1.64114 
       0.981748         2.11669          1.6165 
       0.987916         2.09533          1.5922 
        0.99406         2.07475          1.5685 
        1.00019         2.04719         1.54532 
        1.00632         2.02665         1.52263 
        1.01246          1.9959         1.50037 
        1.01859         1.97166         1.47858 
        1.02471         1.93871         1.45725 
        1.03085         1.91814         1.43627 
        1.03698          1.8966         1.41575 
        1.04314          1.8723         1.39554 
        1.04929         1.85188         1.37578 
        1.05541         1.82272         1.35647 
        1.06154          1.8081         1.33748 
        1.06769         1.79188         1.31883 
        1.07382         1.76139          1.3006 
        1.07993         1.73837         1.28275 
        1.08607         1.72533         1.26516 
        1.09222         1.70005         1.24788 
        1.09836         1.69056         1.23095 
        1.10449         1.65515         1.21434 
        1.11063         1.64085         1.19803 
        1.11677         1.62526         1.18202 
         1.1229         1.60405         1.16633 
        1.12903         1.59106         1.15091 
        1.13518         1.56675         1.13575 
        1.14131         1.55143         1.12088 
        1.14745         1.53348         1.10628 
        1.15359         1.51448         1.09193 
        1.15973         1.49715         1.07784 
        1.16584         1.48419         1.06405 
        1.17197         1.46262         1.05049 
        1.17811         1.44684         1.03712 
        1.18424         1.43154         1.02402 
        1.19038         1.41785         1.01111 
        1.19652         1.40285        0.998425 
        1.20267          1.3918        0.985959 
        1.20881         1.37406        0.973708 
        1.21495         1.35939        0.961683 
        1.22108         1.34669        0.949864 
         1.2272         1.32738         0.93827 
        1.23334         1.31893        0.926843 
        1.23949         1.30149        0.915578 
        1.24562         1.29084        0.904532 
        1.25174         1.28171        0.893684 
        1.25789         1.26152        0.882981 
        1.26402         1.24965        0.872471 
        1.27014         1.23493        0.862158 
        1.27628         1.22475        0.851981 
        1.28244         1.21174        0.841947 
        1.28858         1.20073        0.832088 
        1.29471         1.18588        0.822409 
        1.30084         1.17609        0.812892 
        1.30697         1.16728         0.80351 
        1.31312         1.15465        0.794262 
        1.31925         1.14281        0.785189 
        1.32537          1.1339        0.776265 
        1.33151         1.11977        0.767447 
        1.33765         1.11008        0.758771 
        1.34378         1.10158        0.750246 
        1.34992         1.09121        0.741845 
        1.35606         1.07986        0.733554 
         1.3622         1.07111        0.725404 
        1.36833         1.05822        0.717398 
        1.37445         1.04709        0.709515 
        1.38059          1.0387        0.701727 
        1.38675          1.0286        0.694036 
        1.39288         1.02294        0.686491 
        1.39901         1.00991        0.679061 
        1.40515         1.00211        0.671724 
         1.4113        0.995002        0.664498 
        1.41742        0.982744        0.657405 
        1.42355        0.974398        0.650402 
         1.4297        0.966287         0.64348 
        1.43585        0.958145        0.636661 
        1.44198        0.949668        0.629967 
        1.44809        0.941769        0.623381 
        1.45423        0.932306        0.616864 
        1.46036         0.92565        0.610452 
        1.46649        0.914519        0.604129 
        1.47263        0.909862         0.59789 
        1.47877        0.904699        0.591742 
        1.48491        0.890485         0.58567 
        1.49104        0.885265        0.579695 
        1.49718          0.8774          0.5738 
        1.50333         0.86975        0.567976 
        1.50947        0.863443        0.562245 
         1.5156        0.856545        0.556601 
        1.52172        0.848689        0.551034 
        1.52787        0.841738        0.545532 
          1.534        0.836237        0.540111 
        1.54013        0.828535        0.534769 
        1.54627        0.820599         0.52949 
        1.55241        0.813568         0.52428 
        1.55855        0.807483        0.519148 
        1.56467        0.801483        0.514098 
         1.5708        0.794726        0.509101 
        1.57695        0.787291        0.504163 
        1.58308        0.779545        0.499301 
        1.58922        0.775779          0.4945 
        1.59535        0.767705        0.489763 
         1.6015        0.761891        0.485081 
        1.60764        0.756771        0.480463 
        1.61376        0.749137        0.475917 
        1.61989        0.743919        0.471426 
        1.62604        0.736814        0.466983 
        1.63218        0.732947        0.462599 
        1.63831        0.727124        0.458282 
        1.64444        0.720607        0.454017 
        1.65059        0.716643        0.449797 
        1.65673        0.708462        0.445635 
        1.66285        0.703978        0.441536 
        1.66898        0.699275        0.437488 
        1.67512        0.691526        0.433482 
        1.68127        0.687919        0.429523 
         1.6874        0.684371        0.425621 
        1.69353        0.677541         0.42177 
        1.69967        0.672424        0.417958 
        1.70581         0.66965        0.414194 
        1.71193        0.660565         0.41049 
        1.71806        0.658919        0.406824 
        1.72421        0.654131        0.403195 
        1.73035        0.646782        0.399614 
        1.73649         0.64443        0.396077 
        1.74262        0.638039        0.392586 
        1.74876          0.6339        0.389134 
        1.75489        0.629583        0.385731 
        1.76101        0.623089        0.382369 
        1.76715        0.619926        0.379042 
        1.77329        0.616165        0.375751 
        1.77943        0.611743        0.372497 
        1.78557        0.608162        0.369286 
        1.79171        0.603542        0.366113 
        1.79785        0.599583        0.362975 
        1.80399        0.593387        0.359876 
        1.81012        0.590319        0.356816 
        1.81625        0.585003        0.353793 
        1.82239        0.581901          0.3508 
        1.82853        0.577993        0.347844 
        1.83466        0.573481        0.344924 
        1.84078        0.569582         0.34204 
        1.84692        0.565218        0.339185 
        1.85306        0.563199        0.336359 
         1.8592        0.556988        0.333569 
        1.86533        0.555012        0.330812 
        1.87147        0.550046        0.328083 
        1.87761        0.546494        0.325383 
        1.88375        0.542576        0.322717 
        1.88988        0.538307        0.320083 
        1.89601        0.534756        0.317477 
        1.90215        0.531889        0.314898 
        1.90829        0.528143        0.312349 
        1.91442        0.524811        0.309827 
        1.92056        0.521702        0.307336 
         1.9267        0.517955        0.304869 
        1.93284        0.513839        0.302428 
        1.93897        0.510519        0.300018 
        1.94509        0.507162        0.297639 
        1.95123        0.503846         0.29528 
        1.95737        0.501475        0.292944 
        1.96349         0.49717         0.29064 
        1.96964        0.495599        0.288354 
        1.97578        0.490958        0.286091 
        1.98192        0.487578        0.283857 
        1.98805        0.484494        0.281646 
        1.99419        0.481481        0.279459 
        2.00033        0.479097        0.277293 
        2.00647        0.476826        0.275152 
         2.0126        0.473658        0.273036 
        2.01874        0.469715        0.270939 
        2.02488        0.466374        0.268862 
        2.03101          0.4635        0.266811 
        2.03714        0.461639        0.264783 
        2.04328        0.458318        0.262773 
        2.04941        0.455545        0.260786 
        2.05554        0.451746        0.258821 
        2.06167        0.449662        0.256873 
        2.06781        0.446433        0.254945 
        2.07396        0.444704        0.253034 
        2.08009        0.441471        0.251145 
        2.08622        0.438652        0.249278 
        2.09237        0.436344        0.247427 
        2.09851        0.433673        0.245593 
        2.10464        0.430751        0.243781 
        2.11077        0.426922         0.24199 
        2.11691        0.425072        0.240212 
        2.12305        0.423552        0.238452 
        2.12918        0.420262        0.236714 
        2.13531        0.418001        0.234993 
        2.14145        0.415381        0.233285 
         2.1476        0.412437        0.231592 
        2.15372        0.410566        0.229924 
        2.15985        0.407707        0.228271 
        2.16599         0.40573        0.226629 
        2.17213        0.402949        0.225005 
        2.17827        0.400862        0.223397 
         2.1844        0.398388        0.221807 
        2.19054         0.39607        0.220231 
        2.19666        0.393837        0.218672 
         2.2028        0.391481        0.217128 
        2.20893        0.390111        0.215597 
        2.21508        0.387401        0.214079 
        2.22122        0.385076        0.212575 
        2.22736        0.381889        0.211089 
        2.23349        0.379915        0.209617 
        2.23962        0.378903        0.208159 
        2.24577        0.376325        0.206713 
         2.2519        0.373774        0.205282 
        2.25802        0.372469        0.203868 
        2.26417         0.36952        0.202462 
        2.27031        0.368077        0.201069 
        2.27644        0.366128        0.199693 
        2.28257        0.363348        0.198329 
        2.28872        0.362289        0.196976 
        2.29486        0.359571        0.195636 
        2.30099        0.357713         0.19431 
        2.30712        0.356057        0.192996 
        2.31326        0.353786        0.191693 
         2.3194         0.35137        0.190401 
        2.32553        0.349811        0.189124 
        2.33166        0.348493        0.187859 
         2.3378        0.346649        0.186604 
        2.34394        0.344476         0.18536 
        2.35007          0.3417        0.184129 
        2.35619        0.340036         0.18291 
        2.36233        0.338738          0.1817 
        2.36848        0.337362        0.180497 
        2.37462        0.335077        0.179309 
        2.38075        0.333481        0.178132 
        2.38689        0.332327        0.176964 
        2.39303        0.329484        0.175807 
        2.39916        0.328623        0.174662 
        2.40529        0.326786        0.173527 
        2.41143        0.324254        0.172401 
        2.41757        0.323091        0.171285 
         2.4237        0.321373         0.17018 
        2.42983        0.319207        0.169085 
        2.43598        0.317902        0.167997 
        2.44211        0.316252         0.16692 
        2.44823        0.314459        0.165855 
        2.45437        0.313465        0.164796 
        2.46052        0.312178        0.163746 
        2.46665        0.310077        0.162707 
        2.47279        0.308608        0.161677 
        2.47892        0.306634        0.160655 
        2.48507        0.305934        0.159641 
         2.4912        0.303993        0.158637 
