# k  (h/Mpc)    Pcb(k)  (Mpc/h)^3    Pcb_linear(k)  (Mpc/h)^3
     0.00783031         610.384         615.412 
       0.013688         827.918         829.333 
       0.019231         905.123         905.673 
      0.0249154         897.098         902.058 
      0.0312784         842.963         844.642 
      0.0375637         769.456          768.77 
      0.0433917         699.668         701.534 
      0.0492413         645.422         645.499 
      0.0555754         596.007         598.703 
      0.0619321         563.541         562.013 
       0.067871          529.56         531.572 
      0.0738098         498.098          500.49 
      0.0800417         461.398         464.939 
      0.0862327         424.994         427.096 
      0.0921407         389.695          390.88 
      0.0982031         354.636         356.423 
       0.104506         326.362          325.85 
       0.110769         302.107         301.754 
       0.116806         282.814         283.979 
       0.122832         270.098         270.118 
       0.129052         256.602         257.919 
       0.135211         244.559         246.127 
       0.141259         233.112         233.699 
       0.147318         220.397         220.132 
       0.153489         205.249         205.651 
       0.159709         191.332         191.336 
       0.165845         180.009         178.452 
       0.171974         167.812         167.454 
       0.178125         159.092         158.475 
       0.184229         152.468         151.346 
        0.19034         145.214         145.437 
       0.196428         140.792          140.12 
       0.202534         136.385         134.797 
       0.208729         130.067          129.06 
       0.214876         123.317         122.978 
       0.220989         118.522         116.733 
       0.227147         111.154         110.568 
        0.23329         105.696         104.864 
       0.239377          101.17         99.8709 
       0.245482         96.3059         95.5883 
       0.251667         93.5345         91.9089 
       0.257832         90.1966         88.7152 
       0.263955         87.2631         85.7914 
       0.270079         84.4784          82.916 
        0.27624         82.1453         79.9539 
       0.282372         79.0056          76.907 
        0.28843          75.644         73.8503 
       0.294538         72.7111         70.8232 
       0.300721         70.3873         67.9211 
        0.30691         67.3056         65.2631 
       0.313033         65.0813         62.9053 
       0.319153         62.2596          60.805 
       0.325316         61.2612         58.8888 
        0.33145          59.267         57.1098 
       0.337538         57.6621         55.4004 
       0.343633         55.8265         53.7017 
       0.349808         54.2521          51.973 
       0.355968         52.5767         50.2526 
       0.362074         50.8918         48.5789 
       0.368217          49.384         46.9605 
       0.374374         47.6893         45.4345 
       0.380519         46.4863          44.019 
       0.386598         45.2543         42.7251 
       0.392688         44.2188         41.5189 
        0.39888          42.972          40.361 
       0.405048         41.9769         39.2542 
       0.411186         41.0168         38.1782 
       0.417313         39.6563         37.1203 
       0.423458         38.7294         36.0765 
       0.429607         37.6213         35.0533 
       0.435692         36.5621         34.0732 
       0.441815          35.794         33.1289 
       0.447964         35.1592         32.2276 
       0.454126         33.9449         31.3728 
       0.460267         33.2178         30.5667 
       0.466387         32.2849         29.8005 
        0.47254         31.7613         29.0593 
       0.478662         31.1362         28.3448 
       0.484765          30.321         27.6507 
       0.490885         29.5956         26.9697 
       0.497035         29.1988          26.302 
       0.503198          28.457         25.6527 
       0.509342          27.791         25.0272 
       0.515458          27.156         24.4275 
       0.521598         26.6638         23.8494 
       0.527764         26.0583         23.2929 
       0.533884         25.6109         22.7622 
           0.54         25.0932         22.2501 
       0.546137         24.6396         21.7518 
       0.552299         24.1977         21.2658 
       0.558452         23.4835         20.7939 
       0.564573         23.1877         20.3366 
       0.570708         22.7691         19.8902 
       0.576825         22.1888          19.458 
       0.582926         21.8447         19.0403 
       0.589034         21.2348         18.6358 
       0.595184         20.9363         18.2422 
       0.601379         20.5348         17.8583 
       0.607522         20.2385         17.4894 
       0.613639         20.0009         17.1327 
       0.619772         19.4885         16.7852 
       0.625918         19.3098         16.4465 
       0.632068         19.0006         16.1166 
       0.638161         18.5764         15.7982 
         0.6443         18.2088         15.4858 
       0.650464         17.8621         15.1806 
       0.656582         17.7137          14.886 
       0.662703         17.4076         14.5996 
       0.668861         17.1106         14.3197 
       0.675024         16.7813         14.0474 
       0.681124         16.5017         13.7853 
       0.687237         16.2705         13.5294 
       0.693381         16.0635         13.2788 
       0.699536         15.6361          13.034 
       0.705665         15.4739         12.7963 
       0.711789          15.237         12.5647 
       0.717957         14.9979         12.3373 
        0.72409         14.7624         12.1169 
       0.730186         14.5712         11.9034 
       0.736317         14.4245          11.694 
       0.742472          14.202         11.4891 
       0.748622          13.974         11.2893 
        0.75476         13.6782         11.0948 
       0.760888         13.5483         10.9053 
       0.767043         13.3867         10.7194 
       0.773185         13.1238         10.5383 
       0.779291         13.0144         10.3624 
       0.785407         12.8151         10.1903 
       0.791564         12.6098         10.0211 
       0.797719         12.4365         9.85593 
       0.803834         12.3199         9.69556 
       0.809972          12.198         9.53824 
       0.816124         11.9508         9.38414 
       0.822261         11.7952         9.23391 
       0.828378         11.6579         9.08748 
       0.834502         11.5465         8.94415 
       0.840667         11.3488         8.80302 
       0.846816         11.1765         8.66538 
       0.852925          11.079         8.53157 
       0.859047         10.9427         8.40035 
       0.865192         10.8469         8.27148 
       0.871341          10.723         8.14526 
       0.877463          10.577         8.02228 
       0.883569         10.4012         7.90218 
       0.889708         10.2399         7.78395 
       0.895864         10.1773         7.66788 
       0.902008         10.0462         7.55444 
       0.908149         9.93706          7.4434 
       0.914301         9.78959         7.33444 
       0.920448         9.65757         7.22779 
       0.926574         9.54439         7.12367 
       0.932687         9.47367         7.02184 
       0.938823         9.35249         6.92167 
       0.944975         9.23055         6.82324 
       0.951105         9.15044         6.72711 
       0.957225         9.09983         6.63301 
       0.963368         8.97329         6.54041 
       0.969511         8.87422          6.4496 
       0.975621         8.75445         6.36103 
       0.981748         8.67343          6.2739 
       0.987916         8.59075         6.18788 
        0.99406         8.45665         6.10382 
        1.00019         8.35027          6.0215 
        1.00632         8.31405         5.94079 
        1.01246          8.2277         5.86146 
        1.01859         8.12333         5.78372 
        1.02471         8.04098          5.7075 
        1.03085         7.96819         5.63241 
        1.03698           7.862         5.55884 
        1.04314         7.80103         5.48629 
        1.04929         7.69881         5.41521 
        1.05541         7.62423          5.3457 
        1.06154         7.55669         5.27724 
        1.06769         7.51482          5.2099 
        1.07382         7.40278         5.14397 
        1.07993         7.32331         5.07934 
        1.08607         7.28166         5.01556 
        1.09222         7.20785         4.95283 
        1.09836         7.14846         4.89125 
        1.10449         7.06957         4.83081 
        1.11063         7.00762         4.77133 
        1.11677         6.94268         4.71288 
         1.1229         6.87598         4.65553 
        1.12903          6.8095         4.59909 
        1.13518         6.74905         4.54354 
        1.14131         6.66236         4.48896 
        1.14745         6.58335         4.43531 
        1.15359         6.55724         4.38254 
        1.15973         6.48444         4.33062 
        1.16584         6.43307         4.27978 
        1.17197         6.37595         4.22969 
        1.17811         6.32051         4.18025 
        1.18424         6.28828         4.13176 
        1.19038         6.22929         4.08391 
        1.19652         6.17271         4.03684 
        1.20267         6.10682         3.99051 
        1.20881         6.05874         3.94494 
        1.21495         6.01473         3.90015 
        1.22108         5.95649         3.85607 
         1.2272         5.93205         3.81278 
        1.23334         5.85274         3.77007 
        1.23949         5.80213         3.72791 
        1.24562          5.7781         3.68652 
        1.25174         5.70502         3.64583 
        1.25789         5.66813         3.60563 
        1.26402         5.61311         3.56612 
        1.27014         5.56206          3.5273 
        1.27628         5.54015         3.48894 
        1.28244          5.4699         3.45109 
        1.28858         5.44674         3.41386 
        1.29471         5.39572         3.37726 
        1.30084         5.34661         3.34123 
        1.30697         5.33587         3.30569 
        1.31312         5.24089         3.27061 
        1.31925         5.22908         3.23616 
        1.32537         5.18765         3.20224 
        1.33151         5.15742         3.16869 
        1.33765         5.09312         3.13565 
        1.34378         5.05371         3.10315 
        1.34992         5.04087         3.07109 
        1.35606         4.98073         3.03942 
         1.3622         4.95857         3.00825 
        1.36833          4.9198          2.9776 
        1.37445         4.88332          2.9474 
        1.38059         4.85268         2.91752 
        1.38675         4.82449           2.888 
        1.39288         4.77256           2.859 
        1.39901         4.73456         2.83042 
        1.40515         4.70894         2.80217 
         1.4113           4.675         2.77432 
        1.41742         4.64459         2.74695 
        1.42355         4.61751         2.71991 
         1.4297         4.56542         2.69315 
        1.43585         4.55274         2.66677 
        1.44198         4.52846         2.64084 
        1.44809         4.47136         2.61531 
        1.45423         4.44366         2.59002 
        1.46036         4.41451         2.56512 
        1.46649         4.37653         2.54054 
        1.47263         4.34667         2.51626 
        1.47877         4.31018         2.49232 
        1.48491         4.28491         2.46865 
        1.49104         4.26794         2.44534 
        1.49718         4.23739         2.42231 
        1.50333         4.20837         2.39955 
        1.50947         4.18253         2.37713 
         1.5156         4.15612         2.35503 
        1.52172         4.13046         2.33322 
        1.52787         4.09889         2.31164 
          1.534         4.07643         2.29036 
        1.54013         4.04629         2.26937 
        1.54627         4.01008         2.24861 
        1.55241         3.98587         2.22811 
        1.55855         3.97132         2.20789 
        1.56467         3.94339         2.18798 
         1.5708         3.90563         2.16827 
        1.57695         3.89002         2.14877 
        1.58308         3.86299         2.12955 
        1.58922         3.84709         2.11056 
        1.59535         3.82039         2.09181 
         1.6015         3.79718         2.07326 
        1.60764         3.77606         2.05495 
        1.61376         3.75103         2.03691 
        1.61989         3.72568         2.01908 
        1.62604         3.70067         2.00142 
        1.63218         3.69054         1.98398 
        1.63831         3.65396          1.9668 
        1.64444         3.63245         1.94981 
        1.65059         3.61548         1.93298 
        1.65673         3.59425         1.91637 
        1.66285         3.56596         1.90001 
        1.66898         3.55377         1.88383 
        1.67512         3.52398         1.86781 
        1.68127         3.50567         1.85197 
         1.6874         3.49167         1.83634 
        1.69353         3.45618         1.82091 
        1.69967         3.44302         1.80561 
        1.70581         3.43397          1.7905 
        1.71193         3.40811         1.77562 
        1.71806         3.39247         1.76088 
        1.72421         3.37046         1.74628 
        1.73035         3.35161         1.73187 
        1.73649         3.32951         1.71762 
        1.74262         3.31085         1.70354 
        1.74876         3.30155         1.68961 
        1.75489         3.27426         1.67587 
        1.76101          3.2542         1.66228 
        1.76715         3.23826         1.64883 
        1.77329         3.21979         1.63552 
        1.77943         3.19832         1.62234 
        1.78557          3.1863         1.60933 
        1.79171         3.17051         1.59646 
        1.79785         3.14909         1.58373 
        1.80399         3.13667         1.57114 
        1.81012         3.12602         1.55871 
        1.81625         3.09912         1.54642 
        1.82239         3.08128         1.53424 
        1.82853         3.05962          1.5222 
        1.83466         3.05325         1.51031 
        1.84078          3.0351         1.49855 
        1.84692         3.02054          1.4869 
        1.85306         2.99974         1.47536 
         1.8592         2.98749         1.46396 
        1.86533         2.97105         1.45269 
        1.87147         2.95965         1.44153 
        1.87761         2.94443         1.43048 
        1.88375         2.91835         1.41956 
        1.88988         2.91154         1.40876 
        1.89601          2.8936         1.39808 
        1.90215         2.87478         1.38749 
        1.90829         2.86402         1.37702 
        1.91442         2.84927         1.36666 
        1.92056         2.83411         1.35642 
         1.9267         2.82398         1.34627 
        1.93284         2.81021         1.33622 
        1.93897         2.79414         1.32629 
        1.94509         2.77565         1.31648 
        1.95123         2.76064         1.30675 
        1.95737         2.74853         1.29711 
        1.96349          2.7371          1.2876 
        1.96964         2.72722         1.27815 
        1.97578          2.7119         1.26879 
        1.98192         2.70129         1.25955 
        1.98805         2.68365          1.2504 
        1.99419         2.67115         1.24133 
        2.00033         2.66802         1.23236 
        2.00647         2.64731         1.22348 
         2.0126         2.63925          1.2147 
        2.01874         2.61927         1.20599 
        2.02488         2.61001         1.19736 
        2.03101         2.59383         1.18883 
        2.03714         2.57787          1.1804 
        2.04328          2.5722         1.17203 
        2.04941         2.55519         1.16376 
        2.05554         2.55029         1.15557 
        2.06167         2.53262         1.14745 
        2.06781         2.52558         1.13941 
        2.07396         2.51368         1.13143 
        2.08009         2.50035         1.12354 
        2.08622         2.48367         1.11574 
        2.09237         2.48375           1.108 
        2.09851         2.47083         1.10033 
        2.10464         2.45813         1.09275 
        2.11077         2.44446         1.08524 
        2.11691         2.43167         1.07779 
        2.12305         2.42572         1.07041 
        2.12918         2.41331         1.06312 
        2.13531         2.40406          1.0559 
        2.14145         2.38971         1.04872 
         2.1476         2.38061         1.04161 
        2.15372         2.36925          1.0346 
        2.15985         2.35904         1.02764 
        2.16599         2.34615         1.02073 
        2.17213         2.33781         1.01389 
        2.17827         2.32995         1.00712 
         2.1844         2.31944         1.00042 
        2.19054         2.31204        0.993768 
        2.19666         2.29751        0.987192 
         2.2028         2.28955         0.98067 
        2.20893         2.27489        0.974203 
        2.21508         2.27106        0.967788 
        2.22122         2.25684        0.961429 
        2.22736         2.24495        0.955141 
        2.23349         2.24234         0.94891 
        2.23962         2.22784        0.942733 
        2.24577         2.21818        0.936605 
         2.2519         2.20954         0.93054 
        2.25802         2.20603        0.924539 
        2.26417         2.19015        0.918574 
        2.27031         2.18607        0.912657 
        2.27644         2.17547         0.90681 
        2.28257         2.16643        0.901014 
        2.28872         2.15478        0.895258 
        2.29486         2.15104        0.889555 
        2.30099         2.13842        0.883912 
        2.30712         2.13043        0.878317 
        2.31326         2.12546         0.87276 
         2.3194         2.11387        0.867256 
        2.32553         2.10671        0.861808 
        2.33166         2.09549        0.856409 
         2.3378          2.0867         0.85105 
        2.34394          2.0773        0.845735 
        2.35007         2.07001        0.840474 
        2.35619         2.06579        0.835263 
        2.36233         2.05324        0.830085 
        2.36848         2.04749         0.82494 
        2.37462         2.03865         0.81985 
        2.38075          2.0312        0.814808 
        2.38689          2.0226        0.809805 
        2.39303         2.01667        0.804844 
        2.39916         2.00553        0.799931 
        2.40529         2.00158        0.795059 
        2.41143         1.99188        0.790224 
        2.41757         1.98266        0.785428 
         2.4237         1.97632         0.78068 
        2.42983         1.96764        0.775972 
        2.43598         1.96404        0.771291 
        2.44211         1.95399        0.766656 
        2.44823         1.94679         0.76207 
        2.45437          1.9403        0.757509 
        2.46052         1.93389        0.752982 
        2.46665          1.9278          0.7485 
        2.47279         1.91921        0.744057 
        2.47892         1.91041        0.739646 
        2.48507         1.90486        0.735268 
         2.4912         1.89664        0.730933 
