# k  (h/Mpc)    P(k)  (Mpc/h)^3    P_linear(k)  (Mpc/h)^3
     0.00783031         6258.69         6300.92 
       0.013688         8258.62         8431.29 
       0.019231         9013.76         9122.23 
      0.0249154         8962.15          8977.8 
      0.0312784         8191.74         8274.71 
      0.0375637         7288.41         7407.33 
      0.0433917         6614.43         6663.48 
      0.0492413            5970         6062.22 
      0.0555754         5528.49         5580.98 
      0.0619321         5048.37         5225.41 
       0.067871         4832.23         4944.99 
      0.0738098         4572.06         4662.15 
      0.0800417         4255.01         4331.94 
      0.0862327         3880.03         3969.46 
      0.0921407         3536.83         3613.34 
      0.0982031         3232.67         3268.43 
       0.104506         2898.86         2960.05 
       0.110769            2674         2718.79 
       0.116806         2548.42         2546.03 
       0.122832         2392.48         2418.83 
       0.129052         2292.61         2314.66 
       0.135211         2224.34         2217.98 
       0.141259         2093.41         2114.58 
       0.147318         1951.46         1996.58 
       0.153489          1845.1         1864.37 
       0.159709         1751.33         1728.18 
       0.165845         1596.28         1601.97 
       0.171974         1544.03         1492.71 
       0.178125          1475.4         1404.04 
       0.184229         1371.52         1336.02 
        0.19034         1344.78         1283.17 
       0.196428         1305.84         1239.04 
       0.202534         1231.97         1196.59 
       0.208729         1210.87         1150.33 
       0.214876         1167.03         1099.09 
       0.220989         1094.52         1043.72 
       0.227147         1068.67         986.521 
        0.23329         1026.13         931.777 
       0.239377         1003.83         882.985 
       0.245482         953.018         841.252 
       0.251667         916.419         806.396 
       0.257832         907.149         777.712 
       0.263955         862.206         753.011 
       0.270079         837.893         729.673 
        0.27624         804.069         705.704 
       0.282372         789.145         680.364 
        0.28843         783.266         653.879 
       0.294538         744.472         626.567 
       0.300721         721.367         599.497 
        0.30691          709.72          574.21 
       0.313033          680.54         551.729 
       0.319153         669.563         532.063 
       0.325316         656.883         514.737 
        0.33145         643.777         499.332 
       0.337538         622.113         485.014 
       0.343633         604.561          470.97 
       0.349808         590.337         456.532 
       0.355968          579.46          441.81 
       0.362074          563.51         427.042 
       0.368217         558.719         412.378 
       0.374374           548.1         398.291 
       0.380519          527.25         385.139 
       0.386598         520.917         373.219 
       0.392688         510.822         362.313 
        0.39888         497.477         352.121 
       0.405048          490.03         342.613 
       0.411186         486.935         333.497 
       0.417313          480.02         324.547 
       0.423458         466.442         315.621 
       0.429607         456.015         306.711 
       0.435692         448.079         298.024 
       0.441815         441.383          289.53 
       0.447964         431.584         281.357 
       0.454126         425.878         273.615 
       0.460267         419.994         266.383 
       0.466387         413.538         259.598 
        0.47254         408.062         253.134 
       0.478662         397.911         246.978 
       0.484765         394.047         241.024 
       0.490885         389.932         235.165 
       0.497035          383.81         229.379 
       0.503198         381.592         223.699 
       0.509342         371.643         218.168 
       0.515458         367.425         212.829 
       0.521598         360.466         207.675 
       0.527764         355.834          202.73 
       0.533884         355.351          198.04 
           0.54         348.858         193.547 
       0.546137          341.42         189.209 
       0.552299         340.651             185 
       0.558452         335.236         180.919 
       0.564573         332.113         176.952 
       0.570708         327.125         173.061 
       0.576825         321.884         169.276 
       0.582926         318.777         165.605 
       0.589034         315.018         162.043 
       0.595184         313.104         158.573 
       0.601379         307.121         155.194 
       0.607522         302.462         151.957 
       0.613639         300.415         148.842 
       0.619772         298.475         145.819 
       0.625918         295.121         142.877 
       0.632068         289.747         140.011 
       0.638161         286.965         137.239 
         0.6443         285.691         134.512 
       0.650464         281.071         131.844 
       0.656582         278.855         129.267 
       0.662703         276.898         126.761 
       0.668861         272.226         124.313 
       0.675024         271.489         121.933 
       0.681124         268.111         119.643 
       0.687237         265.158          117.41 
       0.693381         263.219         115.225 
       0.699536         259.942         113.093 
       0.705665         257.134         111.024 
       0.711789          255.07         109.009 
       0.717957         252.189          107.03 
        0.72409         250.491         105.111 
       0.730186         250.514         103.251 
       0.736317         246.245         101.425 
       0.742472         243.168          99.637 
       0.748622         240.052         97.8943 
        0.75476         240.698         96.1979 
       0.760888         237.951         94.5455 
       0.767043         235.027         92.9267 
       0.773185         233.145         91.3503 
       0.779291         230.138         89.8205 
       0.785407         228.889         88.3242 
       0.791564         226.923         86.8532 
       0.797719          224.08         85.4168 
       0.803834         224.491         84.0221 
       0.809972         222.946         82.6538 
       0.816124         220.028         81.3131 
       0.822261         217.602          80.006 
       0.828378         217.871         78.7319 
       0.834502          213.99         77.4848 
       0.840667         213.622          76.257 
       0.846816         211.409         75.0596 
       0.852925         209.693          73.896 
       0.859047         207.595          72.755 
       0.865192         207.062         71.6347 
       0.871341         204.355         70.5376 
       0.877463         202.912         69.4688 
       0.883569         202.638         68.4253 
       0.889708         201.115         67.3981 
       0.895864         199.132         66.3896 
       0.902008         197.509         65.4042 
       0.908149         195.316         64.4397 
       0.914301         195.308         63.4933 
       0.920448         193.873          62.567 
       0.926574         191.592         61.6627 
       0.932687         190.873         60.7785 
       0.938823         189.416         59.9086 
       0.944975         187.493         59.0539 
       0.951105         186.276         58.2193 
       0.957225         185.873         57.4024 
       0.963368         183.995         56.5985 
       0.969511         182.077         55.8103 
       0.975621         181.064         55.0415 
       0.981748         179.611         54.2853 
       0.987916         178.729         53.5388 
        0.99406         177.668         52.8093 
        1.00019         176.344         52.0951 
        1.00632         175.682         51.3948 
        1.01246         174.216         50.7065 
        1.01859         172.844         50.0321 
        1.02471         171.573         49.3709 
        1.03085         170.551         48.7195 
        1.03698         169.317         48.0814 
        1.04314         168.571         47.4522 
        1.04929         167.862         46.8358 
        1.05541         166.662         46.2329 
        1.06154         165.696         45.6394 
        1.06769          163.99         45.0554 
        1.07382           163.2         44.4837 
        1.07993         162.384         43.9234 
        1.08607         160.889         43.3705 
        1.09222         160.385         42.8266 
        1.09836         158.855         42.2928 
        1.10449         157.772         41.7689 
        1.11063         156.887         41.2533 
        1.11677         156.127         40.7468 
         1.1229         154.894         40.2497 
        1.12903         154.456         39.7605 
        1.13518         153.388         39.2792 
        1.14131         152.511         38.8062 
        1.14745         151.226         38.3413 
        1.15359         149.873         37.8841 
        1.15973         149.371         37.4342 
        1.16584         148.536         36.9937 
        1.17197         147.734         36.5598 
        1.17811         146.578         36.1315 
        1.18424         145.707         35.7115 
        1.19038         145.298         35.2969 
        1.19652         143.992         34.8892 
        1.20267         143.173          34.488 
        1.20881         142.301         34.0933 
        1.21495         141.939         33.7054 
        1.22108         140.698         33.3237 
         1.2272         139.735         32.9488 
        1.23334         139.304         32.5789 
        1.23949         138.695         32.2139 
        1.24562         137.391         31.8555 
        1.25174         136.273         31.5032 
        1.25789         136.262         31.1552 
        1.26402         135.281         30.8131 
        1.27014         134.527          30.477 
        1.27628         133.066          30.145 
        1.28244         132.868         29.8173 
        1.28858         131.845          29.495 
        1.29471         131.044         29.1782 
        1.30084         130.375         28.8665 
        1.30697         130.148         28.5588 
        1.31312         129.091         28.2552 
        1.31925         128.189         27.9571 
        1.32537         127.586         27.6635 
        1.33151         127.226         27.3732 
        1.33765         125.887         27.0873 
        1.34378          125.93          26.806 
        1.34992         125.181         26.5286 
        1.35606         124.212         26.2546 
         1.3622         123.818         25.9849 
        1.36833         122.574         25.7197 
        1.37445         122.048         25.4584 
        1.38059         121.551         25.1999 
        1.38675         120.639         24.9445 
        1.39288         120.229         24.6936 
        1.39901         119.006         24.4463 
        1.40515         118.926         24.2019 
         1.4113         118.221          23.961 
        1.41742         117.382         23.7243 
        1.42355         116.796         23.4904 
         1.4297         116.129         23.2589 
        1.43585         115.319         23.0307 
        1.44198         114.707         22.8065 
        1.44809         114.026         22.5857 
        1.45423         113.473          22.367 
        1.46036         112.613         22.1516 
        1.46649          112.15         21.9391 
        1.47263         111.739         21.7291 
        1.47877         111.085         21.5221 
        1.48491         110.274         21.3174 
        1.49104         109.378         21.1158 
        1.49718         109.324         20.9167 
        1.50333         108.623         20.7199 
        1.50947          108.23         20.5261 
         1.5156         107.572          20.335 
        1.52172         106.848         20.1464 
        1.52787         106.138         19.9599 
          1.534         105.943         19.7759 
        1.54013         105.337         19.5945 
        1.54627         104.445          19.415 
        1.55241         103.909         19.2378 
        1.55855         103.542          19.063 
        1.56467         102.558         18.8909 
         1.5708         102.363         18.7205 
        1.57695         101.874         18.5519 
        1.58308         101.299         18.3858 
        1.58922         100.895         18.2217 
        1.59535          100.36         18.0596 
         1.6015         99.9653         17.8993 
        1.60764         99.2987          17.741 
        1.61376         98.6311         17.5851 
        1.61989         97.9102         17.4309 
        1.62604         97.5827         17.2783 
        1.63218         97.2395         17.1276 
        1.63831         96.5695         16.9791 
        1.64444           96.12         16.8323 
        1.65059         95.6161         16.6869 
        1.65673         94.8717         16.5434 
        1.66285         94.3938         16.4019 
        1.66898         93.7961         16.2621 
        1.67512         93.6899         16.1237 
        1.68127         93.0683         15.9868 
         1.6874         92.5179         15.8518 
        1.69353         92.0768         15.7184 
        1.69967          91.759         15.5863 
        1.70581         91.1991         15.4557 
        1.71193         90.6946         15.3272 
        1.71806         89.9776         15.1998 
        1.72421         89.6986         15.0737 
        1.73035         89.4868         14.9491 
        1.73649         88.8067          14.826 
        1.74262           88.07         14.7044 
        1.74876         87.8707         14.5841 
        1.75489         87.1429         14.4654 
        1.76101         86.7577          14.348 
        1.76715         86.5626         14.2318 
        1.77329         85.8295         14.1168 
        1.77943         85.6091          14.003 
        1.78557         85.2756         13.8906 
        1.79171         84.6467         13.7794 
        1.79785         84.2218         13.6695 
        1.80399         83.7882         13.5607 
        1.81012         83.3072         13.4533 
        1.81625          83.124         13.3472 
        1.82239         82.7761          13.242 
        1.82853         82.1049          13.138 
        1.83466         81.6882         13.0352 
        1.84078          81.289         12.9337 
        1.84692         80.9528         12.8331 
        1.85306         80.5654         12.7334 
         1.8592         80.1518          12.635 
        1.86533         79.5647         12.5376 
        1.87147         79.2297         12.4412 
        1.87761         78.7203         12.3458 
        1.88375         78.3029         12.2515 
        1.88988              78         12.1582 
        1.89601         77.4935          12.066 
        1.90215         77.1301         11.9745 
        1.90829         76.8902         11.8841 
        1.91442         76.4375         11.7947 
        1.92056         75.9564         11.7062 
         1.9267         75.6653         11.6185 
        1.93284          75.453         11.5318 
        1.93897         75.0015          11.446 
        1.94509         74.5205         11.3613 
        1.95123         74.1912         11.2773 
        1.95737         73.6106         11.1941 
        1.96349          73.337         11.1119 
        1.96964         72.9701         11.0303 
        1.97578         72.5817         10.9495 
        1.98192         72.2727         10.8697 
        1.98805         71.8559         10.7907 
        1.99419         71.4385         10.7125 
        2.00033         71.0214          10.635 
        2.00647         70.8481         10.5583 
         2.0126         70.3938         10.4825 
        2.01874         70.0693         10.4073 
        2.02488         69.7765         10.3328 
        2.03101         69.3892         10.2592 
        2.03714         69.1956         10.1864 
        2.04328         68.7499         10.1142 
        2.04941         68.2956         10.0427 
        2.05554         68.1164         9.97205 
        2.06167         67.9001         9.90195 
        2.06781         67.2004         9.83251 
        2.07396         66.9632         9.76365 
        2.08009         66.7922         9.69557 
        2.08622         66.3378         9.62821 
        2.09237         65.9325         9.56138 
        2.09851         65.5967         9.49516 
        2.10464         65.3297         9.42969 
        2.11077         65.0316         9.36492 
        2.11691         64.6523         9.30062 
        2.12305         64.3052         9.23692 
        2.12918         64.0141         9.17398 
        2.13531          63.736         9.11162 
        2.14145          63.309          9.0497 
         2.1476         63.0646         8.98829 
        2.15372         62.8186         8.92776 
        2.15985         62.4191         8.86773 
        2.16599         62.1169         8.80809 
        2.17213          61.884         8.74906 
        2.17827         61.5301         8.69059 
         2.1844          61.222         8.63271 
        2.19054         60.8929         8.57534 
        2.19666         60.4889         8.51857 
         2.2028          60.337         8.46228 
        2.20893         59.9101         8.40646 
        2.21508         59.6561         8.35109 
        2.22122         59.3612         8.29621 
        2.22736         59.0433         8.24193 
        2.23349          58.903         8.18816 
        2.23962          58.445         8.13484 
        2.24577         58.3457         8.08195 
         2.2519         57.8944          8.0296 
        2.25802         57.6781         7.97781 
        2.26417         57.3602         7.92634 
        2.27031         57.0967         7.87527 
        2.27644          56.814          7.8248 
        2.28257            56.5         7.77478 
        2.28872         56.3705         7.72511 
        2.29486         56.0774         7.67588 
        2.30099         55.6275         7.62719 
        2.30712         55.5102          7.5789 
        2.31326         55.1012         7.53095 
         2.3194         54.8606         7.48344 
        2.32553         54.7239         7.43643 
        2.33166         54.2231         7.38984 
         2.3378         53.9618         7.34359 
        2.34394         53.8083         7.29773 
        2.35007         53.4484         7.25232 
        2.35619         53.3763         7.20736 
        2.36233         52.9384         7.16268 
        2.36848         52.7175         7.11828 
        2.37462         52.5021         7.07436 
        2.38075         52.2902         7.03085 
        2.38689         52.0297         6.98767 
        2.39303         51.8549         6.94486 
        2.39916         51.5298         6.90246 
        2.40529         51.2526         6.86042 
        2.41143         50.9911          6.8187 
        2.41757         50.7088         6.77731 
         2.4237         50.5879         6.73634 
        2.42983         50.2327         6.69572 
        2.43598         49.9377         6.65533 
        2.44211         49.8204         6.61534 
        2.44823          49.554         6.57576 
        2.45437         49.3339         6.53641 
        2.46052           48.97         6.49735 
        2.46665         48.7813         6.45868 
        2.47279         48.5538         6.42033 
        2.47892         48.3297         6.38228 
        2.48507         48.0968          6.3445 
         2.4912          47.842          6.3071 
