# k  (h/Mpc)    Pcb(k)  (Mpc/h)^3    Pcb_linear(k)  (Mpc/h)^3
     0.00783031         6360.78         6440.47 
       0.013688         7284.39         7254.56 
       0.019231          6794.2         6775.77 
      0.0249154         5725.89         5782.18 
      0.0312784         4602.94         4607.67 
      0.0375637          3697.1         3673.56 
      0.0433917         3069.27         3076.75 
      0.0492413         2706.83          2699.4 
      0.0555754         2426.46         2451.93 
      0.0619321         2293.75         2273.16 
       0.067871         2085.07         2101.34 
      0.0738098         1882.77         1896.12 
      0.0800417         1635.23         1652.39 
      0.0862327         1412.67         1412.36 
      0.0921407         1229.71          1215.1 
      0.0982031         1070.02         1062.04 
       0.104506         983.677         956.926 
       0.110769         915.847         894.599 
       0.116806         868.808         856.216 
       0.122832         836.499         821.495 
       0.129052         780.098         776.357 
       0.135211         724.509         717.994 
       0.141259         668.407         651.559 
       0.147318         607.223         584.498 
       0.153489         544.429         524.263 
       0.159709          501.89         477.056 
       0.165845         474.023         444.458 
       0.171974         446.824         422.877 
       0.178125         430.624         407.395 
       0.184229         415.342          393.17 
        0.19034         389.646         376.442 
       0.196428         376.076         355.946 
       0.202534         357.916         332.429 
       0.208729         332.326         307.865 
       0.214876         309.175         285.309 
       0.220989         293.819         266.402 
       0.227147         276.983         251.474 
        0.23329         265.004         240.163 
       0.239377         257.843         231.257 
       0.245482         242.366          223.21 
       0.251667         238.299         214.801 
       0.257832         229.221         205.558 
       0.263955         219.203         195.567 
       0.270079         208.794         185.284 
        0.27624         202.739         175.322 
       0.282372         194.182         166.364 
        0.28843         185.671         158.728 
       0.294538         177.364         152.219 
       0.300721         174.261         146.579 
        0.30691         166.307          141.48 
       0.313033         161.717         136.615 
       0.319153         154.498         131.683 
       0.325316         151.088          126.59 
        0.33145         144.932         121.464 
       0.337538         141.691         116.488 
       0.343633         136.218         111.782 
       0.349808         131.671         107.408 
       0.355968         128.675         103.476 
       0.362074         124.762         99.9509 
       0.368217         120.949         96.6905 
       0.374374         117.087         93.5928 
       0.380519         114.591         90.5873 
       0.386598         111.354          87.654 
       0.392688         109.124         84.7471 
        0.39888         106.018         81.8599 
       0.405048         103.094         79.0923 
       0.411186         100.614         76.4805 
       0.417313         97.9018         74.0386 
       0.423458         95.4908         71.7491 
       0.429607         93.0962         69.5958 
       0.435692         89.8821         67.5762 
       0.441815         88.9125         65.6236 
       0.447964         87.2254         63.7206 
       0.454126         83.2624         61.8653 
       0.460267         82.2302         60.0686 
       0.466387          80.581         58.3345 
        0.47254          78.849         56.6579 
       0.478662         77.8753         55.0645 
       0.484765         75.3813         53.5509 
       0.490885         73.9275          52.102 
       0.497035         72.9569         50.7096 
       0.503198         70.7936         49.3707 
       0.509342         69.2253          48.083 
       0.515458         68.0293         46.8408 
       0.521598         66.8995         45.6314 
       0.527764         65.7649         44.4559 
       0.533884         64.7253         43.3286 
           0.54         63.2035         42.2418 
       0.546137          62.492         41.1904 
       0.552299         61.4614         40.1741 
       0.558452         59.8392         39.1977 
       0.564573         58.7529         38.2613 
       0.570708         57.8611         37.3542 
       0.576825         56.9434         36.4783 
       0.582926         55.6401         35.6314 
       0.589034          54.538         34.8093 
       0.595184         53.7887         34.0073 
       0.601379         52.9118         33.2251 
       0.607522         51.6773         32.4742 
       0.613639         51.4242         31.7502 
       0.619772         50.2436          31.047 
       0.625918         49.6591         30.3645 
       0.632068         49.0197         29.7027 
       0.638161         48.2666         29.0671 
         0.6443         47.5042         28.4457 
       0.650464         46.8027         27.8403 
       0.656582         46.2104         27.2566 
       0.662703         45.2695         26.6893 
       0.668861         44.6413         26.1348 
       0.675024         44.0534         25.5957 
       0.681124         43.3394         25.0773 
       0.687237         42.5254         24.5726 
       0.693381         42.1504         24.0798 
       0.699536         41.3673         23.5999 
       0.705665           41.46         23.1353 
       0.711789         40.3445         22.6838 
       0.717957         39.8857         22.2413 
        0.72409         39.3438         21.8132 
       0.730186         38.7109         21.3989 
       0.736317         38.5019         20.9931 
       0.742472         37.8928         20.5964 
       0.748622         37.4609         20.2104 
        0.75476         36.9919         19.8352 
       0.760888         36.3924         19.4703 
       0.767043         35.9558         19.1131 
       0.773185          35.477         18.7658 
       0.779291         35.2671         18.4292 
       0.785407         34.9212         18.1004 
       0.791564         34.3993         17.7777 
       0.797719         33.6961         17.4631 
       0.803834         33.5976         17.1581 
       0.809972          33.051         16.8593 
       0.816124          32.623         16.5671 
       0.822261         32.3189         16.2826 
       0.828378          32.129         16.0057 
       0.834502         31.7036         15.7351 
       0.840667         31.3505          15.469 
       0.846816         30.8413         15.2099 
       0.852925         30.5982         14.9583 
       0.859047         30.1938          14.712 
       0.865192          29.909         14.4704 
       0.871341          29.787         14.2341 
       0.877463          29.187         14.0042 
       0.883569         28.9273           13.78 
       0.889708         28.6855         13.5596 
       0.895864         28.3785         13.3434 
       0.902008         28.1209         13.1325 
       0.908149         27.8408         12.9263 
       0.914301         27.7145         12.7241 
       0.920448         27.3396         12.5265 
       0.926574         27.0264         12.3339 
       0.932687         26.7877         12.1457 
       0.938823         26.3994         11.9608 
       0.944975          26.268         11.7793 
       0.951105         25.9866         11.6023 
       0.957225         25.6618         11.4292 
       0.963368         25.6649         11.2591 
       0.969511         25.3466         11.0925 
       0.975621         25.1551         10.9302 
       0.981748         24.7829         10.7707 
       0.987916         24.6224         10.6134 
        0.99406         24.4242         10.4599 
        1.00019         24.1396         10.3098 
        1.00632         23.9738         10.1627 
        1.01246         23.8697         10.0183 
        1.01859          23.464         9.87699 
        1.02471           23.42         9.73857 
        1.03085         23.2102         9.60235 
        1.03698         22.8575         9.46904 
        1.04314         22.7211         9.33771 
        1.04929         22.5134         9.20918 
        1.05541         22.2829         9.08361 
        1.06154         22.2046         8.96008 
        1.06769         22.0213         8.83868 
        1.07382         21.8273         8.71994 
        1.07993          21.694         8.60365 
        1.08607         21.4245         8.48902 
        1.09222         21.3306         8.37637 
        1.09836         21.1135         8.26591 
        1.10449         20.9539         8.15757 
        1.11063          20.684         8.05106 
        1.11677         20.6167         7.94649 
         1.1229         20.4893         7.84397 
        1.12903         20.2395         7.74318 
        1.13518         20.1513         7.64407 
        1.14131         20.0447         7.54677 
        1.14745         19.8037         7.45121 
        1.15359         19.7671         7.35731 
        1.15973         19.5203         7.26498 
        1.16584         19.3344         7.17466 
        1.17197         19.3188         7.08576 
        1.17811         19.0766          6.9981 
        1.18424         18.9318         6.91217 
        1.19038          18.872         6.82746 
        1.19652         18.7644         6.74419 
        1.20267         18.6149         6.66233 
        1.20881         18.4351         6.58184 
        1.21495         18.3294         6.50282 
        1.22108         18.1892         6.42511 
         1.2272         18.0181         6.34886 
        1.23334         17.9599         6.27368 
        1.23949         17.8235         6.19955 
        1.24562         17.6905         6.12682 
        1.25174         17.6062         6.05538 
        1.25789         17.4449         5.98486 
        1.26402         17.3621          5.9156 
        1.27014         17.1625         5.84761 
        1.27628         17.0794         5.78048 
        1.28244         17.0025         5.71429 
        1.28858         16.9137         5.64922 
        1.29471         16.7905         5.58532 
        1.30084         16.6745         5.52247 
        1.30697         16.5628         5.46049 
        1.31312         16.4032         5.39938 
        1.31925         16.3136          5.3394 
        1.32537         16.2495          5.2804 
        1.33151          16.127         5.22207 
        1.33765         16.0596         5.16467 
        1.34378         15.9393         5.10824 
        1.34992         15.7787         5.05263 
        1.35606         15.7377         4.99772 
         1.3622         15.6471         4.94372 
        1.36833         15.5075         4.89066 
        1.37445         15.5003          4.8384 
        1.38059         15.3485         4.78675 
        1.38675         15.1703         4.73573 
        1.39288         15.1626         4.68565 
        1.39901         15.0479         4.63633 
        1.40515         14.9902          4.5876 
         1.4113         14.8843          4.5396 
        1.41742         14.7507         4.49246 
        1.42355         14.7271         4.44591 
         1.4297         14.6517         4.39988 
        1.43585         14.5771         4.35453 
        1.44198         14.4592         4.30998 
        1.44809         14.3597         4.26615 
        1.45423         14.2963         4.22277 
        1.46036         14.2403         4.18007 
        1.46649         14.1527         4.13794 
        1.47263         14.0368         4.09637 
        1.47877         13.9833         4.05539 
        1.48491         13.9465          4.0149 
        1.49104         13.8641         3.97506 
        1.49718         13.7391         3.93573 
        1.50333         13.6993         3.89687 
        1.50947         13.6219         3.85862 
         1.5156         13.5292         3.82094 
        1.52172         13.4517         3.78376 
        1.52787          13.413           3.747 
          1.534         13.3038         3.71078 
        1.54013         13.2069         3.67508 
        1.54627         13.1525         3.63978 
        1.55241         13.0775         3.60495 
        1.55855         12.9999         3.57062 
        1.56467          12.938         3.53683 
         1.5708         12.9216         3.50338 
        1.57695         12.7969         3.47032 
        1.58308         12.7812         3.43776 
        1.58922         12.7057         3.40559 
        1.59535         12.6136         3.37385 
         1.6015         12.5528         3.34247 
        1.60764         12.5194         3.31151 
        1.61376          12.403         3.28102 
        1.61989         12.3418         3.25089 
        1.62604         12.3274         3.22107 
        1.63218         12.2504         3.19165 
        1.63831         12.2095         3.16266 
        1.64444         12.0998         3.13402 
        1.65059         12.0458         3.10567 
        1.65673         11.9987         3.07771 
        1.66285         11.9344         3.05016 
        1.66898          11.911         3.02295 
        1.67512          11.845         2.99601 
        1.68127         11.7914         2.96938 
         1.6874         11.7064         2.94313 
        1.69353         11.6379         2.91722 
        1.69967         11.5928         2.89155 
        1.70581         11.5497         2.86621 
        1.71193         11.4919         2.84127 
        1.71806         11.4233         2.81657 
        1.72421         11.3748         2.79212 
        1.73035         11.3034         2.76799 
        1.73649         11.2815         2.74414 
        1.74262         11.2533          2.7206 
        1.74876         11.1873         2.69732 
        1.75489         11.1303         2.67436 
        1.76101         11.0546         2.65168 
        1.76715         11.0319         2.62922 
        1.77329         10.9626           2.607 
        1.77943         10.9094         2.58503 
        1.78557         10.8871         2.56335 
        1.79171         10.8335         2.54191 
        1.79785         10.7437         2.52071 
        1.80399         10.7169         2.49976 
        1.81012         10.7049         2.47907 
        1.81625         10.6341         2.45863 
        1.82239         10.5951         2.43839 
        1.82853         10.5134         2.41838 
        1.83466         10.4505         2.39862 
        1.84078         10.4154         2.37911 
        1.84692         10.4023         2.35977 
        1.85306         10.3293         2.34063 
         1.8592         10.2959         2.32173 
        1.86533         10.2673         2.30305 
        1.87147         10.2103         2.28456 
        1.87761         10.1811         2.26626 
        1.88375         10.1081         2.24818 
        1.88988          10.068         2.23032 
        1.89601         10.0353         2.21264 
        1.90215         9.98708         2.19514 
        1.90829         9.94897         2.17784 
        1.91442         9.91179         2.16073 
        1.92056         9.86308         2.14381 
         1.9267         9.81792         2.12706 
        1.93284         9.77076         2.11048 
        1.93897         9.73442          2.0941 
        1.94509         9.68573         2.07794 
        1.95123         9.65984          2.0619 
        1.95737         9.62765         2.04603 
        1.96349         9.57808         2.03036 
        1.96964         9.52544         2.01481 
        1.97578         9.48906         1.99942 
        1.98192         9.45214         1.98422 
        1.98805         9.42948         1.96917 
        1.99419         9.36664         1.95428 
        2.00033         9.32235         1.93954 
        2.00647         9.28868         1.92495 
         2.0126         9.27355         1.91054 
        2.01874         9.20435         1.89626 
        2.02488         9.16828          1.8821 
        2.03101         9.15425         1.86812 
        2.03714         9.12404          1.8543 
        2.04328         9.06424          1.8406 
        2.04941         9.01673         1.82705 
        2.05554         9.01371         1.81364 
        2.06167         8.96057         1.80035 
        2.06781         8.94365          1.7872 
        2.07396         8.91903         1.77415 
        2.08009         8.87726         1.76126 
        2.08622         8.79618         1.74851 
        2.09237         8.80047         1.73587 
        2.09851         8.75955         1.72334 
        2.10464          8.7229         1.71096 
        2.11077         8.67177         1.69872 
        2.11691         8.64998         1.68657 
        2.12305         8.63818         1.67454 
        2.12918         8.57363         1.66265 
        2.13531         8.55579         1.65088 
        2.14145         8.51509          1.6392 
         2.1476         8.51247         1.62761 
        2.15372           8.458          1.6162 
        2.15985         8.41102         1.60488 
        2.16599         8.40585         1.59364 
        2.17213         8.35812         1.58252 
        2.17827         8.34057         1.57151 
         2.1844         8.30212         1.56061 
        2.19054         8.27011         1.54981 
        2.19666         8.25617         1.53913 
         2.2028         8.21895         1.52855 
        2.20893         8.18207         1.51805 
        2.21508         8.13156         1.50765 
        2.22122         8.10895         1.49733 
        2.22736         8.09057         1.48714 
        2.23349         8.04641         1.47704 
        2.23962         8.01721         1.46703 
        2.24577         7.99459         1.45711 
         2.2519         7.97701         1.44729 
        2.25802         7.94021         1.43757 
        2.26417         7.92045         1.42792 
        2.27031         7.85932         1.41835 
        2.27644         7.85313          1.4089 
        2.28257         7.82078         1.39953 
        2.28872         7.80326         1.39023 
        2.29486           7.769         1.38101 
        2.30099          7.7588          1.3719 
        2.30712         7.71248         1.36287 
        2.31326          7.6883          1.3539 
         2.3194         7.66137         1.34502 
        2.32553         7.62697         1.33623 
        2.33166         7.59093         1.32752 
         2.3378         7.57196         1.31888 
        2.34394         7.55551         1.31032 
        2.35007         7.51154         1.30184 
        2.35619         7.47403         1.29345 
        2.36233         7.46294         1.28511 
        2.36848         7.45448         1.27683 
        2.37462         7.42557         1.26864 
        2.38075         7.37519         1.26053 
        2.38689         7.35905         1.25249 
        2.39303         7.32934         1.24451 
        2.39916         7.32498         1.23661 
        2.40529         7.28531         1.22879 
        2.41143         7.27273         1.22102 
        2.41757         7.24142         1.21332 
         2.4237         7.22127          1.2057 
        2.42983         7.17739         1.19814 
        2.43598         7.18067         1.19063 
        2.44211          7.1473          1.1832 
        2.44823         7.11298         1.17585 
        2.45437         7.10803         1.16854 
        2.46052         7.06159         1.16128 
        2.46665         7.03318          1.1541 
        2.47279         7.00698         1.14698 
        2.47892          6.9982         1.13992 
        2.48507         6.96703         1.13291 
         2.4912         6.95374         1.12597 
