# k  (h/Mpc)    P(k)  (Mpc/h)^3    P_linear(k)  (Mpc/h)^3
     0.00783031         1492.69         1505.52 
       0.013688         1879.39         1903.02 
       0.019231         1953.82         1964.91 
      0.0249154         1855.74         1855.31 
      0.0312784         1645.58         1648.55 
      0.0375637         1436.12          1441.6 
      0.0433917         1285.21         1283.72 
      0.0492413         1162.24         1165.01 
      0.0555754          1073.3         1071.39 
      0.0619321         986.038          996.18 
       0.067871         925.197         928.311 
      0.0738098         853.807         855.252 
      0.0800417         773.977         773.011 
      0.0862327         690.745         691.525 
      0.0921407         620.402         620.943 
      0.0982031         563.193         560.894 
       0.104506          511.62         513.366 
       0.110769         477.997         479.044 
       0.116806         456.387         453.859 
       0.122832          431.05         431.761 
       0.129052         409.268         408.276 
       0.135211         385.533         382.508 
       0.141259         356.541         355.178 
       0.147318         327.184         327.647 
       0.153489         303.304         301.734 
       0.159709         283.023         279.532 
       0.165845         262.197          262.07 
       0.171974         252.684         248.523 
       0.178125         241.545         237.583 
       0.184229         229.699         227.884 
        0.19034         221.902         218.113 
       0.196428         211.508         207.676 
       0.202534         197.965          196.51 
       0.208729          189.04         184.986 
       0.214876         179.552         174.065 
       0.220989         167.281         164.308 
       0.227147         161.674         155.894 
        0.23329         154.991         148.873 
       0.239377         149.639          142.96 
       0.245482         143.342         137.637 
       0.251667         137.277         132.453 
       0.257832         133.912         127.217 
       0.263955         127.039         121.869 
       0.270079         121.766         116.465 
        0.27624         115.877         111.162 
       0.282372         111.422         106.212 
        0.28843         108.839         101.771 
       0.294538         104.232         97.7768 
       0.300721         99.7803         94.1753 
        0.30691           97.63         90.8899 
       0.313033         93.9607          87.827 
       0.319153         92.0905         84.8427 
       0.325316         87.8892         81.8643 
        0.33145         84.8781           78.92 
       0.337538         82.2121         76.0595 
       0.343633         79.7307         73.3073 
       0.349808         76.9455         70.6824 
       0.355968         74.4741         68.2509 
       0.362074         72.9218         66.0214 
       0.368217         70.7421         63.9356 
       0.374374         69.2442         61.9623 
       0.380519         66.3951          60.075 
       0.386598         64.4793         58.2614 
       0.392688         62.5739         56.4858 
        0.39888         61.2884         54.7269 
       0.405048         59.7358         53.0306 
       0.411186         58.0973         51.4118 
       0.417313         56.4644         49.8756 
       0.423458         54.8047         48.4156 
       0.429607         53.8592         47.0322 
       0.435692         52.8773         45.7309 
       0.441815         50.9177          44.476 
       0.447964         49.4105         43.2607 
       0.454126         48.5504          42.082 
       0.460267         47.9987         40.9422 
       0.466387         46.6123         39.8409 
        0.47254         45.8688         38.7716 
       0.478662         44.4418         37.7481 
       0.484765         43.5087         36.7682 
       0.490885         42.2732         35.8256 
       0.497035         41.5536         34.9171 
       0.503198          40.642         34.0423 
       0.509342         39.5607          33.201 
       0.515458         39.0462         32.3907 
       0.521598         38.1382         31.6029 
       0.527764         37.6063         30.8365 
       0.533884         36.6859         30.0996 
           0.54         35.9779         29.3868 
       0.546137         34.9083         28.6951 
       0.552299         34.3308         28.0244 
       0.558452         33.6258         27.3783 
       0.564573          33.268          26.757 
       0.570708         32.4166         26.1544 
       0.576825         31.9493         25.5723 
       0.582926         31.3779         25.0095 
       0.589034         30.7734         24.4629 
       0.595184          30.378         23.9289 
       0.601379         29.5632          23.407 
       0.607522         29.1072         22.9048 
       0.613639         28.5935         22.4196 
       0.619772         28.1347         21.9476 
       0.625918         27.5642         21.4889 
       0.632068         27.3197         21.0436 
       0.638161         26.7648         20.6153 
         0.6443         26.3283         20.1961 
       0.650464         25.6817         19.7871 
       0.656582         25.5245         19.3923 
       0.662703         25.2167         19.0081 
       0.668861         24.5422         18.6322 
       0.675024         24.2279         18.2664 
       0.681124         24.1033         17.9142 
       0.687237         23.6079         17.5708 
       0.693381         23.0848          17.235 
       0.699536         22.9871         16.9076 
       0.705665         22.5575         16.5902 
       0.711789          22.142         16.2814 
       0.717957         21.7013         15.9784 
        0.72409         21.5183         15.6849 
       0.730186         21.3979         15.4006 
       0.736317          20.951         15.1219 
       0.742472         20.6913         14.8491 
       0.748622         20.3692         14.5834 
        0.75476         19.8626         14.3249 
       0.760888         19.7816         14.0732 
       0.767043         19.4409         13.8265 
       0.773185         19.2258         13.5864 
       0.779291         19.0729         13.3534 
       0.785407         18.7277         13.1257 
       0.791564         18.5723         12.9018 
       0.797719         18.1857         12.6834 
       0.803834         18.0912         12.4714 
       0.809972         17.7515         12.2636 
       0.816124         17.5562         12.0601 
       0.822261         17.3633         11.8619 
       0.828378         17.1541         11.6687 
       0.834502         16.9817         11.4798 
       0.840667         16.8046         11.2938 
       0.846816          16.445         11.1126 
       0.852925         16.3676         10.9365 
       0.859047         16.1669         10.7639 
       0.865192         15.9443         10.5945 
       0.871341         15.7323         10.4287 
       0.877463         15.5644         10.2672 
       0.883569         15.4629         10.1096 
       0.889708         15.2096         9.95454 
       0.895864         15.0248         9.80236 
       0.902008         14.8459         9.65373 
       0.908149         14.6535          9.5083 
       0.914301         14.5715         9.36566 
       0.920448         14.3606         9.22611 
       0.926574         14.2765         9.08993 
       0.932687         14.0594         8.95682 
       0.938823         13.8804         8.82593 
       0.944975          13.775         8.69738 
       0.951105         13.6013         8.57188 
       0.957225         13.5243          8.4491 
       0.963368         13.3318         8.32834 
       0.969511         13.1917         8.20995 
       0.975621          13.061         8.09453 
       0.981748         12.8816         7.98106 
       0.987916         12.7862         7.86907 
        0.99406         12.6769         7.75967 
        1.00019         12.5657         7.65259 
        1.00632         12.4531         7.54765 
        1.01246         12.3126         7.44454 
        1.01859         12.1736         7.34354 
        1.02471         12.0224         7.24455 
        1.03085         11.9837         7.14707 
        1.03698          11.863          7.0516 
        1.04314         11.7278         6.95748 
        1.04929         11.5693         6.86532 
        1.05541         11.5116         6.77522 
        1.06154         11.4084         6.68653 
        1.06769         11.3452          6.5993 
        1.07382         11.1532         6.51394 
        1.07993         11.0556         6.43029 
        1.08607          11.007         6.34778 
        1.09222         10.8633         6.26664 
        1.09836         10.8357         6.18704 
        1.10449         10.6474         6.10892 
        1.11063         10.6195         6.03207 
        1.11677         10.5396         5.95659 
         1.1229         10.4408         5.88254 
        1.12903         10.3634          5.8097 
        1.13518         10.2093         5.73804 
        1.14131          10.146         5.66764 
        1.14745         10.0154         5.59847 
        1.15359         9.94488         5.53046 
        1.15973         9.85699         5.46356 
        1.16584          9.7861         5.39807 
        1.17197         9.69929         5.33358 
        1.17811         9.61381         5.26995 
        1.18424         9.54556         5.20756 
        1.19038         9.48487           5.146 
        1.19652         9.41061         5.08547 
        1.20267          9.3337         5.02592 
        1.20881         9.23516         4.96735 
        1.21495         9.16387         4.90981 
        1.22108         9.11034          4.8532 
         1.2272         9.02104         4.79763 
        1.23334         8.99954          4.7428 
        1.23949         8.89202         4.68871 
        1.24562         8.82759         4.63562 
        1.25174         8.77484         4.58343 
        1.25789         8.65379          4.5319 
        1.26402         8.62874         4.48126 
        1.27014         8.57719         4.43151 
        1.27628         8.47076         4.38238 
        1.28244         8.45379         4.33391 
        1.28858         8.39321         4.28624 
        1.29471         8.27852          4.2394 
        1.30084         8.21739          4.1933 
        1.30697         8.20457         4.14783 
        1.31312         8.11794         4.10297 
        1.31925         8.06374         4.05892 
        1.32537          8.0151         4.01557 
        1.33151         7.94871          3.9727 
        1.33765         7.88518         3.93049 
        1.34378         7.87327         3.88897 
        1.34992         7.79065         3.84804 
        1.35606         7.73687         3.80761 
         1.3622         7.67667         3.76783 
        1.36833         7.62511         3.72872 
        1.37445         7.56637          3.6902 
        1.38059         7.51988          3.6521 
        1.38675         7.46433         3.61445 
        1.39288         7.41265         3.57749 
        1.39901         7.35168         3.54107 
        1.40515         7.31311         3.50508 
         1.4113         7.25433          3.4696 
        1.41742         7.21982         3.43475 
        1.42355         7.15729         3.40032 
         1.4297         7.12357         3.36627 
        1.43585         7.08231         3.33269 
        1.44198         7.02813         3.29971 
        1.44809           6.994         3.26723 
        1.45423         6.93576         3.23508 
        1.46036         6.89975         3.20342 
        1.46649         6.84895         3.17218 
        1.47263         6.81773         3.14133 
        1.47877         6.76959          3.1109 
        1.48491         6.73606         3.08084 
        1.49104         6.67854         3.05124 
        1.49718         6.65497           3.022 
        1.50333         6.60504         2.99311 
        1.50947         6.54418         2.96466 
         1.5156         6.53248         2.93662 
        1.52172         6.49303         2.90894 
        1.52787          6.4519         2.88157 
          1.534         6.41038         2.85459 
        1.54013         6.37808         2.82798 
        1.54627         6.33333         2.80167 
        1.55241         6.28275         2.77569 
        1.55855         6.27045         2.75008 
        1.56467         6.22506         2.72486 
         1.5708         6.18867         2.69989 
        1.57695         6.13375         2.67519 
        1.58308         6.09754         2.65087 
        1.58922         6.07901         2.62683 
        1.59535         6.04308          2.6031 
         1.6015         5.99472         2.57963 
        1.60764         5.97397         2.55647 
        1.61376         5.94244         2.53365 
        1.61989         5.88725          2.5111 
        1.62604         5.86502         2.48877 
        1.63218         5.83814         2.46673 
        1.63831         5.81473         2.44501 
        1.64444         5.76536         2.42355 
        1.65059          5.7422         2.40229 
        1.65673         5.71167         2.38131 
        1.66285         5.68176         2.36064 
        1.66898         5.64525         2.34022 
        1.67512         5.60884         2.31999 
        1.68127         5.57633         2.29999 
         1.6874         5.55957         2.28027 
        1.69353         5.51238          2.2608 
        1.69967         5.49489          2.2415 
        1.70581         5.45615         2.22245 
        1.71193         5.43409         2.20368 
        1.71806         5.40745          2.1851 
        1.72421         5.37412         2.16669 
        1.73035         5.34578         2.14852 
        1.73649         5.31741         2.13056 
        1.74262         5.28939         2.11282 
        1.74876         5.27438         2.09528 
        1.75489         5.23963         2.07797 
        1.76101         5.20333         2.06086 
        1.76715         5.19457         2.04392 
        1.77329         5.16554         2.02716 
        1.77943         5.12514         2.01057 
        1.78557         5.11266          1.9942 
        1.79171         5.09018         1.97801 
        1.79785         5.06167         1.96199 
        1.80399         5.01844         1.94616 
        1.81012         5.00622         1.93052 
        1.81625         4.97912         1.91506 
        1.82239         4.95945         1.89975 
        1.82853         4.92977         1.88462 
        1.83466         4.89301         1.86966 
        1.84078         4.87377         1.85489 
        1.84692         4.85492         1.84025 
        1.85306         4.83032         1.82575 
         1.8592         4.81627         1.81144 
        1.86533         4.79035         1.79728 
        1.87147         4.76602         1.78326 
        1.87761         4.75232         1.76938 
        1.88375         4.72121         1.75567 
        1.88988         4.69831         1.74212 
        1.89601         4.67243         1.72871 
        1.90215         4.64129         1.71543 
        1.90829         4.63984         1.70229 
        1.91442         4.60401         1.68929 
        1.92056         4.59722         1.67644 
         1.9267         4.56488         1.66372 
        1.93284         4.55903         1.65111 
        1.93897         4.52032         1.63866 
        1.94509         4.49913         1.62637 
        1.95123         4.48412         1.61417 
        1.95737           4.467         1.60209 
        1.96349         4.43436         1.59017 
        1.96964         4.41902         1.57833 
        1.97578          4.4041         1.56661 
        1.98192         4.37585         1.55503 
        1.98805          4.3655         1.54357 
        1.99419         4.34637         1.53222 
        2.00033         4.31052         1.52099 
        2.00647          4.3084         1.50986 
         2.0126         4.28592         1.49887 
        2.01874         4.27372         1.48798 
        2.02488         4.24877         1.47718 
        2.03101         4.22142         1.46651 
        2.03714         4.21255         1.45596 
        2.04328         4.19386         1.44549 
        2.04941         4.17342         1.43514 
        2.05554         4.16198          1.4249 
        2.06167           4.136         1.41475 
        2.06781         4.12312         1.40469 
        2.07396         4.10047         1.39472 
        2.08009         4.09198         1.38487 
        2.08622         4.07363         1.37511 
        2.09237         4.06542         1.36544 
        2.09851         4.03117         1.35586 
        2.10464         4.02071         1.34638 
        2.11077         4.01258         1.33701 
        2.11691         3.98997          1.3277 
        2.12305          3.9686         1.31849 
        2.12918         3.95649         1.30938 
        2.13531         3.93612         1.30036 
        2.14145         3.92674         1.29141 
         2.1476         3.90076         1.28253 
        2.15372         3.88992         1.27378 
        2.15985         3.87633          1.2651 
        2.16599         3.86298         1.25648 
        2.17213         3.84888         1.24794 
        2.17827         3.82356         1.23949 
         2.1844         3.80764         1.23113 
        2.19054         3.79782         1.22284 
        2.19666         3.78378         1.21464 
         2.2028         3.75622          1.2065 
        2.20893         3.75537         1.19844 
        2.21508         3.74235         1.19044 
        2.22122         3.71426         1.18252 
        2.22736         3.70675         1.17468 
        2.23349         3.68907         1.16692 
        2.23962          3.6821         1.15922 
        2.24577         3.65696         1.15158 
         2.2519         3.64835         1.14403 
        2.25802         3.63063         1.13655 
        2.26417         3.61821         1.12912 
        2.27031         3.60297         1.12175 
        2.27644         3.59123         1.11447 
        2.28257         3.57717         1.10726 
        2.28872         3.56484         1.10009 
        2.29486         3.54572         1.09299 
        2.30099         3.53323         1.08597 
        2.30712          3.5237           1.079 
        2.31326          3.5097         1.07209 
         2.3194         3.49509         1.06524 
        2.32553         3.48497         1.05846 
        2.33166         3.47619         1.05174 
         2.3378         3.46058         1.04508 
        2.34394         3.44325         1.03847 
        2.35007         3.42593         1.03192 
        2.35619         3.42059         1.02544 
        2.36233          3.4054         1.01901 
        2.36848         3.39686         1.01261 
        2.37462          3.3848         1.00628 
        2.38075         3.37448         1.00001 
        2.38689         3.36085        0.993795 
        2.39303         3.34806        0.987631 
        2.39916         3.33325        0.981525 
        2.40529          3.3208        0.975471 
        2.41143         3.31516        0.969465 
        2.41757         3.30568        0.963506 
         2.4237         3.28692        0.957609 
        2.42983          3.2832        0.951761 
        2.43598         3.27079        0.945948 
        2.44211         3.25122        0.940192 
        2.44823         3.24189        0.934498 
        2.45437          3.2279        0.928835 
        2.46052         3.21951        0.923215 
        2.46665         3.21101        0.917652 
        2.47279         3.18979        0.912136 
        2.47892          3.1865        0.906662 
        2.48507         3.17487        0.901229 
         2.4912         3.16818         0.89585 
