# k  (h/Mpc)    P(k)  (Mpc/h)^3    P_linear(k)  (Mpc/h)^3
     0.00783031         3048.16          3084.8 
       0.013688         3977.23         3973.48 
       0.019231         4198.66         4199.65 
      0.0249154         4018.86         4060.73 
      0.0312784         3673.06         3689.75 
      0.0375637          3274.7         3273.05 
      0.0433917         2907.71          2930.2 
      0.0492413         2651.62         2658.38 
      0.0555754         2408.99         2440.28 
      0.0619321         2280.64         2273.76 
       0.067871         2112.74          2136.4 
      0.0738098         1970.99         1995.56 
      0.0800417         1801.04         1834.63 
      0.0862327         1645.12         1665.38 
      0.0921407         1497.23         1506.71 
      0.0982031         1346.12         1359.77 
       0.104506         1240.59         1233.59 
       0.110769          1143.6         1137.68 
       0.116806         1066.56         1069.17 
       0.122832         1020.22         1016.47 
       0.129052         961.858         969.222 
       0.135211         914.767         921.678 
       0.141259         871.263          870.06 
       0.147318         819.979          813.33 
       0.153489         755.935         753.513 
       0.159709         704.784         695.842 
       0.165845         665.393          645.62 
       0.171974         619.044         604.318 
       0.178125         588.156         571.794 
       0.184229         565.187         546.566 
        0.19034         533.239         525.527 
       0.196428         521.628          505.85 
       0.202534         505.913         485.191 
       0.208729         480.325         462.261 
       0.214876         452.893         437.844 
       0.220989          436.64         413.145 
       0.227147          408.45         389.421 
        0.23329         389.561         368.214 
       0.239377         376.642         350.297 
       0.245482         354.377         335.384 
       0.251667         348.421         322.756 
       0.257832         337.069         311.658 
       0.263955           325.7         301.133 
       0.270079         314.945         290.367 
        0.27624         308.465          278.98 
       0.282372         295.762         267.211 
        0.28843          284.05         255.538 
       0.294538         272.173         244.241 
       0.300721         266.985         233.721 
        0.30691         254.687         224.365 
       0.313033         247.774         216.257 
       0.319153         237.337         209.093 
       0.325316         232.807         202.504 
        0.33145         225.233         196.239 
       0.337538         221.395          190.05 
       0.343633         214.174         183.777 
       0.349808         207.811         177.346 
       0.355968         203.008         170.987 
       0.362074         196.925         164.894 
       0.368217         191.621         159.129 
       0.374374         185.981         153.802 
       0.380519         181.693         148.943 
       0.386598         177.076         144.535 
       0.392688         174.191         140.407 
        0.39888          169.66         136.397 
       0.405048         166.087         132.498 
       0.411186         162.496         128.651 
       0.417313         158.162         124.849 
       0.423458         154.791         121.099 
       0.429607         150.856         117.457 
       0.435692         146.096         114.014 
       0.441815         144.872         110.741 
       0.447964         142.564         107.649 
       0.454126         136.573          104.74 
       0.460267         134.819         101.994 
       0.466387         132.238         99.3672 
        0.47254         130.145         96.8051 
       0.478662         128.286         94.3176 
       0.484765         124.969         91.8859 
       0.490885         122.653         89.4989 
       0.497035         121.092         87.1687 
       0.503198          117.91         84.9189 
       0.509342         115.413         82.7674 
       0.515458         113.736         80.7183 
       0.521598         112.313         78.7545 
       0.527764         110.424         76.8675 
       0.533884         108.496         75.0638 
           0.54         106.677         73.3167 
       0.546137         105.553         71.6101 
       0.552299         104.036         69.9419 
       0.558452         101.333         68.3205 
       0.564573         99.5747         66.7505 
       0.570708         98.5654         65.2231 
       0.576825         96.7363         63.7498 
       0.582926         95.0696         62.3328 
       0.589034         93.0113         60.9659 
       0.595184         92.0668         59.6372 
       0.601379         91.0435          58.342 
       0.607522         88.8219         57.0955 
       0.613639         88.6884         55.8888 
       0.619772         86.4987         54.7122 
       0.625918          86.006         53.5653 
       0.632068         84.8127         52.4489 
       0.638161         83.5905         51.3727 
         0.6443         82.3496         50.3185 
       0.650464         81.1888         49.2905 
       0.656582         80.4773         48.3002 
       0.662703          78.878         47.3393 
       0.668861         78.0705         46.4013 
       0.675024         77.0218         45.4893 
       0.681124         75.8682         44.6115 
       0.687237         74.6511         43.7547 
       0.693381         74.0512         42.9152 
       0.699536          72.761         42.0951 
       0.705665         73.0717         41.2994 
       0.711789         71.1938         40.5248 
       0.717957         70.6581          39.765 
        0.72409         69.6471         39.0296 
       0.730186         68.5992          38.318 
       0.736317         68.3384         37.6211 
       0.742472         67.2422         36.9394 
       0.748622          66.776         36.2755 
        0.75476         65.9269         35.6294 
       0.760888         65.0267              35 
       0.767043         64.3934          34.383 
       0.773185         63.5498         33.7819 
       0.779291         63.2331         33.1986 
       0.785407          62.609         32.6282 
       0.791564         61.6083         32.0677 
       0.797719          60.707         31.5207 
       0.803834         60.5866         30.9902 
       0.809972         59.6837         30.4703 
       0.816124         58.7771         29.9613 
       0.822261         58.5329         29.4655 
       0.828378         58.0033         28.9825 
       0.834502         57.3245         28.5101 
       0.840667         56.8779         28.0452 
       0.846816          56.125         27.5921 
       0.852925         55.6438         27.1518 
       0.859047         54.9227         26.7202 
       0.865192         54.6788         26.2967 
       0.871341         54.3627         25.8821 
       0.877463         53.2974         25.4783 
       0.883569         52.9655         25.0842 
       0.889708          52.643         24.6965 
       0.895864         52.1537          24.316 
       0.902008         51.7378         23.9444 
       0.908149         51.2938         23.5809 
       0.914301          51.019         23.2243 
       0.920448          50.175         22.8755 
       0.926574         49.9694         22.5351 
       0.932687         49.4737         22.2025 
       0.938823         48.8176         21.8754 
       0.944975         48.6514         21.5541 
       0.951105         48.2227         21.2405 
       0.957225         47.6522         20.9337 
       0.963368         47.4517          20.632 
       0.969511         47.1127         20.3362 
       0.975621          46.744         20.0479 
       0.981748         46.1589         19.7644 
       0.987916         45.9629         19.4846 
        0.99406         45.6101         19.2113 
        1.00019           45.02         18.9439 
        1.00632         44.8746         18.6818 
        1.01246         44.4879         18.4242 
        1.01859         43.9897          18.172 
        1.02471          43.994         17.9248 
        1.03085         43.5399         17.6814 
        1.03698         42.9727         17.4431 
        1.04314         42.6343         17.2081 
        1.04929         42.4379         16.9781 
        1.05541         41.9831         16.7532 
        1.06154         41.8497         16.5318 
        1.06769         41.5122         16.3141 
        1.07382         41.2017         16.1011 
        1.07993         41.0656         15.8924 
        1.08607         40.5586         15.6865 
        1.09222          40.414         15.4841 
        1.09836         39.9677         15.2855 
        1.10449         39.8201         15.0906 
        1.11063         39.2975          14.899 
        1.11677         39.1792         14.7107 
         1.1229         39.0548         14.5261 
        1.12903         38.5356         14.3444 
        1.13518         38.3208         14.1658 
        1.14131         38.2586         13.9903 
        1.14745         37.9056         13.8178 
        1.15359         37.7299         13.6483 
        1.15973         37.3103         13.4815 
        1.16584         37.0008         13.3183 
        1.17197         37.0541         13.1576 
        1.17811         36.5721          12.999 
        1.18424         36.2757         12.8435 
        1.19038         36.2354         12.6901 
        1.19652         35.9808         12.5393 
        1.20267         35.7331          12.391 
        1.20881         35.5158         12.2451 
        1.21495         35.2469         12.1017 
        1.22108         35.0133         11.9607 
         1.2272         34.6578         11.8223 
        1.23334         34.5413         11.6858 
        1.23949          34.304         11.5511 
        1.24562         34.2156         11.4189 
        1.25174         34.0088         11.2889 
        1.25789         33.8043         11.1606 
        1.26402         33.6283         11.0346 
        1.27014         33.3043         10.9107 
        1.27628         33.0792         10.7885 
        1.28244         32.9717         10.6678 
        1.28858         32.8237         10.5492 
        1.29471         32.5648         10.4326 
        1.30084         32.3714          10.318 
        1.30697         32.1559         10.2048 
        1.31312         31.8887         10.0932 
        1.31925         31.7734         9.98368 
        1.32537         31.6652         9.87586 
        1.33151         31.3976         9.76925 
        1.33765         31.3167         9.66428 
        1.34378         31.1881         9.56106 
        1.34992         30.7449         9.45928 
        1.35606         30.7069         9.35877 
         1.3622           30.54         9.25991 
        1.36833         30.3529         9.16271 
        1.37445         30.2973         9.06696 
        1.38059         30.1326         8.97228 
        1.38675         29.8308         8.87874 
        1.39288         29.7565          8.7869 
        1.39901         29.5088         8.69641 
        1.40515         29.3945           8.607 
         1.4113         29.2499         8.51887 
        1.41742         28.9858         8.43232 
        1.42355          28.949         8.34682 
         1.4297          28.755         8.26224 
        1.43585         28.6969         8.17887 
        1.44198         28.3928         8.09697 
        1.44809         28.3337         8.01635 
        1.45423         28.2022         7.93652 
        1.46036         28.1019         7.85793 
        1.46649         27.9132         7.78038 
        1.47263         27.7297         7.70381 
        1.47877         27.6124         7.62831 
        1.48491         27.4583          7.5537 
        1.49104         27.4158         7.48024 
        1.49718         27.1609         7.40771 
        1.50333          27.068         7.33603 
        1.50947         26.9726         7.26544 
         1.5156         26.7599         7.19589 
        1.52172         26.5621         7.12725 
        1.52787         26.5482         7.05937 
          1.534         26.3769         6.99246 
        1.54013         26.1814         6.92648 
        1.54627         26.1198         6.86124 
        1.55241         25.9393         6.79683 
        1.55855         25.8503         6.73334 
        1.56467         25.7596         6.67084 
         1.5708         25.6355         6.60895 
        1.57695         25.3907         6.54776 
        1.58308         25.4148         6.48748 
        1.58922           25.25         6.42792 
        1.59535          25.088         6.36913 
         1.6015         24.9742           6.311 
        1.60764         24.9203         6.25362 
        1.61376         24.8014         6.19711 
        1.61989         24.5595         6.14126 
        1.62604         24.5614         6.08597 
        1.63218         24.3832          6.0314 
        1.63831         24.3184         5.97762 
        1.64444         24.1449         5.92448 
        1.65059         24.0552         5.87186 
        1.65673         23.9682         5.81993 
        1.66285         23.8264         5.76878 
        1.66898         23.7464         5.71823 
        1.67512         23.6439         5.66818 
        1.68127         23.4682         5.61869 
         1.6874         23.3873          5.5699 
        1.69353         23.3653         5.52172 
        1.69967         23.1514         5.47399 
        1.70581         23.0341         5.42685 
        1.71193         22.9221         5.38044 
        1.71806          22.884         5.33448 
        1.72421          22.765         5.28896 
        1.73035         22.7002         5.24403 
        1.73649         22.5362         5.19962 
        1.74262         22.5015         5.15577 
        1.74876          22.362         5.11239 
        1.75489          22.269         5.06961 
        1.76101         22.1665         5.02732 
        1.76715         22.1379         4.98546 
        1.77329         22.0156         4.94403 
        1.77943         21.8802         4.90304 
        1.78557         21.7818         4.86259 
        1.79171         21.7343         4.82258 
        1.79785         21.6038         4.78302 
        1.80399         21.5243         4.74391 
        1.81012         21.4298         4.70528 
        1.81625          21.325         4.66711 
        1.82239         21.2688          4.6293 
        1.82853         21.1016         4.59193 
        1.83466         21.0476         4.55501 
        1.84078         20.8971         4.51853 
        1.84692         20.8765         4.48239 
        1.85306         20.7585         4.44661 
         1.8592         20.7054         4.41127 
        1.86533         20.6083         4.37634 
        1.87147         20.5145         4.34174 
        1.87761         20.4588          4.3075 
        1.88375         20.3099         4.27368 
        1.88988         20.2808         4.24025 
        1.89601         20.1913         4.20716 
        1.90215         20.0798          4.1744 
        1.90829         20.0309           4.142 
        1.91442         19.9238         4.10995 
        1.92056         19.8597         4.07826 
         1.9267         19.7852         4.04687 
        1.93284         19.6765          4.0158 
        1.93897         19.5861         3.98511 
        1.94509         19.5243          3.9548 
        1.95123         19.4399         3.92474 
        1.95737         19.3403         3.89496 
        1.96349         19.2769         3.86557 
        1.96964         19.1924          3.8364 
        1.97578         19.1265         3.80752 
        1.98192         19.0163         3.77899 
        1.98805         18.9681         3.75075 
        1.99419         18.8755          3.7228 
        2.00033         18.8078         3.69512 
        2.00647         18.7713         3.66773 
         2.0126         18.5993         3.64066 
        2.01874         18.5614         3.61383 
        2.02488         18.4743         3.58724 
        2.03101         18.4701         3.56097 
        2.03714         18.3633         3.53498 
        2.04328         18.2672         3.50923 
        2.04941         18.1978         3.48375 
        2.05554         18.1802         3.45854 
        2.06167         18.0898         3.43355 
        2.06781          18.006          3.4088 
        2.07396         17.9297         3.38427 
        2.08009          17.861         3.36001 
        2.08622         17.7841         3.33602 
        2.09237         17.7242         3.31222 
        2.09851         17.6441         3.28864 
        2.10464          17.576         3.26534 
        2.11077         17.5114         3.24228 
        2.11691         17.4321          3.2194 
        2.12305         17.3576         3.19674 
        2.12918         17.3097         3.17435 
        2.13531         17.2375         3.15217 
        2.14145         17.1647         3.13016 
         2.1476         17.1014         3.10833 
        2.15372         17.0551         3.08681 
        2.15985         16.9572         3.06548 
        2.16599          16.915         3.04429 
        2.17213         16.8751         3.02332 
        2.17827          16.806         3.00255 
         2.1844         16.7371           2.982 
        2.19054         16.6426         2.96163 
        2.19666         16.5993         2.94149 
         2.2028         16.5317         2.92151 
        2.20893         16.4677          2.9017 
        2.21508         16.4181         2.88206 
        2.22122         16.3164          2.8626 
        2.22736         16.2686         2.84335 
        2.23349         16.1995         2.82428 
        2.23962         16.1707         2.80538 
        2.24577         16.0818         2.78664 
         2.2519         16.0395         2.76809 
        2.25802         15.9761         2.74974 
        2.26417         15.9152         2.73151 
        2.27031         15.8669         2.71342 
        2.27644         15.8103         2.69555 
        2.28257         15.7558         2.67785 
        2.28872         15.6718         2.66027 
        2.29486         15.6483         2.64284 
        2.30099         15.5871         2.62562 
        2.30712         15.5334         2.60853 
        2.31326         15.4702         2.59157 
         2.3194         15.3642         2.57477 
        2.32553         15.3594         2.55815 
        2.33166          15.259         2.54168 
         2.3378         15.2307         2.52533 
        2.34394         15.1572         2.50912 
        2.35007         15.0827         2.49308 
        2.35619         15.0565          2.4772 
        2.36233         14.9924         2.46142 
        2.36848         14.9719         2.44574 
        2.37462         14.9062         2.43023 
        2.38075         14.8308         2.41487 
        2.38689         14.7907         2.39963 
        2.39303         14.7449         2.38453 
        2.39916         14.6808         2.36957 
        2.40529         14.6456         2.35474 
        2.41143         14.5697         2.34002 
        2.41757         14.5398         2.32542 
         2.4237         14.4527         2.31098 
        2.42983         14.4331         2.29666 
        2.43598         14.3691         2.28242 
        2.44211         14.2947         2.26833 
        2.44823         14.2621         2.25439 
        2.45437         14.2263         2.24052 
        2.46052         14.1843         2.22676 
        2.46665         14.1093         2.21314 
        2.47279         14.0734         2.19964 
        2.47892         14.0102         2.18625 
        2.48507          13.964         2.17295 
         2.4912           13.93         2.15979 
