# k  (h/Mpc)    Pcb(k)  (Mpc/h)^3    Pcb_linear(k)  (Mpc/h)^3
     0.00783031         8142.81         8241.58 
       0.013688         10678.1         10615.8 
       0.019231         11226.1         11221.4 
      0.0249154         10667.7         10851.2 
      0.0312784         9763.44         9860.58 
      0.0375637         8723.19         8747.41 
      0.0433917         7694.89         7831.37 
      0.0492413         7038.43         7105.06 
      0.0555754         6340.26         6522.28 
      0.0619321         6059.06         6077.29 
       0.067871         5558.31         5710.21 
      0.0738098         5184.25         5333.81 
      0.0800417         4714.15         4903.73 
      0.0862327         4322.63         4451.37 
      0.0921407         3958.55         4027.29 
      0.0982031         3557.31         3634.54 
       0.104506         3313.02          3297.3 
       0.110769          3055.4         3040.94 
       0.116806         2853.93         2857.81 
       0.122832         2726.88         2716.97 
       0.129052         2552.22         2590.68 
       0.135211         2432.54          2463.6 
       0.141259         2329.58         2325.63 
       0.147318         2199.42            2174 
       0.153489         2024.66         2014.11 
       0.159709         1907.79         1859.96 
       0.165845         1821.37         1725.72 
       0.171974         1706.06         1615.32 
       0.178125         1621.44         1528.39 
       0.184229         1558.98         1460.96 
        0.19034         1466.14         1404.72 
       0.196428         1443.94         1352.13 
       0.202534          1398.6         1296.91 
       0.208729         1334.01         1235.61 
       0.214876            1268         1170.35 
       0.220989         1228.92         1104.33 
       0.227147         1163.15         1040.91 
        0.23329         1115.82         984.231 
       0.239377         1093.24          936.34 
       0.245482         1023.21         896.479 
       0.251667         1015.61         862.724 
       0.257832         979.932         833.059 
       0.263955         949.412         804.924 
       0.270079         918.496         776.149 
        0.27624         908.709         745.713 
       0.282372         869.677         714.254 
        0.28843         853.172         683.051 
       0.294538         812.292         652.854 
       0.300721         808.531         624.736 
        0.30691         772.441         599.727 
       0.313033         757.818         578.054 
       0.319153         737.903         558.906 
       0.325316         715.791         541.291 
        0.33145         697.414         524.545 
       0.337538         689.454         508.002 
       0.343633         668.736         491.233 
       0.349808         647.637         474.045 
       0.355968         642.968          457.05 
       0.362074          631.41         440.761 
       0.368217         614.315         425.352 
       0.374374         590.526         411.112 
       0.380519         586.343         398.124 
       0.386598         572.996         386.343 
       0.392688         570.334         375.308 
        0.39888         553.842         364.589 
       0.405048         544.104         354.165 
       0.411186         534.375         343.884 
       0.417313         524.906         333.723 
       0.423458         516.366         323.699 
       0.429607           506.1         313.962 
       0.435692         494.816          304.76 
       0.441815         491.839         296.012 
       0.447964         482.082         287.747 
       0.454126         468.471          279.97 
       0.460267          462.62          272.63 
       0.466387         457.535         265.608 
        0.47254           448.5          258.76 
       0.478662         447.267         252.111 
       0.484765          434.59         245.611 
       0.490885         430.133         239.231 
       0.497035         422.894         233.002 
       0.503198         415.544         226.988 
       0.509342         412.443         221.237 
       0.515458         408.304         215.761 
       0.521598         400.864         210.511 
       0.527764         393.295         205.467 
       0.533884         390.822         200.646 
           0.54         385.663         195.975 
       0.546137         384.379         191.414 
       0.552299         376.767         186.955 
       0.558452         373.868         182.621 
       0.564573         367.892         178.424 
       0.570708         362.147         174.342 
       0.576825         356.452         170.404 
       0.582926         354.029         166.616 
       0.589034         350.257         162.962 
       0.595184         347.131          159.41 
       0.601379          343.76         155.948 
       0.607522         337.814         152.616 
       0.613639         336.578         149.391 
       0.619772         328.381         146.246 
       0.625918         327.312          143.18 
       0.632068         322.917         140.196 
       0.638161         321.696         137.319 
         0.6443         316.018         134.501 
       0.650464         313.652         131.754 
       0.656582         312.436         129.107 
       0.662703         309.375         126.538 
       0.668861         304.279         124.031 
       0.675024         301.405         121.593 
       0.681124         300.296         119.247 
       0.687237         296.469         116.956 
       0.693381         292.372         114.712 
       0.699536         290.176         112.521 
       0.705665         288.724         110.394 
       0.711789         285.039         108.323 
       0.717957         283.249         106.292 
        0.72409         280.301         104.326 
       0.730186         277.268         102.424 
       0.736317         274.855         100.561 
       0.742472         273.729         98.7392 
       0.748622         271.516         96.9646 
        0.75476         269.231         95.2377 
       0.760888         265.657          93.555 
       0.767043          265.23         91.9058 
       0.773185         262.023         90.2993 
       0.779291          257.76           88.74 
       0.785407         257.163         87.2153 
       0.791564         254.799          85.717 
       0.797719         252.297         84.2551 
       0.803834         250.984          82.837 
       0.809972          248.76         81.4471 
       0.816124         249.114         80.0866 
       0.822261         244.978         78.7613 
       0.828378          243.45         77.4704 
       0.834502         243.154         76.2076 
       0.840667         239.165          74.965 
       0.846816         238.219         73.7537 
       0.852925         236.544         72.5769 
       0.859047         234.711         71.4233 
       0.865192         233.092         70.2912 
       0.871341         230.715         69.1829 
       0.877463         229.423         68.1036 
       0.883569         227.731         67.0502 
       0.889708         226.034         66.0138 
       0.895864         223.397         64.9968 
       0.902008         222.876         64.0035 
       0.908149         221.744         63.0317 
       0.914301         219.246         62.0787 
       0.920448         217.626         61.1463 
       0.926574         216.646         60.2366 
       0.932687         215.898         59.3473 
       0.938823         213.484          58.473 
       0.944975          211.91         57.6143 
       0.951105         211.017         56.7761 
       0.957225         208.681          55.956 
       0.963368         206.728         55.1494 
       0.969511           205.9         54.3588 
       0.975621         204.521          53.588 
       0.981748         204.368         52.8303 
       0.987916         201.749         52.0824 
        0.99406         200.569          51.352 
        1.00019         200.152          50.637 
        1.00632         198.281         49.9364 
        1.01246         197.078         49.2481 
        1.01859         195.794         48.5739 
        1.02471           194.7         47.9132 
        1.03085         192.576         47.2626 
        1.03698         191.458         46.6254 
        1.04314          190.42         45.9974 
        1.04929         188.874         45.3825 
        1.05541         188.303         44.7813 
        1.06154         186.926         44.1896 
        1.06769         186.733         43.6077 
        1.07382         185.315         43.0383 
        1.07993         183.797         42.4803 
        1.08607         182.646         41.9301 
        1.09222         181.701          41.389 
        1.09836         180.099         40.8582 
        1.10449         178.756         40.3373 
        1.11063         177.661          39.825 
        1.11677         177.254         39.3218 
         1.1229          175.41         38.8282 
        1.12903         174.657         38.3427 
        1.13518         174.314         37.8652 
        1.14131         172.575          37.396 
        1.14745         172.006         36.9351 
        1.15359         170.651         36.4819 
        1.15973         170.372         36.0362 
        1.16584         168.579         35.5999 
        1.17197         167.881         35.1703 
        1.17811          166.97         34.7464 
        1.18424         165.956         34.3308 
        1.19038         165.377         33.9208 
        1.19652         164.264         33.5177 
        1.20267         163.292         33.1212 
        1.20881         162.128         32.7311 
        1.21495         161.285          32.348 
        1.22108         160.637         31.9711 
         1.2272         159.328         31.6011 
        1.23334         158.492         31.2361 
        1.23949         156.844          30.876 
        1.24562         156.642         30.5227 
        1.25174         154.837         30.1754 
        1.25789         154.452         29.8324 
        1.26402         153.802         29.4954 
        1.27014         152.713         29.1645 
        1.27628         152.057         28.8376 
        1.28244         151.302         28.5151 
        1.28858          150.56         28.1981 
        1.29471         148.982         27.8865 
        1.30084         148.417           27.58 
        1.30697         147.686         27.2776 
        1.31312          147.35         26.9793 
        1.31925         145.999         26.6864 
        1.32537         145.562         26.3982 
        1.33151         144.006         26.1132 
        1.33765         143.689         25.8327 
        1.34378         142.645         25.5568 
        1.34992         142.419         25.2847 
        1.35606         141.393          25.016 
         1.3622         140.538         24.7518 
        1.36833         139.723          24.492 
        1.37445          138.73          24.236 
        1.38059         138.545          23.983 
        1.38675         137.352         23.7329 
        1.39288         136.889         23.4874 
        1.39901         136.336         23.2456 
        1.40515         135.527         23.0065 
         1.4113         134.015          22.771 
        1.41742         133.959         22.5396 
        1.42355          132.92         22.3111 
         1.4297         132.162          22.085 
        1.43585         131.186         21.8622 
        1.44198         131.069         21.6432 
        1.44809         129.944         21.4277 
        1.45423         128.996         21.2144 
        1.46036         128.785         21.0043 
        1.46649          128.09          20.797 
        1.47263         127.564         20.5923 
        1.47877         126.836         20.3905 
        1.48491         125.812         20.1911 
        1.49104         125.212         19.9947 
        1.49718         124.327         19.8009 
        1.50333         123.824         19.6092 
        1.50947         123.059         19.4206 
         1.5156         122.681         19.2347 
        1.52172         121.752         19.0512 
        1.52787         121.468         18.8697 
          1.534         120.772         18.6909 
        1.54013         119.805         18.5145 
        1.54627         119.257         18.3401 
        1.55241          118.65          18.168 
        1.55855         118.199         17.9983 
        1.56467         117.489         17.8312 
         1.5708         116.738         17.6658 
        1.57695         116.434         17.5022 
        1.58308         115.321         17.3411 
        1.58922         115.283         17.1819 
        1.59535          114.55         17.0247 
         1.6015         113.995         16.8693 
        1.60764         113.226         16.7159 
        1.61376          112.82         16.5649 
        1.61989         112.224         16.4156 
        1.62604         111.473         16.2678 
        1.63218         111.168         16.1219 
        1.63831         110.335         15.9782 
        1.64444         109.837         15.8362 
        1.65059         109.134         15.6955 
        1.65673         108.412         15.5567 
        1.66285         108.259           15.42 
        1.66898         107.414         15.2848 
        1.67512         106.904         15.1511 
        1.68127         106.277         15.0188 
         1.6874         105.721         14.8884 
        1.69353         105.187         14.7596 
        1.69967         104.651          14.632 
        1.70581         104.224          14.506 
        1.71193          103.82         14.3819 
        1.71806         102.892         14.2591 
        1.72421         102.638         14.1374 
        1.73035         101.908         14.0173 
        1.73649         101.414         13.8986 
        1.74262         100.954         13.7814 
        1.74876          100.48         13.6654 
        1.75489         99.7466         13.5511 
        1.76101         99.4613          13.438 
        1.76715         98.7594         13.3262 
        1.77329         98.4219         13.2154 
        1.77943         97.8981         13.1059 
        1.78557         97.4853         12.9977 
        1.79171         96.8454         12.8908 
        1.79785         96.4243          12.785 
        1.80399          95.972         12.6805 
        1.81012          95.539         12.5772 
        1.81625         94.8762         12.4752 
        1.82239         94.5303         12.3741 
        1.82853         94.2277         12.2742 
        1.83466         93.4747         12.1756 
        1.84078         93.2422          12.078 
        1.84692         92.5146         11.9815 
        1.85306         92.0314         11.8858 
         1.8592         91.4447         11.7913 
        1.86533         91.1327          11.698 
        1.87147          90.408         11.6055 
        1.87761         90.1687          11.514 
        1.88375         89.8403         11.4235 
        1.88988         89.2966         11.3342 
        1.89601         88.7876         11.2458 
        1.90215         88.4453         11.1582 
        1.90829         88.0106         11.0716 
        1.91442         87.5143         10.9859 
        1.92056         86.9712         10.9012 
         1.9267          86.656         10.8173 
        1.93284         85.9004         10.7342 
        1.93897         85.6468         10.6522 
        1.94509         85.1434         10.5712 
        1.95123         84.7365         10.4908 
        1.95737         84.6398         10.4113 
        1.96349         83.9555         10.3327 
        1.96964         83.3933         10.2547 
        1.97578         83.2695         10.1775 
        1.98192          82.717         10.1013 
        1.98805         82.3272         10.0258 
        1.99419         81.7286         9.95106 
        2.00033         81.5208         9.87707 
        2.00647         81.1353         9.80385 
         2.0126         80.5528          9.7315 
        2.01874         80.1154         9.65977 
        2.02488         79.9248          9.5887 
        2.03101         79.5498         9.51847 
        2.03714           78.91         9.44901 
        2.04328         78.6535         9.38017 
        2.04941         78.0804         9.31207 
        2.05554         77.8101          9.2447 
        2.06167         77.5276          9.1779 
        2.06781         77.0435         9.11175 
        2.07396         76.6443         9.04615 
        2.08009          76.342         8.98132 
        2.08622         75.9368         8.91719 
        2.09237         75.5855         8.85357 
        2.09851         75.2986         8.79055 
        2.10464           74.82         8.72825 
        2.11077         74.3284         8.66663 
        2.11691         74.0975         8.60547 
        2.12305         73.6861         8.54489 
        2.12918         73.3108         8.48505 
        2.13531         72.9436         8.42577 
        2.14145         72.5249         8.36692 
         2.1476         72.3351         8.30856 
        2.15372         71.9372         8.25106 
        2.15985         71.5052         8.19404 
        2.16599         71.1651         8.13739 
        2.17213         70.8296         8.08134 
        2.17827         70.4907         8.02584 
         2.1844          69.988          7.9709 
        2.19054         69.7097         7.91646 
        2.19666         69.4395          7.8626 
         2.2028          69.233          7.8092 
        2.20893         68.8114         7.75626 
        2.21508          68.405         7.70376 
        2.22122         68.2328         7.65173 
        2.22736         67.7583         7.60028 
        2.23349         67.4907         7.54932 
        2.23962         67.0417          7.4988 
        2.24577         66.6559          7.4487 
         2.2519         66.4458         7.39912 
        2.25802          66.107         7.35007 
        2.26417         65.7233         7.30133 
        2.27031         65.5013         7.25299 
        2.27644          65.076         7.20522 
        2.28257         64.7754         7.15789 
        2.28872          64.533          7.1109 
        2.29486          64.248         7.06433 
        2.30099         63.8955         7.01828 
        2.30712         63.6082         6.97261 
        2.31326         63.1903         6.92728 
         2.3194         63.0126         6.88237 
        2.32553         62.5758         6.83794 
        2.33166         62.2497         6.79392 
         2.3378         61.9629         6.75022 
        2.34394         61.5147          6.7069 
        2.35007         61.3191         6.66401 
        2.35619         61.0934         6.62156 
        2.36233         60.8877         6.57937 
        2.36848         60.4363         6.53746 
        2.37462         60.1878         6.49601 
        2.38075         59.9357         6.45495 
        2.38689         59.6603         6.41422 
        2.39303         59.4218         6.37384 
        2.39916         59.2245         6.33385 
        2.40529         58.8078         6.29421 
        2.41143         58.5128         6.25488 
        2.41757           58.25         6.21587 
         2.4237         57.9502         6.17726 
        2.42983         57.6059         6.13898 
        2.43598         57.3365         6.10092 
        2.44211         57.0729         6.06325 
        2.44823         56.8329         6.02598 
        2.45437         56.4876         5.98892 
        2.46052          56.169         5.95214 
        2.46665         55.9611         5.91574 
        2.47279         55.7299         5.87965 
        2.47892         55.5363         5.84384 
        2.48507         55.1849         5.80829 
         2.4912         55.0145         5.77311 
