# k  (h/Mpc)    P(k)  (Mpc/h)^3    P_linear(k)  (Mpc/h)^3
     0.00783031         14916.3         14977.9 
       0.013688         18158.5         18641.5 
       0.019231         18853.8         19158.5 
      0.0249154         18093.1         18091.8 
      0.0312784         15879.3         16098.4 
      0.0375637           13749         14061.2 
      0.0433917         12318.5         12457.5 
      0.0492413         10987.4         11212.7 
      0.0555754         10075.8         10216.8 
      0.0619321         9018.92          9444.8 
       0.067871          8525.9         8799.32 
      0.0738098         7964.36         8142.88 
      0.0800417         7267.11          7413.6 
      0.0862327         6521.76         6673.67 
      0.0921407         5915.11         6003.45 
      0.0982031         5411.18         5400.77 
       0.104506         4848.47         4894.79 
       0.110769         4505.49          4513.5 
       0.116806         4308.15         4237.17 
       0.122832         4046.44         4015.81 
       0.129052         3826.16         3807.85 
       0.135211         3701.07         3595.46 
       0.141259         3426.88         3369.99 
       0.147318         3172.67         3131.87 
       0.153489         2987.83         2891.18 
       0.159709         2864.96         2667.64 
       0.165845         2619.49         2478.11 
       0.171974         2549.67         2323.87 
       0.178125         2466.45         2200.77 
       0.184229         2276.29         2101.17 
        0.19034         2243.26          2013.2 
       0.196428         2178.56         1927.82 
       0.202534         2049.16         1838.67 
       0.208729         2006.46         1743.35 
       0.214876         1916.93         1646.57 
       0.220989         1822.34         1552.82 
       0.227147         1772.25          1465.6 
        0.23329         1703.22         1388.86 
       0.239377         1692.83         1323.66 
       0.245482         1613.95         1267.72 
       0.251667         1555.24         1217.98 
       0.257832         1530.74         1172.16 
       0.263955         1463.16         1127.75 
       0.270079         1425.94            1083 
        0.27624          1367.2         1037.43 
       0.282372         1351.47         992.333 
        0.28843         1327.46         949.296 
       0.294538         1268.03          908.63 
       0.300721          1244.5         871.059 
        0.30691         1214.51         837.174 
       0.313033          1169.4         806.927 
       0.319153         1157.12         779.125 
       0.325316         1142.77         752.724 
        0.33145         1118.08         727.289 
       0.337538          1082.1         702.491 
       0.343633         1057.57         678.009 
       0.349808         1038.53         653.774 
       0.355968         1018.04         630.473 
       0.362074         987.802         608.548 
       0.368217         984.848         587.878 
       0.374374         970.074          568.55 
       0.380519         936.517         550.549 
       0.386598         931.845         533.766 
       0.392688         908.811         517.737 
        0.39888         890.161         502.039 
       0.405048         873.384         486.851 
       0.411186         870.859         472.153 
       0.417313         866.918         457.922 
       0.423458         840.411         444.151 
       0.429607         817.993         430.952 
       0.435692         811.523         418.508 
       0.441815         795.994         406.589 
       0.447964         787.102         395.203 
       0.454126         776.821         384.314 
       0.460267          767.04         373.898 
       0.466387         754.338         363.887 
        0.47254         741.985         354.154 
       0.478662         732.349         344.772 
       0.484765          724.74         335.712 
       0.490885         716.864         326.934 
       0.497035          703.67         318.433 
       0.503198          702.99         310.239 
       0.509342         689.757         302.385 
       0.515458         676.354         294.869 
       0.521598         674.693         287.608 
       0.527764          659.33         280.573 
       0.533884         653.053         273.822 
           0.54         648.146         267.291 
       0.546137         638.948         260.942 
       0.552299         635.238         254.766 
       0.558452         627.657         248.794 
       0.564573         623.067         243.041 
       0.570708         616.743         237.463 
       0.576825         604.285         232.086 
       0.582926         602.902           226.9 
       0.589034         594.549         221.872 
       0.595184         588.655         216.968 
       0.601379         579.786          212.18 
       0.607522         571.172         207.575 
       0.613639         570.547         203.125 
       0.619772         566.722         198.794 
       0.625918         557.172          194.58 
       0.632068         554.526         190.485 
       0.638161         547.804         186.546 
         0.6443         541.827         182.692 
       0.650464         537.672         178.935 
       0.656582         533.527         175.314 
       0.662703         527.584         171.795 
       0.668861         521.411         168.353 
       0.675024         518.812         165.004 
       0.681124         509.275         161.779 
       0.687237         509.361         158.634 
       0.693381         501.135         155.559 
       0.699536         501.226          152.56 
       0.705665         494.417         149.654 
       0.711789          493.24         146.827 
       0.717957         486.463         144.055 
        0.72409         482.257         141.371 
       0.730186         482.063         138.773 
       0.736317         474.934         136.226 
       0.742472         469.907         133.734 
       0.748622         468.226         131.308 
        0.75476         462.843         128.947 
       0.760888         460.406         126.649 
       0.767043         457.735         124.398 
       0.773185         454.162         122.206 
       0.779291         449.125         120.081 
       0.785407         445.917         118.004 
       0.791564         443.479         115.963 
       0.797719         436.814         113.972 
       0.803834         438.276         112.041 
       0.809972         431.426         110.148 
       0.816124         428.199         108.295 
       0.822261         425.645          106.49 
       0.828378         423.557         104.732 
       0.834502         416.912         103.012 
       0.840667         416.721          101.32 
       0.846816         411.457         99.6717 
       0.852925         411.711         98.0703 
       0.859047         407.465         96.5009 
       0.865192         405.175         94.9611 
       0.871341         400.091          93.454 
       0.877463         399.045         91.9867 
       0.883569         395.257         90.5548 
       0.889708          391.35         89.1462 
       0.895864         387.557         87.7642 
       0.902008         386.736         86.4147 
       0.908149         383.101         85.0944 
       0.914301         381.805         83.7999 
       0.920448         377.639         82.5336 
       0.926574         375.641         81.2981 
       0.932687         374.521         80.0907 
       0.938823         369.925         78.9036 
       0.944975         368.879          77.738 
       0.951105         365.856         76.6003 
       0.957225         361.067         75.4875 
       0.963368         361.866         74.3931 
       0.969511         356.082         73.3206 
       0.975621         354.851         72.2752 
       0.981748         353.245         71.2476 
       0.987916         351.117         70.2336 
        0.99406         347.679         69.2434 
        1.00019         344.279         68.2743 
        1.00632         343.885         67.3248 
        1.01246         340.964         66.3921 
        1.01859         337.663         65.4787 
        1.02471         335.827         64.5837 
        1.03085         334.506         63.7025 
        1.03698         332.611         62.8397 
        1.04314         330.715         61.9894 
        1.04929          328.85         61.1568 
        1.05541         324.939          60.343 
        1.06154         323.499         59.5421 
        1.06769         320.597         58.7546 
        1.07382         318.578          57.984 
        1.07993          317.45          57.229 
        1.08607         315.557         56.4845 
        1.09222         312.729         55.7525 
        1.09836         311.497         55.0344 
        1.10449         309.202         54.3299 
        1.11063         307.459          53.637 
        1.11677         303.994         52.9564 
         1.1229         303.653         52.2889 
        1.12903         300.857         51.6324 
        1.13518         298.977         50.9867 
        1.14131         297.789         50.3524 
        1.14745          294.55         49.7292 
        1.15359         292.467         49.1166 
        1.15973         291.221          48.514 
        1.16584         289.632         47.9243 
        1.17197         287.747         47.3437 
        1.17811         284.848         46.7709 
        1.18424         283.852         46.2093 
        1.19038         282.305         45.6553 
        1.19652         279.383         45.1107 
        1.20267         278.647          44.575 
        1.20881         276.876         44.0482 
        1.21495           275.2         43.5307 
        1.22108         273.579         43.0217 
         1.2272         270.003         42.5221 
        1.23334         269.284         42.0293 
        1.23949         267.794         41.5432 
        1.24562         266.511         41.0661 
        1.25174         264.753         40.5973 
        1.25789          262.38         40.1345 
        1.26402         261.811         39.6797 
        1.27014         260.448         39.2331 
        1.27628         258.164         38.7921 
        1.28244         256.319         38.3571 
        1.28858         255.327         37.9293 
        1.29471         253.728          37.509 
        1.30084         252.964         37.0956 
        1.30697         250.037         36.6877 
        1.31312         248.667         36.2854 
        1.31925         247.449         35.8905 
        1.32537         246.484         35.5018 
        1.33151         244.301         35.1175 
        1.33765         242.467         34.7392 
        1.34378         241.516         34.3672 
        1.34992         239.219         34.0004 
        1.35606         238.305         33.6382 
         1.3622         236.577         33.2819 
        1.36833         235.809         32.9316 
        1.37445         234.852         32.5866 
        1.38059         232.032         32.2455 
        1.38675         230.771         31.9085 
        1.39288         230.011         31.5777 
        1.39901         227.872         31.2517 
        1.40515         226.955         30.9295 
         1.4113         225.339         30.6121 
        1.41742           223.5         30.3003 
        1.42355         223.253         29.9923 
         1.4297         221.522         29.6877 
        1.43585           220.1         29.3874 
        1.44198         218.601         29.0925 
        1.44809         217.703         28.8021 
        1.45423         216.344         28.5147 
        1.46036         215.258         28.2317 
        1.46649         213.816         27.9525 
        1.47263         212.548         27.6769 
        1.47877         211.183          27.405 
        1.48491          209.57         27.1365 
        1.49104         207.844         26.8721 
        1.49718         207.372          26.611 
        1.50333         205.504         26.3531 
        1.50947          204.61          26.099 
         1.5156         203.478         25.8487 
        1.52172         202.224         25.6018 
        1.52787         200.877         25.3575 
          1.534         200.451         25.1167 
        1.54013          198.69         24.8794 
        1.54627         197.773         24.6447 
        1.55241         196.742         24.4129 
        1.55855         195.466         24.1845 
        1.56467         194.425         23.9597 
         1.5708         192.817         23.7371 
        1.57695         192.104          23.517 
        1.58308         190.908         23.3002 
        1.58922         189.514          23.086 
        1.59535         188.191         22.8745 
         1.6015         187.592         22.6655 
        1.60764         186.032         22.4591 
        1.61376         184.808         22.2559 
        1.61989         183.721          22.055 
        1.62604         182.885         21.8562 
        1.63218         181.664         21.6599 
        1.63831         181.121         21.4666 
        1.64444         179.429         21.2755 
        1.65059         178.614         21.0862 
        1.65673         177.481         20.8995 
        1.66285         176.546         20.7156 
        1.66898         175.562         20.5338 
        1.67512         174.461         20.3539 
        1.68127          173.63          20.176 
         1.6874         172.417         20.0006 
        1.69353         171.773         19.8274 
        1.69967         170.286         19.6558 
        1.70581         169.824         19.4863 
        1.71193         168.549         19.3195 
        1.71806         167.293         19.1543 
        1.72421         166.517         18.9907 
        1.73035         165.422         18.8292 
        1.73649         164.288         18.6697 
        1.74262         163.669         18.5121 
        1.74876         162.822         18.3562 
        1.75489         162.191         18.2024 
        1.76101         160.874         18.0505 
        1.76715         159.852         17.9001 
        1.77329         158.716         17.7512 
        1.77943         157.827         17.6039 
        1.78557         157.044         17.4586 
        1.79171         156.396         17.3148 
        1.79785         155.184         17.1727 
        1.80399          154.39         17.0322 
        1.81012         153.798         16.8934 
        1.81625         152.329         16.7563 
        1.82239          151.89         16.6205 
        1.82853         150.977         16.4862 
        1.83466         149.596         16.3536 
        1.84078         149.303         16.2226 
        1.84692          148.45         16.0928 
        1.85306         147.306         15.9643 
         1.8592         146.826         15.8373 
        1.86533         145.411         15.7119 
        1.87147         144.672         15.5876 
        1.87761         144.047         15.4646 
        1.88375         142.827         15.3431 
        1.88988         142.437         15.2231 
        1.89601         141.898         15.1042 
        1.90215         141.116         14.9866 
        1.90829         139.738         14.8702 
        1.91442         139.105         14.7551 
        1.92056         138.405         14.6413 
         1.9267         137.614         14.5285 
        1.93284         136.521          14.417 
        1.93897         136.135         14.3067 
        1.94509         135.128         14.1979 
        1.95123         134.502           14.09 
        1.95737         133.978          13.983 
        1.96349         132.931         13.8775 
        1.96964         132.135         13.7728 
        1.97578         131.362         13.6691 
        1.98192         130.886         13.5666 
        1.98805         130.032         13.4653 
        1.99419         128.916         13.3649 
        2.00033         128.495         13.2655 
        2.00647         127.875         13.1672 
         2.0126         126.953           13.07 
        2.01874         126.324         12.9737 
        2.02488         125.615         12.8782 
        2.03101         125.187         12.7839 
        2.03714         124.283         12.6906 
        2.04328         123.609         12.5982 
        2.04941         123.169         12.5067 
        2.05554         122.452         12.4162 
        2.06167         121.579         12.3265 
        2.06781         120.918         12.2377 
        2.07396         120.198         12.1496 
        2.08009           119.6         12.0625 
        2.08622         118.903         11.9764 
        2.09237         117.988          11.891 
        2.09851         117.666         11.8064 
        2.10464         116.972         11.7227 
        2.11077         116.338           11.64 
        2.11691         115.746         11.5579 
        2.12305         115.069         11.4766 
        2.12918         114.471         11.3962 
        2.13531         113.618         11.3166 
        2.14145         113.289         11.2376 
         2.1476         112.524         11.1593 
        2.15372         111.785         11.0821 
        2.15985         111.198         11.0055 
        2.16599          110.55         10.9295 
        2.17213          109.96         10.8542 
        2.17827          109.42         10.7797 
         2.1844         108.876         10.7059 
        2.19054         108.256         10.6328 
        2.19666         107.438         10.5605 
         2.2028         107.032         10.4888 
        2.20893         106.608         10.4178 
        2.21508         105.716         10.3473 
        2.22122         105.112         10.2774 
        2.22736         104.969         10.2084 
        2.23349         104.335           10.14 
        2.23962         103.568         10.0721 
        2.24577         102.986         10.0049 
         2.2519         102.337         9.93833 
        2.25802          102.03          9.8725 
        2.26417         101.288         9.80707 
        2.27031         100.668         9.74218 
        2.27644         100.273         9.67807 
        2.28257         99.8584         9.61453 
        2.28872         99.2101         9.55145 
        2.29486         98.7534         9.48895 
        2.30099         98.0685         9.42713 
        2.30712          97.709         9.36584 
        2.31326         97.0811         9.30499 
         2.3194         96.6302         9.24472 
        2.32553         96.1225         9.18508 
        2.33166         95.7069         9.12599 
         2.3378         94.9888         9.06734 
        2.34394          94.443         9.00919 
        2.35007         93.9365         8.95163 
        2.35619         93.3928         8.89465 
        2.36233          93.047         8.83802 
        2.36848           92.36         8.78178 
        2.37462         92.2505         8.72614 
        2.38075         91.5365         8.67104 
        2.38689         91.0728         8.61636 
        2.39303         90.6774         8.56217 
        2.39916         90.1222         8.50851 
        2.40529          89.761          8.4553 
        2.41143         89.1215         8.40252 
        2.41757          88.437         8.35016 
         2.4237          88.141         8.29834 
        2.42983         87.5892         8.24697 
        2.43598         87.2498          8.1959 
        2.44211         86.9125         8.14535 
        2.44823         86.3517         8.09533 
        2.45437         86.0366          8.0456 
        2.46052         85.3937         7.99625 
        2.46665         84.9033          7.9474 
        2.47279            84.6         7.89897 
        2.47892         84.2164         7.85091 
        2.48507         83.8458         7.80321 
         2.4912          83.149           7.756 
