# k  (h/Mpc)    Pcb(k)  (Mpc/h)^3    Pcb_linear(k)  (Mpc/h)^3
     0.00783031         8268.24         8311.78 
       0.013688         10151.6         10361.4 
       0.019231         10536.3         10657.1 
      0.0249154           10080         10068.5 
      0.0312784         8891.92         8962.08 
      0.0375637         7720.42         7829.68 
      0.0433917         6905.48         6937.66 
      0.0492413         6171.79         6245.12 
      0.0555754         5662.63         5690.89 
      0.0619321         5103.87         5261.25 
       0.067871         4817.31         4901.92 
      0.0738098         4483.64         4536.42 
      0.0800417         4095.86         4130.28 
      0.0862327         3673.06         3718.15 
      0.0921407         3318.37         3344.82 
      0.0982031         3021.82          3009.1 
       0.104506         2707.97         2727.23 
       0.110769         2510.32         2514.83 
       0.116806         2396.29         2360.89 
       0.122832         2245.85         2237.58 
       0.129052         2134.35         2121.73 
       0.135211         2049.06          2003.4 
       0.141259         1901.84         1877.78 
       0.147318            1753         1745.11 
       0.153489         1642.73         1611.01 
       0.159709         1556.89         1486.45 
       0.165845         1420.36         1380.85 
       0.171974         1379.95         1294.91 
       0.178125         1322.31         1226.33 
       0.184229         1230.29         1170.83 
        0.19034          1203.6         1121.81 
       0.196428         1163.28         1074.24 
       0.202534         1087.91         1024.57 
       0.208729         1063.54         971.453 
       0.214876         1016.78         917.527 
       0.220989          951.54          865.29 
       0.227147         926.897          816.69 
        0.23329          889.86         773.928 
       0.239377         873.492         737.596 
       0.245482         829.125         706.427 
       0.251667         797.123         678.711 
       0.257832         787.462         653.175 
       0.263955         745.981         628.432 
       0.270079         721.247         603.496 
        0.27624         690.667         578.101 
       0.282372         675.838         552.973 
        0.28843         669.365         528.992 
       0.294538         635.161         506.331 
       0.300721         615.861         485.395 
        0.30691         605.261         466.514 
       0.313033         579.215         449.658 
       0.319153         569.786         434.166 
       0.325316         558.878         419.454 
        0.33145         546.135         405.281 
       0.337538         526.674         391.462 
       0.343633         511.283         377.821 
       0.349808         498.448         364.316 
       0.355968         488.764         351.331 
       0.362074         473.782         339.115 
       0.368217         469.846         327.596 
       0.374374         460.447         316.825 
       0.380519         442.166         306.794 
       0.386598         436.844         297.442 
       0.392688         427.043          288.51 
        0.39888         415.887         279.762 
       0.405048         408.624         271.299 
       0.411186         406.252         263.109 
       0.417313         400.124         255.179 
       0.423458         388.645         247.505 
       0.429607         378.902         240.149 
       0.435692         372.634         233.215 
       0.441815          366.39         226.573 
       0.447964         357.822         220.228 
       0.454126         353.159          214.16 
       0.460267         347.879         208.356 
       0.466387         341.751         202.778 
        0.47254         337.061         197.354 
       0.478662         328.633         192.126 
       0.484765         324.941         187.077 
       0.490885         321.139         182.186 
       0.497035         315.777         177.448 
       0.503198         313.962         172.882 
       0.509342         305.803         168.506 
       0.515458         301.757         164.318 
       0.521598         295.896         160.271 
       0.527764         292.216         156.351 
       0.533884         291.265         152.589 
           0.54         285.791         148.949 
       0.546137         279.587         145.412 
       0.552299         278.331          141.97 
       0.558452         273.713         138.642 
       0.564573         271.447         135.436 
       0.570708         266.583         132.328 
       0.576825         262.422         129.331 
       0.582926          259.92         126.441 
       0.589034         256.391          123.64 
       0.595184         254.639         120.907 
       0.601379         250.024         118.239 
       0.607522         245.425         115.673 
       0.613639         243.961         113.193 
       0.619772         242.254          110.78 
       0.625918         239.414         108.431 
       0.632068          234.93         106.149 
       0.638161         232.982         103.954 
         0.6443         231.394         101.806 
       0.650464         227.347          99.713 
       0.656582         225.684         97.6952 
       0.662703         223.939         95.7339 
       0.668861         219.789         93.8161 
       0.675024         219.356         91.9496 
       0.681124         216.472         90.1527 
       0.687237          214.12         88.4002 
       0.693381         211.962         86.6863 
       0.699536          209.73         85.0151 
       0.705665         207.511         83.3957 
       0.711789         205.386         81.8205 
       0.717957          203.21         80.2758 
        0.72409         201.261         78.7802 
       0.730186         201.734         77.3321 
       0.736317         198.261          75.913 
       0.742472         195.659         74.5245 
       0.748622         192.941         73.1723 
        0.75476         193.644         71.8569 
       0.760888         191.272          70.576 
       0.767043         188.454         69.3216 
       0.773185         186.984         68.1005 
       0.779291         184.522         66.9161 
       0.785407         183.616         65.7585 
       0.791564          182.01         64.6212 
       0.797719         179.393         63.5117 
       0.803834         179.929         62.4356 
       0.809972         178.323         61.3807 
       0.816124         175.697         60.3482 
       0.822261         174.221         59.3424 
       0.828378         174.102         58.3627 
       0.834502         171.342         57.4044 
       0.840667         170.954         56.4617 
       0.846816         168.871         55.5429 
       0.852925         167.573         54.6505 
       0.859047         165.997          53.776 
       0.865192         165.402         52.9179 
       0.871341         163.359          52.078 
       0.877463         162.092         51.2604 
       0.883569         161.968         50.4624 
       0.889708         160.494         49.6775 
       0.895864         158.972         48.9074 
       0.902008         157.465         48.1553 
       0.908149         155.715         47.4196 
       0.914301         155.618         46.6982 
       0.920448         154.869         45.9926 
       0.926574         152.555         45.3041 
       0.932687         152.276         44.6312 
       0.938823         151.118         43.9697 
       0.944975         149.692         43.3202 
       0.951105         148.485         42.6862 
       0.957225         148.072         42.0661 
       0.963368         146.574         41.4563 
       0.969511         145.222         40.8586 
       0.975621         144.083          40.276 
       0.981748         143.066         39.7034 
       0.987916         142.435         39.1383 
        0.99406         141.591         38.5865 
        1.00019         140.414         38.0465 
        1.00632         139.616         37.5174 
        1.01246         138.666         36.9976 
        1.01859         137.737         36.4886 
        1.02471         136.712         35.9899 
        1.03085         135.628         35.4988 
        1.03698         134.697          35.018 
        1.04314          134.14         34.5442 
        1.04929         133.571         34.0802 
        1.05541         132.604         33.6267 
        1.06154          131.65         33.1804 
        1.06769         130.638         32.7415 
        1.07382         129.895         32.3121 
        1.07993         129.129         31.8914 
        1.08607         128.131         31.4765 
        1.09222         127.593         31.0686 
        1.09836         126.459         30.6684 
        1.10449         125.653         30.2758 
        1.11063         124.907         29.8897 
        1.11677         124.192         29.5105 
         1.1229         123.214         29.1385 
        1.12903         122.736         28.7727 
        1.13518         121.923         28.4128 
        1.14131         121.201         28.0593 
        1.14745         120.494         27.7121 
        1.15359         119.171         27.3707 
        1.15973         118.876         27.0349 
        1.16584          118.17         26.7063 
        1.17197         117.555         26.3827 
        1.17811         116.568         26.0635 
        1.18424         115.948         25.7506 
        1.19038          115.57         25.4419 
        1.19652         114.689         25.1384 
        1.20267         113.946         24.8399 
        1.20881         113.256         24.5463 
        1.21495         112.771         24.2579 
        1.22108         112.111         23.9743 
         1.2272         111.158         23.6958 
        1.23334         110.932         23.4212 
        1.23949         110.294         23.1503 
        1.24562         109.385         22.8845 
        1.25174         108.682         22.6233 
        1.25789         108.337         22.3653 
        1.26402         107.738         22.1119 
        1.27014         107.121          21.863 
        1.27628          106.07         21.6173 
        1.28244         105.963         21.3748 
        1.28858          105.03         21.1365 
        1.29471         104.467         20.9023 
        1.30084         103.791         20.6719 
        1.30697         103.592         20.4446 
        1.31312         102.792         20.2204 
        1.31925         102.112         20.0003 
        1.32537         101.703         19.7837 
        1.33151         101.454         19.5696 
        1.33765         100.487         19.3587 
        1.34378         100.257         19.1514 
        1.34992         99.8404          18.947 
        1.35606         99.0529         18.7452 
         1.3622         98.8597         18.5467 
        1.36833         97.8165         18.3515 
        1.37445         97.4226         18.1592 
        1.38059         97.0524         17.9691 
        1.38675         96.2018         17.7813 
        1.39288         95.9248          17.597 
        1.39901         95.0693         17.4153 
        1.40515         94.8489         17.2358 
         1.4113         94.3896         17.0589 
        1.41742         93.7056         16.8852 
        1.42355         93.3946         16.7135 
         1.4297         92.7512         16.5438 
        1.43585         92.1856         16.3764 
        1.44198         91.7326         16.2121 
        1.44809         91.1058         16.0503 
        1.45423         90.8417         15.8901 
        1.46036          90.127         15.7324 
        1.46649          89.663         15.5768 
        1.47263         89.3633         15.4232 
        1.47877         88.8574         15.2717 
        1.48491         88.3297         15.1221 
        1.49104         87.5801         14.9747 
        1.49718         87.4705         14.8293 
        1.50333         86.9527         14.6855 
        1.50947         86.6772          14.544 
         1.5156          86.261         14.4045 
        1.52172          85.581         14.2668 
        1.52787          85.102         14.1307 
          1.534         84.7644         13.9966 
        1.54013         84.4771         13.8643 
        1.54627         83.7097         13.7335 
        1.55241         83.3814         13.6044 
        1.55855         82.9611         13.4771 
        1.56467         82.2061         13.3518 
         1.5708         82.0352         13.2277 
        1.57695         81.6685         13.1051 
        1.58308         81.2361         12.9843 
        1.58922         80.9222         12.8649 
        1.59535         80.6155         12.7471 
         1.6015          80.239         12.6306 
        1.60764         79.7376         12.5156 
        1.61376         79.2386         12.4023 
        1.61989         78.6574         12.2904 
        1.62604         78.4432         12.1796 
        1.63218         78.1797         12.0702 
        1.63831         77.7004         11.9625 
        1.64444         77.4132          11.856 
        1.65059         76.9128         11.7505 
        1.65673         76.4041         11.6465 
        1.66285         75.9471          11.544 
        1.66898         75.5549         11.4427 
        1.67512         75.2964         11.3424 
        1.68127         75.0012         11.2433 
         1.6874         74.5025         11.1455 
        1.69353          74.121          11.049 
        1.69967         73.8747         10.9534 
        1.70581         73.4794          10.859 
        1.71193         73.0479          10.766 
        1.71806         72.5716         10.6739 
        1.72421         72.3958         10.5828 
        1.73035         72.1381         10.4928 
        1.73649         71.6145         10.4039 
        1.74262         71.0823          10.316 
        1.74876         70.9058         10.2292 
        1.75489         70.4107         10.1435 
        1.76101         70.0643         10.0588 
        1.76715         69.9211         9.97499 
        1.77329         69.3772         9.89203 
        1.77943         69.1963         9.80997 
        1.78557         68.9059         9.72897 
        1.79171         68.5014         9.64887 
        1.79785         68.1165         9.56966 
        1.80399         67.7828         9.49136 
        1.81012         67.4462         9.41404 
        1.81625         67.1799         9.33762 
        1.82239          66.887         9.26194 
        1.82853         66.3846         9.18713 
        1.83466         66.1655         9.11322 
        1.84078         65.8255         9.04021 
        1.84692          65.627         8.96788 
        1.85306         65.2295         8.89625 
         1.8592         64.9684         8.82552 
        1.86533         64.5495         8.75559 
        1.87147         64.2382         8.68635 
        1.87761         63.8839         8.61782 
        1.88375         63.5514         8.55011 
        1.88988         63.2667         8.48321 
        1.89601         62.9325         8.41698 
        1.90215         62.5691         8.35141 
        1.90829         62.4067         8.28657 
        1.91442         62.0391         8.22242 
        1.92056         61.8083           8.159 
         1.9267         61.4565         8.09619 
        1.93284         61.2604           8.034 
        1.93897         60.9466         7.97258 
        1.94509         60.5335         7.91194 
        1.95123         60.2931         7.85178 
        1.95737         59.9778          7.7922 
        1.96349         59.7278         7.73339 
        1.96964         59.3761         7.67502 
        1.97578         59.0766         7.61723 
        1.98192         58.8147         7.56015 
        1.98805         58.4816         7.50365 
        1.99419         58.2379         7.44773 
        2.00033         57.9843         7.39235 
        2.00647         57.7234         7.33755 
         2.0126         57.3755          7.2834 
        2.01874         57.2754         7.22971 
        2.02488         56.9004         7.17652 
        2.03101         56.6369         7.12396 
        2.03714         56.4389         7.07198 
        2.04328         56.0653         7.02046 
        2.04941         55.6859         6.96949 
        2.05554         55.6423         6.91907 
        2.06167         55.4388         6.86908 
        2.06781         54.9551         6.81958 
        2.07396         54.6849          6.7705 
        2.08009         54.5213         6.72198 
        2.08622         54.2432           6.674 
        2.09237         53.9629         6.62639 
        2.09851         53.6797         6.57924 
        2.10464         53.4693         6.53262 
        2.11077         53.2481         6.48652 
        2.11691         52.9304         6.44076 
        2.12305         52.6563         6.39544 
        2.12918         52.4283         6.35066 
        2.13531         52.1975         6.30631 
        2.14145          51.899         6.26228 
         2.1476         51.7396         6.21862 
        2.15372         51.5631          6.1756 
        2.15985         51.1818         6.13294 
        2.16599         50.9431         6.09056 
        2.17213         50.7359         6.04862 
        2.17827         50.5184          6.0071 
         2.1844         50.2092         5.96599 
        2.19054         50.0563         5.92526 
        2.19666         49.7378         5.88497 
         2.2028         49.5156         5.84502 
        2.20893           49.25         5.80542 
        2.21508         48.9927         5.76614 
        2.22122         48.8115         5.72721 
        2.22736         48.5057         5.68873 
        2.23349         48.3942          5.6506 
        2.23962         48.1388         5.61281 
        2.24577         47.8914         5.57533 
         2.2519         47.6513         5.53824 
        2.25802         47.4738         5.50155 
        2.26417         47.2589          5.4651 
        2.27031         46.9913         5.42893 
        2.27644         46.8766         5.39321 
        2.28257         46.4442          5.3578 
        2.28872         46.4887         5.32265 
        2.29486           46.17         5.28782 
        2.30099         45.8518         5.25337 
        2.30712          45.765         5.21921 
        2.31326         45.4686         5.18531 
         2.3194         45.2315         5.15172 
        2.32553         45.1448         5.11848 
        2.33166          44.798         5.08556 
         2.3378         44.5949         5.05287 
        2.34394         44.3922         5.02047 
        2.35007          44.191         4.98839 
        2.35619         44.0865         4.95664 
        2.36233         43.7099         4.92508 
        2.36848         43.6354         4.89374 
        2.37462         43.3272         4.86273 
        2.38075         43.2438         4.83203 
        2.38689         43.0912         4.80156 
        2.39303         42.8303         4.77136 
        2.39916         42.5972         4.74146 
        2.40529         42.4305         4.71181 
        2.41143         42.2041         4.68239 
        2.41757         42.0781         4.65322 
         2.4237          41.885         4.62434 
        2.42983          41.615         4.59571 
        2.43598         41.4351         4.56725 
        2.44211         41.2637         4.53908 
        2.44823         41.0335         4.51121 
        2.45437         40.9023          4.4835 
        2.46052         40.6192           4.456 
        2.46665         40.4842         4.42877 
        2.47279         40.2461         4.40179 
        2.47892          40.115           4.375 
        2.48507         40.0048         4.34842 
         2.4912         39.6867         4.32211 
