# k  (h/Mpc)    Pcb(k)  (Mpc/h)^3    Pcb_linear(k)  (Mpc/h)^3
     0.00783031         11543.6         11596.6 
       0.013688         14324.1         14668.8 
       0.019231         15054.2         15269.3 
      0.0249154         14563.3         14564.2 
      0.0312784           12894         13046.5 
      0.0375637           11192         11411.6 
      0.0433917         9994.49         10083.5 
      0.0492413         8882.25         9036.52 
      0.0555754         8123.24         8206.53 
      0.0619321          7296.3          7594.7 
       0.067871         6933.63          7117.7 
      0.0738098          6521.5         6650.03 
      0.0800417         6014.16         6122.94 
      0.0862327         5436.83          5561.6 
      0.0921407         4936.83         5022.01 
      0.0982031          4498.1         4507.13 
       0.104506         4003.19         4051.04 
       0.110769         3683.41         3695.27 
       0.116806         3499.48         3439.53 
       0.122832         3275.92         3249.53 
       0.129052         3114.11            3093 
       0.135211         3023.58         2949.11 
       0.141259         2825.28          2798.7 
       0.147318         2628.68         2631.09 
       0.153489         2481.12         2446.67 
       0.159709         2368.02         2258.93 
       0.165845         2154.63         2085.95 
       0.171974         2087.31          1936.2 
       0.178125          2001.3         1813.93 
       0.184229         1846.39         1718.97 
        0.19034         1814.48         1644.13 
       0.196428         1762.11         1581.25 
       0.202534         1658.22         1521.54 
       0.208729         1629.96         1458.12 
       0.214876         1562.98         1389.65 
       0.220989         1477.37         1317.01 
       0.227147         1438.44         1242.67 
        0.23329         1380.57          1171.7 
       0.239377         1363.73         1108.13 
       0.245482         1295.24          1053.1 
       0.251667         1246.45         1006.36 
       0.257832         1228.92         967.252 
       0.263955         1171.07         933.271 
       0.270079         1138.61          901.46 
        0.27624         1092.34         869.531 
       0.282372         1076.58         836.636 
        0.28843         1063.15         803.017 
       0.294538         1011.45         768.741 
       0.300721         988.093         734.927 
        0.30691         967.804         703.167 
       0.313033         928.139         674.636 
       0.319153         915.921          649.24 
       0.325316         903.716         626.523 
        0.33145         884.817         606.098 
       0.337538         854.503         587.174 
       0.343633         833.255         568.833 
       0.349808         815.814         550.401 
       0.355968         800.842         531.941 
       0.362074          775.22         513.726 
       0.368217         772.578         495.747 
       0.374374         760.316         478.459 
       0.380519          732.08         462.223 
       0.386598         726.513         447.297 
       0.392688         710.252         433.499 
        0.39888         692.649         420.463 
       0.405048         680.688          408.26 
       0.411186         678.555         396.647 
       0.417313         673.982         385.363 
       0.423458         653.087          374.27 
       0.429607         635.343          363.36 
       0.435692          628.49         352.794 
       0.441815         617.336         342.494 
       0.447964         607.692         332.574 
       0.454126         600.371         323.109 
       0.460267         591.214         314.182 
       0.466387         582.142         305.764 
        0.47254         572.613         297.707 
       0.478662         563.067         290.026 
       0.484765         557.444          282.64 
       0.490885         551.375         275.447 
       0.497035          540.76         268.394 
       0.503198          540.51         261.515 
       0.509342          529.12         254.856 
       0.515458         519.535         248.442 
       0.521598         514.547         242.231 
       0.527764         504.858         236.241 
       0.533884         501.707         230.541 
           0.54         496.079          225.07 
       0.546137         487.385         219.779 
       0.552299         486.044         214.647 
       0.558452         479.006         209.686 
       0.564573         474.214         204.895 
       0.570708         469.481         200.223 
       0.576825         460.452         195.693 
       0.582926         458.381         191.305 
       0.589034         451.577         187.048 
       0.595184         448.009           182.9 
       0.601379         441.091          178.86 
       0.607522         433.641         174.982 
       0.613639         432.446         171.244 
       0.619772         430.574         167.613 
       0.625918          422.86         164.085 
       0.632068         419.474         160.656 
       0.638161         415.657         157.353 
         0.6443         411.243         154.113 
       0.650464         406.604         150.948 
       0.656582         403.202         147.893 
       0.662703         399.903         144.923 
       0.668861         394.078          142.02 
       0.675024         391.776         139.198 
       0.681124         386.637         136.484 
       0.687237         384.548         133.839 
       0.693381         379.615         131.253 
       0.699536         377.408         128.732 
       0.705665         373.354         126.287 
       0.711789         371.816         123.908 
       0.717957         366.596         121.574 
        0.72409         362.812         119.313 
       0.730186          364.74         117.124 
       0.736317         358.061         114.978 
       0.742472          354.68         112.879 
       0.748622         351.578         110.834 
        0.75476         350.067         108.845 
       0.760888         346.689         106.908 
       0.767043         343.703         105.011 
       0.773185         341.803         103.165 
       0.779291         336.849         101.374 
       0.785407         335.611         99.6238 
       0.791564         332.582         97.9043 
       0.797719         327.563         96.2265 
       0.803834         330.049          94.599 
       0.809972         324.918         93.0036 
       0.816124         321.393         91.4417 
       0.822261          318.71         89.9202 
       0.828378         317.937          88.438 
       0.834502         313.151         86.9883 
       0.840667         313.399         85.5619 
       0.846816         307.945         84.1718 
       0.852925         308.262         82.8215 
       0.859047         305.326         81.4982 
       0.865192         304.469         80.1997 
       0.871341         300.212         78.9288 
       0.877463         297.948         77.6914 
       0.883569         296.501         76.4839 
       0.889708         293.828          75.296 
       0.895864         291.416         74.1304 
       0.902008          289.55         72.9921 
       0.908149          287.19         71.8785 
       0.914301         285.579         70.7865 
       0.920448         284.033         69.7183 
       0.926574         281.974         68.6761 
       0.932687         280.389         67.6575 
       0.938823         277.582          66.656 
       0.944975         276.718         65.6727 
       0.951105         273.964         64.7128 
       0.957225         271.367         63.7738 
       0.963368         271.476         62.8504 
       0.969511         266.502         61.9454 
       0.975621         265.792         61.0632 
       0.981748         264.566          60.196 
       0.987916         263.198         59.3403 
        0.99406         260.813         58.5046 
        1.00019         258.856         57.6867 
        1.00632         258.343         56.8853 
        1.01246         256.244          56.098 
        1.01859         253.326          55.327 
        1.02471         251.609         54.5716 
        1.03085         250.811         53.8277 
        1.03698         249.304         53.0994 
        1.04314         248.685         52.3815 
        1.04929         246.861         51.6787 
        1.05541         244.542         50.9916 
        1.06154         242.866         50.3155 
        1.06769         240.911         49.6506 
        1.07382         240.503              49 
        1.07993         237.791         48.3626 
        1.08607         236.417          47.734 
        1.09222         234.984          47.116 
        1.09836         234.296         46.5096 
        1.10449         232.223         45.9147 
        1.11063         230.547         45.3296 
        1.11677         229.129         44.7549 
         1.1229         227.964         44.1913 
        1.12903         226.571         43.6369 
        1.13518         224.937         43.0915 
        1.14131         224.194         42.5559 
        1.14745         221.735         42.0297 
        1.15359         220.049         41.5123 
        1.15973         219.549         41.0034 
        1.16584         218.421         40.5054 
        1.17197         216.856          40.015 
        1.17811         215.068         39.5312 
        1.18424         213.987         39.0569 
        1.19038         212.807          38.589 
        1.19652         210.591          38.129 
        1.20267         209.967         37.6765 
        1.20881         208.364         37.2314 
        1.21495         208.142         36.7943 
        1.22108         206.449         36.3643 
         1.2272         204.428         35.9423 
        1.23334          203.78         35.5259 
        1.23949         202.973         35.1153 
        1.24562         201.464         34.7122 
        1.25174         200.188         34.3162 
        1.25789         198.477         33.9251 
        1.26402         198.342         33.5409 
        1.27014         197.425         33.1636 
        1.27628         195.149          32.791 
        1.28244         194.343         32.4234 
        1.28858         193.083          32.062 
        1.29471         192.127         31.7069 
        1.30084         190.908         31.3575 
        1.30697         189.378         31.0129 
        1.31312         188.375          30.673 
        1.31925         187.217         30.3393 
        1.32537         186.679         30.0109 
        1.33151          185.47         29.6862 
        1.33765         183.945         29.3665 
        1.34378         183.324         29.0521 
        1.34992         182.126         28.7422 
        1.35606         181.084         28.4361 
         1.3622         180.192          28.135 
        1.36833         178.466          27.839 
        1.37445         178.512         27.5475 
        1.38059         176.728         27.2592 
        1.38675         175.723         26.9744 
        1.39288         174.655         26.6947 
        1.39901         173.665         26.4192 
        1.40515         172.998          26.147 
         1.4113          171.66         25.8787 
        1.41742         170.303         25.6152 
        1.42355          170.59         25.3549 
         1.4297         168.854         25.0975 
        1.43585         168.069         24.8437 
        1.44198         166.382         24.5944 
        1.44809         165.783          24.349 
        1.45423         165.145         24.1061 
        1.46036          163.92         23.8669 
        1.46649         162.912         23.6309 
        1.47263         162.381         23.3979 
        1.47877         161.087         23.1682 
        1.48491         159.999         22.9412 
        1.49104         158.487         22.7177 
        1.49718         158.323          22.497 
        1.50333         157.359          22.279 
        1.50947          156.45         22.0642 
         1.5156         155.415         21.8527 
        1.52172         154.785         21.6439 
        1.52787         153.873         21.4374 
          1.534          152.98         21.2339 
        1.54013         152.156         21.0332 
        1.54627         151.174         20.8348 
        1.55241         150.595         20.6389 
        1.55855         149.905         20.4458 
        1.56467         148.687         20.2557 
         1.5708         147.538         20.0675 
        1.57695         147.183         19.8814 
        1.58308         146.057         19.6981 
        1.58922         145.642          19.517 
        1.59535         144.589         19.3383 
         1.6015         143.575         19.1615 
        1.60764         142.733         18.9871 
        1.61376         141.951         18.8153 
        1.61989         141.309         18.6455 
        1.62604         140.206         18.4774 
        1.63218         139.721         18.3115 
        1.63831          138.79          18.148 
        1.64444         137.839         17.9864 
        1.65059         137.229         17.8265 
        1.65673         136.644         17.6686 
        1.66285         136.096         17.5131 
        1.66898         134.918         17.3595 
        1.67512         134.319         17.2073 
        1.68127         133.604         17.0569 
         1.6874          132.57         16.9086 
        1.69353         132.184         16.7622 
        1.69967          131.21         16.6171 
        1.70581         130.821         16.4738 
        1.71193         129.769         16.3328 
        1.71806         128.821         16.1931 
        1.72421         128.438         16.0548 
        1.73035         127.722         15.9182 
        1.73649          126.68         15.7833 
        1.74262         126.436         15.6501 
        1.74876         125.502         15.5182 
        1.75489         124.979         15.3882 
        1.76101         124.152         15.2598 
        1.76715         123.193         15.1326 
        1.77329         122.748         15.0067 
        1.77943           121.8         14.8822 
        1.78557         121.499         14.7593 
        1.79171         120.831         14.6377 
        1.79785         119.724         14.5175 
        1.80399         119.394         14.3987 
        1.81012         118.369         14.2814 
        1.81625         118.101         14.1654 
        1.82239         117.395         14.0506 
        1.82853         116.834          13.937 
        1.83466         115.909         13.8249 
        1.84078         115.532         13.7141 
        1.84692         115.192         13.6043 
        1.85306          114.22         13.4956 
         1.8592         113.764         13.3883 
        1.86533         112.823         13.2822 
        1.87147         112.598         13.1771 
        1.87761         111.605         13.0731 
        1.88375         110.934         12.9704 
        1.88988         110.269         12.8689 
        1.89601         110.069         12.7684 
        1.90215         109.545         12.6689 
        1.90829         108.526         12.5705 
        1.91442         107.815         12.4732 
        1.92056         107.445         12.3769 
         1.9267         106.768         12.2816 
        1.93284         106.193         12.1872 
        1.93897         105.737          12.094 
        1.94509         105.077          12.002 
        1.95123         104.549         11.9107 
        1.95737         104.188         11.8203 
        1.96349         103.578         11.7311 
        1.96964         102.879         11.6425 
        1.97578         102.309         11.5548 
        1.98192         101.909         11.4682 
        1.98805         101.217         11.3825 
        1.99419         100.649         11.2976 
        2.00033         100.059         11.2135 
        2.00647         99.6463         11.1304 
         2.0126         99.0459         11.0482 
        2.01874         98.9227         10.9667 
        2.02488         97.8976          10.886 
        2.03101         97.5666         10.8063 
        2.03714         96.9575         10.7274 
        2.04328         96.6054         10.6492 
        2.04941         96.1594         10.5718 
        2.05554         95.5299         10.4953 
        2.06167         94.7135         10.4195 
        2.06781         94.2541         10.3443 
        2.07396         93.9242         10.2698 
        2.08009         93.1344         10.1962 
        2.08622         92.9776         10.1234 
        2.09237         92.4627         10.0511 
        2.09851         91.7705         9.97958 
        2.10464         91.5474         9.90884 
        2.11077         90.9631         9.83886 
        2.11691         90.6588         9.76941 
        2.12305         90.0001         9.70063 
        2.12918         89.5414         9.63267 
        2.13531         89.0503         9.56536 
        2.14145         88.4659         9.49854 
         2.1476         88.1836         9.43228 
        2.15372         87.5709         9.36699 
        2.15985         87.1198         9.30225 
        2.16599         86.6214         9.23793 
        2.17213         86.2659          9.1743 
        2.17827         85.6196         9.11127 
         2.1844         85.3123          9.0489 
        2.19054         84.8756         8.98709 
        2.19666         84.4632         8.92594 
         2.2028         84.0391         8.86531 
        2.20893         83.5416         8.80522 
        2.21508         83.0752         8.74561 
        2.22122         82.5708         8.68654 
        2.22736         82.3347         8.62813 
        2.23349         81.7438         8.57027 
        2.23962         81.3983         8.51292 
        2.24577         80.9776         8.45604 
         2.2519         80.5276         8.39975 
        2.25802         80.0398         8.34407 
        2.26417         79.6156         8.28874 
        2.27031         79.1705         8.23386 
        2.27644         78.8604         8.17964 
        2.28257         78.4381         8.12591 
        2.28872          78.027         8.07256 
        2.29486         77.7831          8.0197 
        2.30099         77.0885         7.96743 
        2.30712         76.8814         7.91559 
        2.31326         76.5261         7.86413 
         2.3194         75.9662         7.81316 
        2.32553         75.6012         7.76272 
        2.33166         75.1458         7.71275 
         2.3378         75.0067         7.66316 
        2.34394         74.5635         7.61398 
        2.35007         74.0215         7.56531 
        2.35619         73.7604         7.51712 
        2.36233         73.3893         7.46923 
        2.36848         72.9223         7.42166 
        2.37462         72.5743         7.37461 
        2.38075         72.2059         7.32801 
        2.38689         71.8526         7.28178 
        2.39303         71.5114         7.23595 
        2.39916           71.11         7.19056 
        2.40529         70.8347         7.14557 
        2.41143         70.4415         7.10093 
        2.41757         69.9764         7.05665 
         2.4237           69.64         7.01282 
        2.42983         69.2985         6.96938 
        2.43598         69.0593         6.92619 
        2.44211         68.5391         6.88343 
        2.44823         68.3949         6.84113 
        2.45437         67.9565         6.79908 
        2.46052         67.5713         6.75734 
        2.46665         67.1053         6.71602 
        2.47279         66.8666         6.67506 
        2.47892         66.5473         6.63442 
        2.48507         66.1731         6.59408 
         2.4912         65.8419         6.55415 
