# k  (h/Mpc)    P(k)  (Mpc/h)^3    P_linear(k)  (Mpc/h)^3
     0.00783031         954.745         963.868 
       0.013688         1117.14         1129.41 
       0.019231         1084.48          1089.3 
      0.0249154          955.84         954.842 
      0.0312784         777.469         776.742 
      0.0375637         624.259         624.358 
      0.0433917         523.432         521.493 
      0.0492413         454.482         453.955 
      0.0555754         411.842         409.955 
      0.0619321         379.532         381.535 
       0.067871         357.393         357.507 
      0.0738098         329.148         329.055 
      0.0800417         293.714         292.927 
      0.0862327         254.294         253.991 
      0.0921407         219.402         218.949 
      0.0982031         190.599         189.249 
       0.104506         167.266         167.043 
       0.110769         153.589         153.191 
       0.116806         146.482         145.434 
       0.122832         140.607         140.367 
       0.129052         135.685         135.133 
       0.135211         128.887         128.031 
       0.141259         119.115         118.699 
       0.147318         107.881         107.778 
       0.153489         97.0562          96.523 
       0.159709         87.4606         86.5281 
       0.165845         79.1958         78.8851 
       0.171974         74.7892         73.6158 
       0.178125         71.2474         70.2703 
       0.184229         68.6991         68.0937 
        0.19034         67.1166         66.1887 
       0.196428         64.6603         63.8681 
       0.202534         60.9811         60.7733 
       0.208729         57.6544         56.9131 
       0.214876         53.7902          52.743 
       0.220989         49.3767         48.7422 
       0.227147         46.4188         45.2609 
        0.23329         43.7479          42.538 
       0.239377         41.8426         40.5661 
       0.245482         40.2842         39.1389 
       0.251667         38.8472         37.9841 
       0.257832          38.028         36.8506 
       0.263955         36.4058         35.5547 
       0.270079         34.8505         34.0184 
        0.27624         33.0145         32.2836 
       0.282372         31.3161         30.5021 
        0.28843         29.9703         28.8306 
       0.294538         28.4331          27.351 
       0.300721         27.0266         26.1114 
        0.30691         26.2393         25.1189 
       0.313033         25.3256         24.3131 
       0.319153         24.8086          23.597 
       0.325316         23.7784         22.8801 
        0.33145         22.9603         22.1202 
       0.337538         22.1883          21.301 
       0.343633         21.4299         20.4401 
       0.349808         20.5039          19.565 
       0.355968         19.6591          18.738 
       0.362074         19.0703         17.9959 
       0.368217         18.3652         17.3418 
       0.374374          17.896         16.7734 
       0.380519         17.2307         16.2688 
       0.386598         16.7009         15.8056 
       0.392688         16.1909         15.3505 
        0.39888         15.8038         14.8795 
       0.405048         15.3528         14.4001 
       0.411186         14.8423         13.9161 
       0.417313         14.3621         13.4407 
       0.423458         13.8396         12.9862 
       0.429607         13.5279          12.562 
       0.435692         13.1923         12.1776 
       0.441815         12.7246         11.8248 
       0.447964         12.3238         11.4959 
       0.454126         12.0836         11.1833 
       0.460267         11.8599         10.8814 
       0.466387         11.5039         10.5838 
        0.47254         11.2521         10.2851 
       0.478662         10.9064         9.99172 
       0.484765         10.6231         9.70652 
       0.490885         10.2922         9.43099 
       0.497035         10.0121         9.16741 
       0.503198         9.81638         8.91911 
       0.509342         9.51338         8.68657 
       0.515458          9.3401         8.46683 
       0.521598         9.12465         8.25505 
       0.527764         8.95425         8.04909 
       0.533884         8.67111         7.84992 
           0.54         8.50845         7.65494 
       0.546137         8.25584         7.46286 
       0.552299         8.08496         7.27491 
       0.558452         7.88812         7.09363 
       0.564573         7.74215          6.9207 
       0.570708         7.56616         6.75478 
       0.576825         7.40853         6.59606 
       0.582926         7.23552         6.44378 
       0.589034         7.09645         6.29671 
       0.595184          6.9846         6.15344 
       0.601379         6.79471         6.01338 
       0.607522         6.64789         5.87812 
       0.613639         6.49921          5.7466 
       0.619772         6.39097          5.6181 
       0.625918         6.25341         5.49304 
       0.632068           6.148          5.3719 
       0.638161         6.01701         5.25608 
         0.6443         5.89154         5.14346 
       0.650464         5.76094         5.03413 
       0.656582         5.69175         4.92893 
       0.662703         5.58585         4.82666 
       0.668861         5.43823         4.72647 
       0.675024         5.33884         4.62883 
       0.681124         5.31551         4.53479 
       0.687237         5.18236         4.44311 
       0.693381          5.0476         4.35356 
       0.699536         5.00015         4.26641 
       0.705665         4.90293         4.18211 
       0.711789         4.79352         4.10024 
       0.717957         4.70043         4.02005 
        0.72409         4.63596         3.94247 
       0.730186         4.59103         3.86741 
       0.736317         4.47681         3.79387 
       0.742472         4.42055         3.72196 
       0.748622         4.34835         3.65196 
        0.75476         4.23852         3.58392 
       0.760888         4.19583         3.51772 
       0.767043          4.0911         3.45295 
       0.773185         4.04026         3.38997 
       0.779291         4.01012         3.32893 
       0.785407         3.92477         3.26933 
       0.791564           3.862         3.21083 
       0.797719         3.79389         3.15381 
       0.803834         3.74687         3.09853 
       0.809972         3.67701         3.04438 
       0.816124         3.62568         2.99141 
       0.822261          3.5721         2.93983 
       0.828378         3.51601         2.88962 
       0.834502         3.46238         2.84054 
       0.840667         3.42215         2.79229 
       0.846816         3.35247         2.74529 
       0.852925         3.30841         2.69967 
       0.859047         3.25823           2.655 
       0.865192         3.21159          2.6112 
       0.871341         3.16741         2.56836 
       0.877463         3.11351         2.52669 
       0.883569         3.07761         2.48605 
       0.889708         3.03507          2.4461 
       0.895864         2.99262         2.40693 
       0.902008         2.94105         2.36871 
       0.908149         2.90308         2.33134 
       0.914301         2.86684         2.29472 
       0.920448         2.83362         2.25892 
       0.926574         2.80665         2.22402 
       0.932687         2.75887         2.18992 
       0.938823         2.70682         2.15643 
       0.944975         2.68805         2.12355 
       0.951105         2.63165         2.09149 
       0.957225         2.61311         2.06014 
       0.963368         2.58019         2.02933 
       0.969511         2.54853         1.99915 
       0.975621         2.50839         1.96975 
       0.981748         2.46372         1.94086 
       0.987916         2.43972         1.91238 
        0.99406          2.4189         1.88457 
        1.00019         2.38672         1.85737 
        1.00632         2.36294         1.83074 
        1.01246         2.32734         1.80459 
        1.01859         2.29977         1.77899 
        1.02471         2.26144         1.75393 
        1.03085         2.23908         1.72926 
        1.03698         2.21491         1.70512 
        1.04314         2.18834         1.68133 
        1.04929         2.16349         1.65806 
        1.05541         2.13044         1.63532 
        1.06154         2.11382         1.61295 
        1.06769         2.09522         1.59097 
        1.07382         2.06067         1.56947 
        1.07993         2.03387         1.54841 
        1.08607          2.0186         1.52766 
        1.09222          1.9891         1.50727 
        1.09836          1.9787         1.48727 
        1.10449         1.93865         1.46766 
        1.11063         1.92167         1.44838 
        1.11677         1.90409         1.42946 
         1.1229         1.87781         1.41091 
        1.12903         1.86462         1.39267 
        1.13518         1.83672         1.37474 
        1.14131         1.81866         1.35713 
        1.14745         1.79827         1.33984 
        1.15359         1.77825         1.32285 
        1.15973         1.75774         1.30615 
        1.16584         1.74066         1.28982 
        1.17197         1.71819         1.27374 
        1.17811         1.69988         1.25788 
        1.18424         1.68203         1.24234 
        1.19038         1.66463         1.22702 
        1.19652         1.64976         1.21197 
        1.20267         1.63643         1.19716 
        1.20881         1.61499         1.18261 
        1.21495         1.59927         1.16832 
        1.22108         1.58463         1.15427 
         1.2272         1.56133         1.14049 
        1.23334         1.55203          1.1269 
        1.23949         1.53389         1.11349 
        1.24562         1.52023         1.10035 
        1.25174         1.50844         1.08743 
        1.25789         1.48629         1.07469 
        1.26402         1.47188         1.06217 
        1.27014         1.45504         1.04988 
        1.27628          1.4441         1.03774 
        1.28244         1.42984         1.02578 
        1.28858         1.41573         1.01402 
        1.29471         1.39859         1.00247 
        1.30084         1.38785        0.991116 
        1.30697         1.37813        0.979917 
        1.31312         1.36296        0.968874 
        1.31925         1.34987        0.958036 
        1.32537         1.33917        0.947374 
        1.33151         1.32328        0.936837 
        1.33765         1.31212        0.926466 
        1.34378         1.30086        0.916272 
        1.34992         1.29012        0.906225 
        1.35606          1.2768        0.896307 
         1.3622         1.26625        0.886555 
        1.36833         1.25223        0.876971 
        1.37445         1.23982        0.867534 
        1.38059         1.22976        0.858207 
        1.38675         1.21847        0.848995 
        1.39288         1.21062        0.839955 
        1.39901         1.19636         0.83105 
        1.40515         1.18638        0.822255 
         1.4113         1.17947         0.81359 
        1.41742         1.16451        0.805083 
        1.42355         1.15394        0.796682 
         1.4297         1.14643        0.788375 
        1.43585         1.13587         0.78019 
        1.44198         1.12632        0.772153 
        1.44809         1.11692        0.764244 
        1.45423         1.10698        0.756417 
        1.46036         1.09822        0.748713 
        1.46649         1.08514        0.741114 
        1.47263         1.07997        0.733614 
        1.47877         1.07421        0.726221 
        1.48491         1.05797        0.718918 
        1.49104         1.05244        0.711731 
        1.49718         1.04215        0.704637 
        1.50333         1.03403        0.697628 
        1.50947           1.027        0.690728 
         1.5156         1.01807        0.683931 
        1.52172         1.01014        0.677226 
        1.52787         1.00117        0.670598 
          1.534        0.995227        0.664066 
        1.54013         0.98562        0.657627 
        1.54627         0.97758        0.651262 
        1.55241        0.968274        0.644981 
        1.55855        0.961609         0.63879 
        1.56467        0.954135        0.632699 
         1.5708        0.946992        0.626669 
        1.57695        0.938137        0.620709 
        1.58308        0.929213         0.61484 
        1.58922        0.924722        0.609043 
        1.59535        0.915008        0.603322 
         1.6015        0.908103        0.597667 
        1.60764        0.902305        0.592087 
        1.61376        0.893957        0.586594 
        1.61989        0.888079        0.581166 
        1.62604        0.878915        0.575794 
        1.63218        0.875418        0.570493 
        1.63831         0.86789        0.565272 
        1.64444        0.861089        0.560113 
        1.65059        0.855833        0.555007 
        1.65673        0.846635         0.54997 
        1.66285        0.841369        0.545009 
        1.66898        0.836302        0.540108 
        1.67512        0.826788        0.535258 
        1.68127        0.821677        0.530462 
         1.6874          0.8184        0.525736 
        1.69353        0.809934        0.521071 
        1.69967        0.805033         0.51645 
        1.70581        0.801232        0.511888 
        1.71193        0.791549        0.507398 
        1.71806        0.788185        0.502952 
        1.72421        0.782928        0.498551 
        1.73035        0.774162        0.494207 
        1.73649        0.772564        0.489916 
        1.74262        0.764329        0.485679 
        1.74876        0.759469        0.481489 
        1.75489        0.754829        0.477357 
        1.76101         0.74715        0.473274 
        1.76715        0.743386        0.469234 
        1.77329        0.738763        0.465236 
        1.77943         0.73373        0.461282 
        1.78557        0.729734        0.457381 
        1.79171        0.724408        0.453523 
        1.79785        0.719132         0.44971 
        1.80399        0.712294         0.44594 
        1.81012        0.708527         0.44222 
        1.81625        0.702806        0.438543 
        1.82239        0.699218        0.434902 
        1.82853        0.694004        0.431304 
        1.83466        0.689014        0.427751 
        1.84078        0.684189        0.424241 
        1.84692        0.679734        0.420765 
        1.85306        0.677112        0.417323 
         1.8592        0.669963        0.413926 
        1.86533        0.667277        0.410568 
        1.87147         0.66087        0.407243 
        1.87761         0.65766        0.403953 
        1.88375        0.652957        0.400704 
        1.88988        0.647895        0.397494 
        1.89601        0.643724        0.394317 
        1.90215         0.64049        0.391172 
        1.90829        0.635972        0.388064 
        1.91442        0.631923        0.384988 
        1.92056        0.628821        0.381949 
         1.9267        0.624148        0.378939 
        1.93284        0.618998         0.37596 
        1.93897        0.615456        0.373018 
        1.94509        0.612175        0.370114 
        1.95123        0.607073        0.367234 
        1.95737        0.604337        0.364382 
        1.96349        0.599747        0.361568 
        1.96964          0.5977        0.358775 
        1.97578        0.591938        0.356011 
        1.98192        0.588336        0.353281 
        1.98805         0.58504        0.350579 
        1.99419        0.581783        0.347905 
        2.00033        0.578562        0.345258 
        2.00647        0.575435        0.342639 
         2.0126        0.572225        0.340052 
        2.01874        0.567933        0.337487 
        2.02488        0.563395        0.334946 
        2.03101        0.560237        0.332437 
        2.03714        0.558087        0.329955 
        2.04328        0.553987        0.327495 
        2.04941         0.55051        0.325063 
        2.05554        0.546926        0.322657 
        2.06167        0.544015        0.320272 
        2.06781        0.539805        0.317911 
        2.07396        0.538216         0.31557 
        2.08009        0.534288        0.313257 
        2.08622        0.531043        0.310969 
        2.09237        0.528379          0.3087 
        2.09851        0.524814        0.306453 
        2.10464        0.521896        0.304232 
        2.11077        0.517344        0.302036 
        2.11691        0.515072        0.299856 
        2.12305        0.513714        0.297698 
        2.12918        0.509254        0.295566 
        2.13531        0.506483        0.293455 
        2.14145        0.503264         0.29136 
         2.1476        0.500608        0.289282 
        2.15372        0.498111        0.287235 
        2.15985        0.494676        0.285206 
        2.16599        0.492384        0.283191 
        2.17213        0.489326        0.281197 
        2.17827        0.486108        0.279223 
         2.1844        0.483758        0.277269 
        2.19054        0.481184        0.275334 
        2.19666        0.478692        0.273419 
         2.2028        0.475615        0.271521 
        2.20893        0.473803         0.26964 
        2.21508         0.47051        0.267775 
        2.22122        0.468297        0.265927 
        2.22736         0.46414          0.2641 
        2.23349        0.461766         0.26229 
        2.23962        0.460416        0.260497 
        2.24577        0.457732        0.258719 
         2.2519        0.454776        0.256959 
        2.25802        0.453135        0.255219 
        2.26417        0.449625         0.25349 
        2.27031        0.447846        0.251776 
        2.27644           0.446        0.250082 
        2.28257         0.44238        0.248404 
        2.28872         0.44124        0.246738 
        2.29486        0.437885        0.245088 
        2.30099        0.435668        0.243456 
        2.30712        0.433627        0.241838 
        2.31326        0.431256        0.240232 
         2.3194        0.428607        0.238642 
        2.32553        0.426256        0.237068 
        2.33166        0.425092         0.23551 
         2.3378        0.422484        0.233963 
        2.34394        0.420359         0.23243 
        2.35007        0.416845        0.230912 
        2.35619        0.414756         0.22941 
        2.36233        0.413144        0.227917 
        2.36848        0.411806        0.226435 
        2.37462        0.409149        0.224969 
        2.38075         0.40695        0.223518 
        2.38689        0.405425        0.222078 
        2.39303        0.402841         0.22065 
        2.39916        0.401106        0.219237 
        2.40529        0.399439        0.217836 
        2.41143        0.396382        0.216447 
        2.41757         0.39479        0.215069 
         2.4237        0.392724        0.213705 
        2.42983        0.390308        0.212354 
        2.43598        0.388741         0.21101 
        2.44211        0.386707         0.20968 
        2.44823        0.384957        0.208365 
        2.45437        0.383532        0.207057 
        2.46052        0.381884         0.20576 
        2.46665        0.379348        0.204476 
        2.47279         0.37765        0.203203 
        2.47892        0.375667         0.20194 
        2.48507         0.37466        0.200687 
         2.4912        0.372016        0.199446 
