# k  (h/Mpc)    P(k)  (Mpc/h)^3    P_linear(k)  (Mpc/h)^3
     0.00783031         657.932          664.15 
       0.013688         802.672         810.801 
       0.019231         809.275         812.617 
      0.0249154         742.104         742.152 
      0.0312784          631.12         631.236 
      0.0375637         525.327         525.756 
      0.0433917          448.98         447.729 
      0.0492413         391.915         391.693 
      0.0555754         353.389         351.918 
      0.0619321         324.259         325.775 
       0.067871         306.217         306.235 
      0.0738098         285.972         285.937 
      0.0800417         261.544         261.045 
      0.0862327         233.088         233.099 
      0.0921407         206.011         205.896 
      0.0982031         181.236         180.416 
       0.104506         158.857         158.876 
       0.110769         143.509         143.326 
       0.116806         134.157         133.314 
       0.122832         127.009         126.787 
       0.129052         122.345         121.828 
       0.135211         117.653         116.951 
       0.141259          111.33         111.061 
       0.147318          103.63         103.739 
       0.153489         95.4838         95.2431 
       0.159709         87.0884          86.524 
       0.165845         78.7272         78.6933 
       0.171974         73.1387         72.2684 
       0.178125         68.2228         67.4356 
       0.184229         64.5827          64.069 
        0.19034         62.5367         61.6931 
       0.196428         60.4722         59.7766 
       0.202534         57.9828         57.8084 
       0.208729         55.9837         55.4277 
       0.214876         53.3595         52.5894 
       0.220989         49.7832         49.4257 
       0.227147         47.0265         46.1609 
        0.23329         44.0667         43.1118 
       0.239377          41.559         40.5065 
       0.245482         39.3926         38.3982 
       0.251667         37.5277         36.7453 
       0.257832         36.5224         35.4581 
       0.263955         35.1505         34.3682 
       0.270079         34.0535         33.3027 
        0.27624          32.742         32.1435 
       0.282372         31.4907          30.856 
        0.28843         30.3988         29.4785 
       0.294538         28.9233         28.0547 
       0.300721         27.3959         26.6653 
        0.30691         26.3671         25.4029 
       0.313033         25.2172         24.3195 
       0.319153         24.5177          23.406 
       0.325316         23.4416         22.6236 
        0.33145         22.7051         21.9351 
       0.337538         22.0963         21.2872 
       0.343633         21.5131         20.6341 
       0.349808         20.7532         19.9458 
       0.355968         20.0184         19.2316 
       0.362074         19.4342         18.5141 
       0.368217         18.6937         17.8066 
       0.374374         18.1485         17.1383 
       0.380519         17.3961         16.5269 
       0.386598          16.804         15.9832 
       0.392688         16.2796         15.4942 
        0.39888          15.895         15.0395 
       0.405048         15.4881         14.6142 
       0.411186         15.0465         14.2026 
       0.417313         14.6257         13.7927 
       0.423458         14.1415         13.3811 
       0.429607         13.8371         12.9695 
       0.435692         13.4813         12.5693 
       0.441815         12.9979         12.1816 
       0.447964         12.5741         11.8129 
       0.454126         12.3039         11.4669 
       0.460267         12.0657         11.1467 
       0.466387         11.7113          10.848 
        0.47254         11.4654         10.5631 
       0.478662         11.1457         10.2907 
       0.484765         10.8805         10.0264 
       0.490885         10.5681         9.76551 
       0.497035         10.2861         9.50723 
       0.503198         10.0811         9.25421 
       0.509342         9.77919         9.00936 
       0.515458         9.59437         8.77444 
       0.521598         9.36835         8.54869 
       0.527764         9.19145         8.33316 
       0.533884         8.90624         8.12971 
           0.54         8.74231         7.93512 
       0.546137         8.49609         7.74697 
       0.552299         8.32922         7.56401 
       0.558452         8.14056          7.3865 
       0.564573         7.99262         7.21426 
       0.570708         7.81481         7.04553 
       0.576825         7.65102         6.88164 
       0.582926         7.47384         6.72312 
       0.589034         7.33469         6.56986 
       0.595184         7.21503         6.42124 
       0.601379         7.02626         6.27696 
       0.607522         6.87874         6.13886 
       0.613639         6.72281         6.00592 
       0.619772         6.61921         5.87685 
       0.625918         6.48171         5.75135 
       0.632068         6.37344         5.62926 
       0.638161         6.24314         5.51141 
         0.6443         6.11491         5.39564 
       0.650464         5.98199          5.2825 
       0.656582         5.91178         5.17336 
       0.662703         5.80265          5.0674 
       0.668861         5.65178         4.96412 
       0.675024         5.55334         4.86393 
       0.681124         5.52673         4.76772 
       0.687237         5.39175         4.67402 
       0.693381         5.25473         4.58239 
       0.699536         5.20767         4.49298 
       0.705665         5.10968         4.40627 
       0.711789         4.99643         4.32187 
       0.717957         4.90354         4.23908 
        0.72409          4.8357         4.15893 
       0.730186         4.78641         4.08138 
       0.736317         4.67408         4.00542 
       0.742472         4.61468         3.93116 
       0.748622         4.54265         3.85888 
        0.75476         4.43211          3.7886 
       0.760888         4.38775         3.72019 
       0.767043         4.27754         3.65321 
       0.773185          4.2269         3.58803 
       0.779291         4.19465         3.52482 
       0.785407         4.10895         3.46305 
       0.791564         4.04599         3.40239 
       0.797719         3.97606         3.34323 
       0.803834         3.92337         3.28586 
       0.809972         3.85518         3.22965 
       0.816124         3.80196         3.17465 
       0.822261         3.74688         3.12109 
       0.828378         3.68686         3.06894 
       0.834502         3.63329         3.01794 
       0.840667         3.59199         2.96778 
       0.846816         3.52383         2.91891 
       0.852925         3.47373         2.87145 
       0.859047         3.42372         2.82496 
       0.865192         3.37643         2.77934 
       0.871341         3.33064         2.73471 
       0.877463         3.27503         2.69126 
       0.883569         3.23599         2.64887 
       0.889708         3.19448         2.60719 
       0.895864         3.15069          2.5663 
       0.902008         3.09714         2.52638 
       0.908149         3.05859         2.48734 
       0.914301         3.02285         2.44906 
       0.920448         2.98604         2.41164 
       0.926574         2.95882         2.37513 
       0.932687         2.91059         2.33946 
       0.938823         2.85709          2.3044 
       0.944975         2.83526         2.26999 
       0.951105         2.77874          2.2364 
       0.957225         2.75647         2.20356 
       0.963368         2.72541         2.17126 
       0.969511         2.69305         2.13962 
       0.975621         2.65147         2.10878 
       0.981748         2.60359         2.07848 
       0.987916         2.57927         2.04858 
        0.99406         2.55821         2.01939 
        1.00019         2.52415         1.99083 
        1.00632         2.49961         1.96285 
        1.01246         2.46262         1.93537 
        1.01859         2.43435         1.90846 
        1.02471         2.39419         1.88211 
        1.03085         2.37086         1.85616 
        1.03698         2.34663         1.83076 
        1.04314         2.32013         1.80573 
        1.04929         2.29431         1.78123 
        1.05541          2.2588         1.75728 
        1.06154         2.24194         1.73372 
        1.06769         2.22195         1.71056 
        1.07382         2.18733          1.6879 
        1.07993         2.15932         1.66571 
        1.08607         2.14238         1.64382 
        1.09222         2.11138         1.62231 
        1.09836         2.10019         1.60121 
        1.10449         2.06026         1.58051 
        1.11063         2.04131         1.56015 
        1.11677         2.02358         1.54016 
         1.1229         1.99478         1.52056 
        1.12903         1.98212         1.50128 
        1.13518         1.95303         1.48233 
        1.14131         1.93503         1.46371 
        1.14745         1.91388         1.44543 
        1.15359         1.89338         1.42745 
        1.15973          1.8721         1.40977 
        1.16584         1.85207         1.39248 
        1.17197         1.83016         1.37545 
        1.17811         1.81102         1.35865 
        1.18424         1.79214         1.34219 
        1.19038         1.77327         1.32595 
        1.19652         1.75924         1.30998 
        1.20267         1.74484         1.29429 
        1.20881         1.72159         1.27885 
        1.21495         1.70593         1.26369 
        1.22108         1.69059         1.24878 
         1.2272          1.6659         1.23414 
        1.23334         1.65603         1.21971 
        1.23949         1.63868         1.20548 
        1.24562         1.62326         1.19151 
        1.25174         1.60958         1.17779 
        1.25789         1.58771         1.16424 
        1.26402         1.57182         1.15093 
        1.27014         1.55457         1.13786 
        1.27628         1.54376         1.12496 
        1.28244         1.52929         1.11223 
        1.28858         1.51297         1.09972 
        1.29471         1.49571         1.08743 
        1.30084         1.48482         1.07534 
        1.30697         1.47454         1.06341 
        1.31312         1.45886         1.05165 
        1.31925         1.44514         1.04011 
        1.32537         1.43368         1.02875 
        1.33151         1.41721         1.01752 
        1.33765         1.40567         1.00646 
        1.34378         1.39237        0.995595 
        1.34992         1.38223         0.98488 
        1.35606         1.36779          0.9743 
         1.3622         1.35708        0.963895 
        1.36833         1.34283        0.953667 
        1.37445         1.33042        0.943593 
        1.38059         1.31924        0.933633 
        1.38675         1.30737        0.923794 
        1.39288         1.29798        0.914137 
        1.39901         1.28459        0.904622 
        1.40515         1.27292        0.895222 
         1.4113         1.26658        0.885959 
        1.41742         1.25064        0.876863 
        1.42355         1.23855        0.867878 
         1.4297         1.23201        0.858993 
        1.43585         1.21988        0.850235 
        1.44198         1.21032        0.841634 
        1.44809         1.19993        0.833168 
        1.45423         1.19046        0.824788 
        1.46036         1.18059        0.816538 
        1.46649         1.16675        0.808399 
        1.47263           1.161        0.800364 
        1.47877         1.15546        0.792443 
        1.48491         1.13837        0.784616 
        1.49104         1.13303        0.776912 
        1.49718         1.12152        0.769306 
        1.50333         1.11338        0.761791 
        1.50947         1.10632        0.754391 
         1.5156         1.09606        0.747101 
        1.52172         1.08836        0.739907 
        1.52787         1.07814        0.732795 
          1.534         1.07241        0.725784 
        1.54013         1.06207        0.718873 
        1.54627         1.05375        0.712039 
        1.55241         1.04377        0.705294 
        1.55855         1.03685        0.698645 
        1.56467         1.02877        0.692101 
         1.5708           1.021        0.685622 
        1.57695         1.01167        0.679217 
        1.58308         1.00234        0.672908 
        1.58922        0.998126        0.666676 
        1.59535        0.987345        0.660524 
         1.6015        0.979955        0.654442 
        1.60764        0.973898         0.64844 
        1.61376        0.965494         0.64253 
        1.61989        0.959313        0.636688 
        1.62604        0.949072        0.630907 
        1.63218        0.946131        0.625201 
        1.63831        0.937223        0.619579 
        1.64444        0.930459        0.614024 
        1.65059         0.92463        0.608524 
        1.65673        0.915526        0.603098 
        1.66285        0.909801        0.597753 
        1.66898        0.904568        0.592471 
        1.67512         0.89457        0.587243 
        1.68127        0.888448        0.582073 
         1.6874         0.88512        0.576977 
        1.69353        0.876458        0.571945 
        1.69967        0.871336        0.566962 
        1.70581        0.866914         0.56204 
        1.71193        0.857701        0.557195 
        1.71806        0.853222        0.552397 
        1.72421        0.847498        0.547646 
        1.73035        0.838035        0.542956 
        1.73649        0.837209        0.538323 
        1.74262        0.828014        0.533748 
        1.74876        0.822981        0.529222 
        1.75489        0.818191        0.524759 
        1.76101        0.810133        0.520348 
        1.76715        0.806008        0.515983 
        1.77329        0.801189        0.511662 
        1.77943        0.795336        0.507389 
        1.78557        0.791691        0.503171 
        1.79171        0.785937           0.499 
        1.79785        0.779901        0.494876 
        1.80399        0.772877        0.490799 
        1.81012        0.768988        0.486774 
        1.81625        0.763404        0.482796 
        1.82239        0.759319        0.478856 
        1.82853        0.753508        0.474963 
        1.83466        0.748044        0.471116 
        1.84078        0.742807        0.467316 
        1.84692        0.738826        0.463552 
        1.85306        0.735462        0.459825 
         1.8592        0.728377        0.456145 
        1.86533        0.725068        0.452508 
        1.87147        0.717838        0.448905 
        1.87761         0.71481        0.445341 
        1.88375        0.710066         0.44182 
        1.88988        0.704504         0.43834 
        1.89601        0.700016        0.434896 
        1.90215        0.696757        0.431487 
        1.90829        0.691601        0.428115 
        1.91442        0.687352         0.42478 
        1.92056        0.684495        0.421483 
         1.9267        0.678851        0.418218 
        1.93284        0.673795        0.414985 
        1.93897        0.670239        0.411793 
        1.94509         0.66707        0.408641 
        1.95123        0.660894        0.405514 
        1.95737        0.657837        0.402417 
        1.96349         0.65331        0.399361 
        1.96964        0.650708        0.396328 
        1.97578         0.64449        0.393325 
        1.98192        0.641468         0.39036 
        1.98805        0.637835        0.387424 
        1.99419        0.634513        0.384519 
        2.00033         0.63085        0.381642 
        2.00647        0.627154        0.378796 
         2.0126        0.623781        0.375983 
        2.01874        0.619618        0.373194 
        2.02488        0.614461        0.370432 
        2.03101        0.611185        0.367702 
        2.03714        0.609013        0.365003 
        2.04328        0.604143        0.362328 
        2.04941        0.600736        0.359682 
        2.05554        0.597355        0.357064 
        2.06167        0.594057        0.354468 
        2.06781        0.588905        0.351898 
        2.07396         0.58779         0.34935 
        2.08009        0.583273        0.346832 
        2.08622        0.580091        0.344341 
        2.09237        0.577082         0.34187 
        2.09851        0.572842        0.339423 
        2.10464        0.570359        0.337003 
        2.11077        0.565153        0.334611 
        2.11691        0.563102        0.332236 
        2.12305        0.561376        0.329884 
        2.12918        0.556608        0.327561 
        2.13531        0.553637        0.325259 
        2.14145        0.550218        0.322975 
         2.1476        0.547961         0.32071 
        2.15372        0.544715        0.318478 
        2.15985        0.541073        0.316265 
        2.16599        0.538858        0.314067 
        2.17213        0.535576        0.311892 
        2.17827        0.531557        0.309738 
         2.1844        0.529994        0.307607 
        2.19054        0.527041        0.305495 
        2.19666        0.524238        0.303406 
         2.2028        0.520709        0.301334 
        2.20893        0.518561        0.299281 
        2.21508        0.515429        0.297244 
        2.22122        0.513131        0.295226 
        2.22736        0.508389        0.293231 
        2.23349        0.505772        0.291255 
        2.23962        0.504186        0.289296 
        2.24577        0.501498        0.287353 
         2.2519        0.498722        0.285431 
        2.25802        0.496655        0.283529 
        2.26417        0.492847         0.28164 
        2.27031        0.490875        0.279766 
        2.27644        0.489443        0.277914 
        2.28257        0.485091         0.27608 
        2.28872        0.483795        0.274258 
        2.29486        0.480364        0.272454 
        2.30099        0.478166        0.270669 
        2.30712        0.475599        0.268899 
        2.31326        0.473281        0.267143 
         2.3194        0.471051        0.265403 
        2.32553        0.467964        0.263681 
        2.33166        0.466676        0.261976 
         2.3378        0.463719        0.260283 
        2.34394        0.461463        0.258605 
        2.35007        0.458045        0.256943 
        2.35619        0.455358        0.255299 
        2.36233        0.453703        0.253665 
        2.36848        0.452357        0.252042 
        2.37462        0.449856        0.250436 
        2.38075        0.447084        0.248847 
        2.38689        0.445499        0.247269 
        2.39303        0.442826        0.245706 
        2.39916        0.440607        0.244157 
        2.40529        0.439191        0.242623 
        2.41143        0.435846          0.2411 
        2.41757        0.434086        0.239589 
         2.4237        0.432002        0.238095 
        2.42983        0.429696        0.236613 
        2.43598        0.427848         0.23514 
        2.44211        0.425137        0.233682 
        2.44823         0.42375        0.232239 
        2.45437        0.422123        0.230805 
        2.46052        0.420137        0.229382 
        2.46665        0.417416        0.227973 
        2.47279        0.415513        0.226576 
        2.47892        0.413599        0.225191 
        2.48507        0.412256        0.223815 
         2.4912        0.409663        0.222454 
