# k  (h/Mpc)    P(k)  (Mpc/h)^3    P_linear(k)  (Mpc/h)^3
     0.00783031         17827.2         17997.3 
       0.013688         21314.3         21977.6 
       0.019231         21610.8         22019.1 
      0.0249154         20115.9         20103.5 
      0.0312784           16882         17094.7 
      0.0375637         13955.5         14235.6 
      0.0433917           12039         12121.4 
      0.0492413         10458.9         10603.3 
      0.0555754         9477.32         9525.87 
      0.0619321         8484.27         8817.68 
       0.067871          8093.2         8288.43 
      0.0738098         7624.93         7738.77 
      0.0800417         6974.56         7064.82 
      0.0862327         6207.45         6308.35 
      0.0921407         5553.63         5572.02 
      0.0982031         4981.25         4882.39 
       0.104506         4358.19         4299.41 
       0.110769         3990.25         3878.54 
       0.116806            3787         3607.55 
       0.122832         3570.68         3430.89 
       0.129052         3392.78         3296.67 
       0.135211         3321.53         3164.69 
       0.141259         3091.18         3005.28 
       0.147318         2874.87         2807.13 
       0.153489         2689.07         2577.21 
       0.159709         2555.93         2341.27 
       0.165845         2316.88         2129.37 
       0.171974         2232.97          1955.5 
       0.178125          2142.6         1824.73 
       0.184229         1971.92         1733.62 
        0.19034         1947.96         1669.33 
       0.196428         1895.13         1617.47 
       0.202534         1786.09         1564.21 
       0.208729         1754.98         1499.79 
       0.214876         1673.85         1422.98 
       0.220989         1588.04         1337.37 
       0.227147         1537.85         1249.03 
        0.23329         1471.45         1166.53 
       0.239377          1459.3         1096.03 
       0.245482         1385.63         1038.98 
       0.251667         1335.29         994.255 
       0.257832         1311.61         959.425 
       0.263955         1252.95         929.932 
       0.270079         1219.22         901.102 
        0.27624         1169.69         869.736 
       0.282372          1155.2         834.898 
        0.28843         1133.55         797.625 
       0.294538         1080.94         759.098 
       0.300721         1059.74         721.504 
        0.30691         1032.12         687.344 
       0.313033         991.318         658.031 
       0.319153         980.568         633.313 
       0.325316         967.213         612.143 
        0.33145         944.592         593.512 
       0.337538         913.136         575.981 
       0.343633         892.588          558.31 
       0.349808         875.274         539.684 
       0.355968         858.078          520.36 
       0.362074         830.032         500.947 
       0.368217         827.364         481.804 
       0.374374          814.55         463.719 
       0.380519         784.971         447.176 
       0.386598         780.133         432.466 
       0.392688         759.528         419.235 
        0.39888         744.422         406.932 
       0.405048         728.493         395.424 
       0.411186         727.443         384.286 
       0.417313          721.25         373.196 
       0.423458         700.459          362.06 
       0.429607         681.436         350.922 
       0.435692         674.698         340.093 
       0.441815         661.382         329.603 
       0.447964         653.141         319.626 
       0.454126         644.667         310.265 
       0.460267         636.185         301.601 
       0.466387         623.851         293.519 
        0.47254         615.497         285.811 
       0.478662         605.428         278.439 
       0.484765         598.315         271.287 
       0.490885         592.621         264.229 
       0.497035         580.153         257.241 
       0.503198         579.648         250.394 
       0.509342         568.556         243.769 
       0.515458         557.175         237.413 
       0.521598         555.718         231.305 
       0.527764          542.82         225.473 
       0.533884          536.76         219.968 
           0.54         533.007         214.703 
       0.546137         524.531         209.612 
       0.552299         521.801         204.662 
       0.558452         514.183         199.859 
       0.564573         511.529         195.198 
       0.570708         504.846         190.633 
       0.576825         495.216         186.198 
       0.582926         493.902         181.909 
       0.589034         485.881         177.763 
       0.595184         481.523         173.741 
       0.601379         474.117         169.837 
       0.607522         466.099         166.101 
       0.613639         465.619         162.504 
       0.619772         462.631         159.011 
       0.625918         454.378         155.616 
       0.632068         452.393         152.312 
       0.638161         447.259         149.124 
         0.6443         441.374         145.991 
       0.650464         437.938          142.93 
       0.656582         434.203         139.977 
       0.662703         430.434          137.11 
       0.668861         423.917         134.315 
       0.675024         422.558         131.605 
       0.681124         413.648         129.001 
       0.687237         413.596         126.466 
       0.693381         407.358         123.987 
       0.699536          407.43         121.568 
       0.705665         401.199         119.221 
       0.711789         399.758         116.938 
       0.717957          394.78         114.698 
        0.72409         390.705         112.529 
       0.730186         391.112         110.431 
       0.736317         384.657         108.376 
       0.742472         381.406         106.366 
       0.748622         380.112         104.411 
        0.75476         375.449         102.509 
       0.760888         373.453         100.658 
       0.767043          370.14         98.8456 
       0.773185         367.014          97.082 
       0.779291           363.6         95.3717 
       0.785407         361.118         93.7005 
       0.791564         359.066         92.0591 
       0.797719          353.31         90.4583 
       0.803834         354.356         88.9061 
       0.809972         348.645         87.3852 
       0.816124           346.2          85.897 
       0.822261         343.683         84.4478 
       0.828378         342.145         83.0367 
       0.834502         336.558         81.6569 
       0.840667         336.313         80.2998 
       0.846816         332.147         78.9775 
       0.852925         332.529         77.6934 
       0.859047         328.636         76.4353 
       0.865192         326.911         75.2011 
       0.871341         323.179         73.9934 
       0.877463          322.07         72.8179 
       0.883569          319.35          71.671 
       0.889708          316.17         70.5431 
       0.895864         312.528         69.4367 
       0.902008         311.516         68.3566 
       0.908149          308.42         67.3003 
       0.914301         307.342         66.2647 
       0.920448         303.999         65.2521 
       0.926574         302.324         64.2643 
       0.932687         301.616         63.2992 
       0.938823         298.216         62.3506 
       0.944975         297.547         61.4194 
       0.951105         294.819         60.5106 
       0.957225         291.431          59.622 
       0.963368         291.786         58.7482 
       0.969511         287.309         57.8921 
       0.975621         285.017         57.0577 
       0.981748         284.518         56.2377 
       0.987916          282.52         55.4288 
        0.99406         279.851         54.6389 
        1.00019          277.27         53.8661 
        1.00632         276.841         53.1091 
        1.01246         274.416         52.3656 
        1.01859          271.93         51.6376 
        1.02471         270.255         50.9244 
        1.03085         269.235         50.2223 
        1.03698         267.735          49.535 
        1.04314         266.024         48.8578 
        1.04929         264.558         48.1949 
        1.05541         262.595          47.547 
        1.06154         260.257         46.9096 
        1.06769          258.41         46.2829 
        1.07382         256.272         45.6698 
        1.07993          255.51         45.0692 
        1.08607         254.225          44.477 
        1.09222         251.638         43.8949 
        1.09836         250.598          43.324 
        1.10449         249.076         42.7639 
        1.11063         247.461         42.2132 
        1.11677         245.035         41.6723 
         1.1229         244.697          41.142 
        1.12903         242.102         40.6204 
        1.13518         240.709         40.1075 
        1.14131         239.612         39.6038 
        1.14745         237.473          39.109 
        1.15359         235.636         38.6227 
        1.15973         234.602         38.1444 
        1.16584         233.025         37.6764 
        1.17197         232.038         37.2156 
        1.17811         229.562         36.7612 
        1.18424         228.499         36.3157 
        1.19038         227.577         35.8763 
        1.19652         225.184         35.4444 
        1.20267         224.328         35.0196 
        1.20881         222.893         34.6019 
        1.21495         221.877         34.1917 
        1.22108         220.274         33.7882 
         1.2272         218.322         33.3923 
        1.23334         217.134         33.0018 
        1.23949         216.028         32.6167 
        1.24562         214.589         32.2388 
        1.25174          213.86         31.8674 
        1.25789         211.635         31.5009 
        1.26402           211.1         31.1408 
        1.27014         209.849         30.7872 
        1.27628         208.625          30.438 
        1.28244          206.56         30.0937 
        1.28858         205.856         29.7551 
        1.29471         204.322         29.4226 
        1.30084         204.022         29.0954 
        1.30697         201.864         28.7728 
        1.31312          200.94         28.4546 
        1.31925         199.639         28.1422 
        1.32537         198.925         27.8349 
        1.33151         197.087         27.5311 
        1.33765         195.991         27.2319 
        1.34378         195.382         26.9379 
        1.34992         193.376          26.648 
        1.35606         192.785         26.3617 
         1.3622         190.978         26.0802 
        1.36833         190.811         25.8034 
        1.37445         189.842         25.5308 
        1.38059         187.614         25.2614 
        1.38675         186.388         24.9952 
        1.39288          185.87         24.7338 
        1.39901         184.151         24.4764 
        1.40515         183.413         24.2221 
         1.4113         182.482         23.9714 
        1.41742         181.127         23.7253 
        1.42355         180.084         23.4822 
         1.4297         179.188         23.2418 
        1.43585         178.529         23.0049 
        1.44198         176.963         22.7721 
        1.44809          176.35         22.5431 
        1.45423         175.226         22.3163 
        1.46036         174.226         22.0931 
        1.46649         172.859         21.8729 
        1.47263         172.158         21.6555 
        1.47877         171.153         21.4412 
        1.48491         169.913         21.2294 
        1.49104         168.295         21.0209 
        1.49718         167.979         20.8152 
        1.50333         166.437         20.6118 
        1.50947         165.778         20.4116 
         1.5156         164.832         20.2143 
        1.52172         163.818         20.0197 
        1.52787         163.121         19.8272 
          1.534         162.413         19.6376 
        1.54013         161.132         19.4506 
        1.54627         160.553         19.2657 
        1.55241         159.546         19.0832 
        1.55855         158.582         18.9033 
        1.56467         157.606         18.7262 
         1.5708         156.505         18.5509 
        1.57695         155.927         18.3776 
        1.58308         154.719         18.2069 
        1.58922         153.768         18.0383 
        1.59535         152.899         17.8718 
         1.6015         152.071         17.7073 
        1.60764         151.009         17.5448 
        1.61376         150.199         17.3849 
        1.61989         149.389         17.2269 
        1.62604         148.709         17.0705 
        1.63218         147.733         16.9161 
        1.63831         147.056         16.7639 
        1.64444         145.839         16.6136 
        1.65059          145.15         16.4648 
        1.65673         144.272          16.318 
        1.66285         143.521         16.1734 
        1.66898         142.824         16.0305 
        1.67512         141.636          15.889 
        1.68127         141.076         15.7491 
         1.6874         140.301         15.6113 
        1.69353          139.57         15.4751 
        1.69967         138.618         15.3403 
        1.70581         138.097         15.2071 
        1.71193         137.237          15.076 
        1.71806         136.295         14.9462 
        1.72421         135.443         14.8177 
        1.73035         134.823         14.6908 
        1.73649         133.879         14.5654 
        1.74262         133.112         14.4416 
        1.74876         132.493         14.3192 
        1.75489         132.204         14.1984 
        1.76101         130.983         14.0791 
        1.76715         130.291         13.9609 
        1.77329         129.413          13.844 
        1.77943         128.629         13.7284 
        1.78557         127.785         13.6143 
        1.79171          127.18         13.5014 
        1.79785         126.327         13.3898 
        1.80399          125.78         13.2795 
        1.81012         125.308         13.1706 
        1.81625          124.24          13.063 
        1.82239         123.964         12.9564 
        1.82853         122.823         12.8511 
        1.83466         121.951          12.747 
        1.84078         121.633         12.6442 
        1.84692         121.059         12.5423 
        1.85306         120.235         12.4415 
         1.8592         119.675         12.3419 
        1.86533         118.792         12.2435 
        1.87147         118.051          12.146 
        1.87761         117.549         12.0496 
        1.88375         116.783         11.9543 
        1.88988         116.225         11.8602 
        1.89601         115.548          11.767 
        1.90215         115.099         11.6747 
        1.90829         114.147         11.5835 
        1.91442         113.453         11.4932 
        1.92056         113.114          11.404 
         1.9267         112.291         11.3157 
        1.93284         111.466         11.2282 
        1.93897         111.199         11.1419 
        1.94509         110.448         11.0566 
        1.95123         109.839          10.972 
        1.95737         109.304         10.8882 
        1.96349         108.617         10.8055 
        1.96964         107.853         10.7234 
        1.97578         107.436         10.6422 
        1.98192         106.964         10.5619 
        1.98805         106.453         10.4825 
        1.99419         105.657         10.4039 
        2.00033         105.128         10.3261 
        2.00647         104.641          10.249 
         2.0126         103.909         10.1729 
        2.01874         103.204         10.0975 
        2.02488         102.893         10.0228 
        2.03101         102.364          9.9489 
        2.03714         101.689         9.87586 
        2.04328         101.224         9.80348 
        2.04941         100.592         9.73188 
        2.05554          100.28         9.66105 
        2.06167           99.45         9.59082 
        2.06781         99.1455         9.52129 
        2.07396         98.4541         9.45235 
        2.08009         97.8318          9.3842 
        2.08622          97.419         9.31681 
        2.09237         96.7184         9.24995 
        2.09851         96.3506         9.18373 
        2.10464         95.9289         9.11827 
        2.11077         95.2442         9.05353 
        2.11691         94.6575         8.98928 
        2.12305         94.1387         8.92564 
        2.12918          93.725         8.86278 
        2.13531         93.2246         8.80052 
        2.14145         92.7742         8.73871 
         2.1476         92.2054         8.67742 
        2.15372         91.6405         8.61703 
        2.15985         91.2491         8.55716 
        2.16599         90.5393         8.49768 
        2.17213         90.2791         8.43884 
        2.17827          89.756         8.38056 
         2.1844         89.2153         8.32289 
        2.19054         88.7472         8.26574 
        2.19666         88.0641         8.20921 
         2.2028         87.9352         8.15316 
        2.20893         87.4514         8.09761 
        2.21508         86.7302         8.04251 
        2.22122         86.3217         7.98791 
        2.22736         86.1048         7.93392 
        2.23349         85.5959         7.88045 
        2.23962         85.1087         7.82744 
        2.24577         84.4858         7.77488 
         2.2519         84.0736         7.72287 
        2.25802         83.7252         7.67142 
        2.26417         83.1383          7.6203 
        2.27031         82.5946         7.56959 
        2.27644         82.3119         7.51949 
        2.28257         82.0609         7.46986 
        2.28872         81.4556         7.42057 
        2.29486         81.1275         7.37174 
        2.30099         80.6261         7.32345 
        2.30712           80.26         7.27557 
        2.31326         79.7595         7.22804 
         2.3194         79.4565         7.18096 
        2.32553         79.0557         7.13438 
        2.33166         78.5859         7.08824 
         2.3378          78.079         7.04244 
        2.34394         77.7335         6.99703 
        2.35007         77.2582         6.95208 
        2.35619         76.7369         6.90759 
        2.36233         76.3466         6.86338 
        2.36848         76.1068         6.81946 
        2.37462         75.7454         6.77602 
        2.38075         75.2771         6.73301 
        2.38689         74.9645         6.69033 
        2.39303         74.6549         6.64802 
        2.39916         74.1355         6.60613 
        2.40529         73.8176          6.5646 
        2.41143         73.3167          6.5234 
        2.41757         72.8504         6.48253 
         2.4237         72.6435         6.44209 
        2.42983         72.1783           6.402 
        2.43598         71.8885         6.36214 
        2.44211          71.526         6.32269 
        2.44823         71.1131         6.28366 
        2.45437         70.8717         6.24485 
        2.46052         70.4235         6.20634 
        2.46665         69.8708         6.16822 
        2.47279         69.6662         6.13044 
        2.47892          69.299         6.09295 
        2.48507         68.9624         6.05573 
         2.4912         68.5992          6.0189 
