#  k  (h/Mpc)          P(k)  (Mpc/h)^3     P_linear(k) (Mpc/h)^3
     0.00783031         3260.87          3296.7 
       0.013688         4072.86         4066.47 
       0.019231         4099.09          4094.9 
      0.0249154         3719.94         3753.09 
      0.0312784         3206.24         3213.56 
      0.0375637         2719.65         2710.97 
      0.0433917         2339.72         2349.27 
      0.0492413         2096.46         2095.46 
      0.0555754         1895.85         1914.03 
      0.0619321         1792.76         1782.65 
       0.067871         1654.16         1667.06 
      0.0738098         1523.58         1536.46 
      0.0800417         1362.39         1379.94 
      0.0862327         1210.67         1217.49 
      0.0921407         1075.08         1073.51 
      0.0982031         949.179          951.08 
       0.104506         868.922         857.169 
       0.110769         804.231         794.589 
       0.116806         757.404          754.42 
       0.122832         729.429         723.144 
       0.129052         688.302         689.884 
       0.135211         648.874         649.795 
       0.141259         608.238         602.816 
       0.147318         561.496         551.836 
       0.153489          509.21         501.595 
       0.159709          469.26         457.856 
       0.165845          441.31         424.188 
       0.171974         412.786         399.888 
       0.178125         395.798         382.617 
       0.184229         382.561         369.184 
        0.19034         362.158         356.118 
       0.196428         352.228         341.173 
       0.202534         338.423          323.48 
       0.208729         317.141         303.512 
       0.214876         295.823         283.376 
       0.220989         281.923          264.83 
       0.227147          263.59         248.917 
        0.23329         251.473         236.246 
       0.239377         243.681         226.487 
       0.245482          230.63         218.586 
       0.251667         226.852         211.374 
       0.257832         219.293         204.022 
       0.263955         210.932         196.021 
       0.270079         202.366         187.278 
        0.27624          196.46         178.128 
       0.282372           187.7         169.218 
        0.28843         179.208          161.13 
       0.294538         171.484         154.002 
       0.300721         167.889         147.891 
        0.30691         160.475         142.698 
       0.313033         156.096         138.137 
       0.319153         149.322         133.809 
       0.325316         146.711         129.408 
        0.33145         141.247         124.866 
       0.337538         138.046         120.221 
       0.343633         132.942         115.568 
       0.349808         128.662         111.031 
       0.355968         125.248         106.821 
       0.362074          121.24         103.053 
       0.368217         117.749         99.6515 
       0.374374         114.304         96.5699 
       0.380519          111.66         93.7085 
       0.386598         108.677         90.9782 
       0.392688         106.601         88.2772 
        0.39888         103.602         85.5235 
       0.405048         101.077         82.7912 
       0.411186         98.6803         80.1281 
       0.417313         95.7099         77.5693 
       0.423458         93.3786         75.1493 
       0.429607         90.9638         72.8954 
       0.435692         87.9854         70.8168 
       0.441815         87.0036         68.8571 
       0.447964         85.5311         66.9889 
       0.454126         81.8672         65.1789 
       0.460267         80.7335         63.4129 
       0.466387         78.8352         61.6873 
        0.47254         77.5081         59.9862 
       0.478662         76.3015         58.3374 
       0.484765         74.0902         56.7531 
       0.490885         72.5706         55.2376 
       0.497035         71.6268         53.7887 
       0.503198         69.6731         52.4068 
       0.509342         67.9842         51.0925 
       0.515458         66.8244         49.8373 
       0.521598         65.8336         48.6183 
       0.527764         64.6228         47.4258 
       0.533884         63.5361         46.2709 
           0.54         62.2138         45.1483 
       0.546137         61.4275         44.0555 
       0.552299         60.4891         42.9941 
       0.558452         58.7569         41.9716 
       0.564573          57.764         40.9921 
       0.570708         57.0168         40.0484 
       0.576825         55.8678         39.1426 
       0.582926         54.7564         38.2697 
       0.589034          53.505         37.4215 
       0.595184         52.8643         36.5906 
       0.601379         52.0673         35.7765 
       0.607522         50.8908          34.992 
       0.613639         50.6399         34.2337 
       0.619772         49.3717         33.4965 
       0.625918         49.0632         32.7804 
       0.632068         48.3311         32.0858 
       0.638161         47.4948         31.4185 
         0.6443          46.672         30.7665 
       0.650464         45.9415         30.1316 
       0.656582          45.579         29.5198 
       0.662703         44.6689         28.9251 
       0.668861         44.0143         28.3432 
       0.675024         43.3535         27.7764 
       0.681124         42.6133         27.2302 
       0.687237         41.8979         26.6973 
       0.693381         41.5909         26.1762 
       0.699536         40.6739         25.6682 
       0.705665          40.761         25.1763 
       0.711789         39.7241         24.6984 
       0.717957          39.291         24.2301 
        0.72409         38.7607         23.7769 
       0.730186         38.1721         23.3383 
       0.736317         37.8948         22.9085 
       0.742472           37.24         22.4879 
       0.748622           36.93         22.0781 
        0.75476         36.3835         21.6794 
       0.760888         35.8316         21.2911 
       0.767043         35.4474         20.9108 
       0.773185         34.9069         20.5406 
       0.779291         34.7578         20.1815 
       0.785407         34.3876         19.8307 
       0.791564         33.7838         19.4862 
       0.797719         33.1133         19.1501 
       0.803834         33.0757         18.8242 
       0.809972         32.6845         18.5048 
       0.816124         32.0324         18.1923 
       0.822261         31.8192         17.8879 
       0.828378         31.5636         17.5914 
       0.834502         31.2046         17.3014 
       0.840667         30.8625         17.0162 
       0.846816          30.364         16.7382 
       0.852925         30.1063         16.4683 
       0.859047         29.7532         16.2037 
       0.865192         29.4873         15.9442 
       0.871341         29.3341         15.6902 
       0.877463         28.7552          15.443 
       0.883569         28.4885         15.2018 
       0.889708          28.195         14.9645 
       0.895864         27.9542         14.7317 
       0.902008         27.7315         14.5044 
       0.908149         27.4467         14.2821 
       0.914301         27.3443         14.0641 
       0.920448           26.82         13.8509 
       0.926574          26.639         13.6429 
       0.932687         26.3582         13.4397 
       0.938823          26.007         13.2399 
       0.944975          25.832         13.0437 
       0.951105         25.6038         12.8523 
       0.957225         25.3072          12.665 
       0.963368         25.1876         12.4809 
       0.969511         24.9588         12.3005 
       0.975621         24.7585         12.1246 
       0.981748         24.4065         11.9517 
       0.987916         24.2891         11.7812 
        0.99406         24.0233         11.6146 
        1.00019         23.7324         11.4516 
        1.00632         23.6228         11.2919 
        1.01246         23.4527         11.1351 
        1.01859         23.1019         10.9815 
        1.02471          23.062          10.831 
        1.03085         22.8435         10.6828 
        1.03698         22.4848         10.5377 
        1.04314          22.357         10.3947 
        1.04929         22.1384         10.2547 
        1.05541         21.9151         10.1179 
        1.06154         21.8126         9.98329 
        1.06769         21.6755         9.85092 
        1.07382         21.4372         9.72139 
        1.07993         21.3409          9.5945 
        1.08607         21.0652         9.46937 
        1.09222         20.9692         9.34636 
        1.09836          20.717         9.22569 
        1.10449          20.609          9.1073 
        1.11063         20.3636         8.99088 
        1.11677         20.3037         8.87655 
         1.1229         20.1997         8.76442 
        1.12903         19.9316         8.65414 
        1.13518         19.7411         8.54568 
        1.14131         19.6982         8.43915 
        1.14745         19.5325         8.33451 
        1.15359          19.428         8.23164 
        1.15973          19.225         8.13047 
        1.16584         18.9913         8.03146 
        1.17197         18.9983         7.93398 
        1.17811         18.7684         7.83782 
        1.18424         18.6163         7.74355 
        1.19038         18.5623         7.65056 
        1.19652         18.4138         7.55915 
        1.20267          18.265         7.46924 
        1.20881         18.1614         7.38082 
        1.21495         18.0429         7.29398 
        1.22108         17.8799         7.20856 
         1.2272         17.7157         7.12471 
        1.23334         17.6266         7.04201 
        1.23949          17.464         6.96043 
        1.24562         17.4127         6.88038 
        1.25174         17.3058         6.80171 
        1.25789         17.1701         6.72404 
        1.26402         17.1027         6.64772 
        1.27014         16.9262         6.57278 
        1.27628         16.7579         6.49878 
        1.28244         16.7114         6.42578 
        1.28858         16.6564         6.35401 
        1.29471          16.494          6.2835 
        1.30084         16.3601         6.21413 
        1.30697         16.2734          6.1457 
        1.31312         16.1164         6.07822 
        1.31925         16.0189         6.01196 
        1.32537         15.9777         5.94677 
        1.33151          15.837         5.88231 
        1.33765         15.7628         5.81885 
        1.34378         15.6735         5.75645 
        1.34992         15.4951         5.69494 
        1.35606         15.4741         5.63419 
         1.3622         15.3765         5.57444 
        1.36833         15.2448         5.51571 
        1.37445         15.2035         5.45785 
        1.38059         15.0961         5.40065 
        1.38675         14.9377         5.34414 
        1.39288          14.908         5.28867 
        1.39901         14.7839         5.23402 
        1.40515         14.7242         5.18001 
         1.4113         14.6184          5.1268 
        1.41742         14.5153         5.07453 
        1.42355         14.4514         5.02291 
         1.4297         14.3842         4.97184 
        1.43585         14.3312         4.92151 
        1.44198         14.2007         4.87208 
        1.44809         14.1336         4.82341 
        1.45423         14.0474         4.77524 
        1.46036         13.9797         4.72781 
        1.46649          13.914         4.68101 
        1.47263         13.7923         4.63482 
        1.47877         13.7266         4.58927 
        1.48491         13.6708         4.54426 
        1.49104         13.6085         4.49995 
        1.49718         13.5061          4.4562 
        1.50333         13.4522         4.41297 
        1.50947         13.3787          4.3704 
         1.5156         13.2727         4.32846 
        1.52172         13.2165         4.28707 
        1.52787         13.1482         4.24614 
          1.534         13.0596          4.2058 
        1.54013         12.9725         4.16602 
        1.54627         12.9071         4.12669 
        1.55241         12.8523         4.08786 
        1.55855         12.7864         4.04959 
        1.56467         12.7092         4.01191 
         1.5708         12.6958         3.97461 
        1.57695         12.5785         3.93773 
        1.58308         12.5324          3.9014 
        1.58922         12.4714         3.86551 
        1.59535         12.4073         3.83009 
         1.6015         12.3193         3.79506 
        1.60764         12.2602         3.76049 
        1.61376         12.2312         3.72644 
        1.61989         12.1225         3.69279 
        1.62604         12.1111         3.65949 
        1.63218         12.0315         3.62661 
        1.63831          11.989         3.59422 
        1.64444         11.8889         3.56221 
        1.65059         11.8309         3.53052 
        1.65673          11.815         3.49925 
        1.66285         11.6948         3.46844 
        1.66898         11.6823           3.438 
        1.67512         11.6233         3.40787 
        1.68127         11.5573         3.37807 
         1.6874         11.5006         3.34869 
        1.69353          11.436         3.31969 
        1.69967         11.3853         3.29096 
        1.70581         11.3363         3.26258 
        1.71193         11.2657         3.23464 
        1.71806         11.2399         3.20698 
        1.72421         11.1574         3.17958 
        1.73035         11.1281         3.15254 
        1.73649         11.0773         3.12582 
        1.74262         11.0363         3.09943 
        1.74876          10.987         3.07333 
        1.75489         10.9304         3.04758 
        1.76101         10.8467         3.02214 
        1.76715         10.8489         2.99695 
        1.77329          10.757         2.97202 
        1.77943          10.709         2.94737 
        1.78557         10.6847         2.92303 
        1.79171          10.647         2.89896 
        1.79785         10.5625         2.87516 
        1.80399         10.5257         2.85163 
        1.81012         10.4913          2.8284 
        1.81625         10.4269         2.80543 
        1.82239         10.3884         2.78269 
        1.82853         10.3172         2.76021 
        1.83466         10.2838         2.73801 
        1.84078         10.2165         2.71607 
        1.84692         10.2096         2.69434 
        1.85306           10.15         2.67282 
         1.8592         10.1022         2.65156 
        1.86533         10.0713         2.63056 
        1.87147         10.0254         2.60975 
        1.87761         9.99048         2.58917 
        1.88375         9.91223         2.56883 
        1.88988         9.91218         2.54873 
        1.89601         9.85763         2.52883 
        1.90215          9.8027         2.50913 
        1.90829         9.76379         2.48966 
        1.91442         9.72271         2.47038 
        1.92056          9.6919         2.45133 
         1.9267         9.64567         2.43247 
        1.93284         9.59293         2.41378 
        1.93897          9.5434         2.39534 
        1.94509         9.51533         2.37712 
        1.95123         9.48155         2.35905 
        1.95737         9.44176         2.34115 
        1.96349         9.40174         2.32349 
        1.96964         9.35165         2.30596 
        1.97578         9.31794          2.2886 
        1.98192         9.27201         2.27145 
        1.98805         9.24919         2.25448 
        1.99419         9.20362         2.23769 
        2.00033          9.1788         2.22105 
        2.00647         9.13791         2.20459 
         2.0126         9.08342         2.18833 
        2.01874          9.0565         2.17221 
        2.02488         9.00355         2.15623 
        2.03101         8.98884         2.14044 
        2.03714         8.94273         2.12483 
        2.04328         8.91468         2.10936 
        2.04941          8.8624         2.09405 
        2.05554         8.84638         2.07891 
        2.06167         8.79481         2.06389 
        2.06781         8.78152         2.04903 
        2.07396         8.74883         2.03428 
        2.08009         8.70723         2.01971 
        2.08622         8.65126          2.0053 
        2.09237         8.64735           1.991 
        2.09851         8.61808         1.97684 
        2.10464         8.56933         1.96284 
        2.11077         8.52261         1.94899 
        2.11691         8.49028         1.93525 
        2.12305         8.46772         1.92164 
        2.12918         8.44429         1.90819 
        2.13531         8.40562         1.89487 
        2.14145         8.37702         1.88165 
         2.1476          8.3395         1.86854 
        2.15372         8.31143         1.85561 
        2.15985         8.29112          1.8428 
        2.16599         8.25079         1.83008 
        2.17213         8.22746         1.81748 
        2.17827         8.19669         1.80501 
         2.1844         8.15969         1.79267 
        2.19054         8.10876         1.78044 
        2.19666         8.10019         1.76834 
         2.2028         8.06585         1.75634 
        2.20893          8.0491         1.74445 
        2.21508         8.00209         1.73265 
        2.22122          7.9665         1.72096 
        2.22736         7.94907         1.70941 
        2.23349         7.90722         1.69796 
        2.23962         7.89735         1.68661 
        2.24577         7.85495         1.67535 
         2.2519         7.83647         1.66422 
        2.25802         7.80009          1.6532 
        2.26417         7.77285         1.64225 
        2.27031          7.7395         1.63139 
        2.27644         7.71475         1.62066 
        2.28257         7.69253         1.61003 
        2.28872         7.65713         1.59947 
        2.29486          7.6347         1.58902 
        2.30099         7.62393         1.57867 
        2.30712         7.59133         1.56842 
        2.31326         7.54607         1.55823 
         2.3194         7.51942         1.54815 
        2.32553         7.50759         1.53817 
        2.33166         7.47235         1.52828 
         2.3378         7.44831         1.51847 
        2.34394         7.42204         1.50874 
        2.35007         7.38747         1.49911 
        2.35619         7.36081         1.48957 
        2.36233         7.33388          1.4801 
        2.36848         7.32193         1.47068 
        2.37462          7.2942         1.46137 
        2.38075         7.26125         1.45215 
        2.38689         7.23914         1.44301 
        2.39303         7.20899         1.43394 
        2.39916         7.19065         1.42496 
        2.40529         7.17017         1.41605 
        2.41143          7.1367         1.40722 
        2.41757         7.13291         1.39846 
         2.4237         7.09634         1.38979 
        2.42983         7.07168         1.38119 
        2.43598         7.05866         1.37265 
        2.44211         7.02294         1.36419 
        2.44823         7.00749         1.35582 
        2.45437         6.98501          1.3475 
        2.46052         6.94429         1.33924 
        2.46665         6.92945         1.33107 
        2.47279         6.90081         1.32296 
        2.47892         6.87263         1.31492 
        2.48507         6.85443         1.30694 
         2.4912         6.83042         1.29904 
