# k  (h/Mpc)    Pcb(k)  (Mpc/h)^3    Pcb_linear(k)  (Mpc/h)^3
     0.00783031         2615.58         2642.51 
       0.013688         3346.99         3342.53 
       0.019231            3473         3470.74 
      0.0249154         3267.78          3296.3 
      0.0312784         2924.25         2933.29 
      0.0375637         2550.19         2545.61 
      0.0433917         2221.47         2232.68 
      0.0492413          1987.6         1988.26 
      0.0555754          1781.4         1797.92 
      0.0619321         1670.85         1662.02 
       0.067871         1548.13         1559.76 
      0.0738098         1448.45         1461.03 
      0.0800417         1330.08          1348.7 
      0.0862327         1216.29         1226.41 
      0.0921407         1102.79         1106.18 
      0.0982031         982.729         989.255 
       0.104506         891.472         884.172 
       0.110769         808.727          801.64 
       0.116806         744.627         742.703 
       0.122832          706.34         700.137 
       0.129052             666         666.898 
       0.135211         636.712         637.896 
       0.141259         610.948         607.969 
       0.147318          579.52         573.872 
       0.153489          537.49         534.993 
       0.159709         499.935         493.951 
       0.165845         467.578         454.938 
       0.171974          429.88         420.356 
       0.178125          403.42         391.749 
       0.184229         383.057         369.628 
        0.19034         359.757          352.72 
       0.196428         351.059         339.307 
       0.202534         341.796         327.293 
       0.208729         326.623         314.848 
       0.214876         310.265         301.229 
       0.220989         299.742          286.28 
       0.227147         280.726         270.379 
        0.23329         266.349         254.642 
       0.239377         255.005         240.144 
       0.245482         238.586         227.375 
       0.251667          232.23         216.515 
       0.257832         223.492         207.614 
       0.263955         215.606         200.199 
       0.270079         208.577         193.583 
        0.27624         204.498         187.157 
       0.282372         197.047         180.566 
        0.28843         189.313          173.71 
       0.294538         181.677         166.515 
       0.300721         177.267         159.189 
        0.30691         168.638         152.117 
       0.313033         163.089         145.641 
       0.319153         155.318         139.843 
       0.325316         152.295           134.7 
        0.33145         146.891         130.186 
       0.337538         143.912          126.13 
       0.343633         139.289         122.308 
       0.349808         135.405          118.52 
       0.355968         132.047         114.719 
       0.362074         127.961         110.916 
       0.368217         124.303         107.082 
       0.374374          120.49          103.32 
       0.380519         117.362         99.7251 
       0.386598         114.105         96.3924 
       0.392688         111.814         93.3119 
        0.39888         108.698         90.4297 
       0.405048         106.265         87.7783 
       0.411186         103.913         85.2979 
       0.417313         100.849         82.9212 
       0.423458         98.5664         80.5981 
       0.429607          96.013          78.304 
       0.435692         92.9598         76.0627 
       0.441815         91.8531         73.8519 
       0.447964         90.2853         71.6955 
       0.454126         86.4822          69.621 
       0.460267         85.1893         67.6596 
       0.466387         83.1485         65.8124 
        0.47254         81.8729         64.0562 
       0.478662         80.5697         62.3991 
       0.484765         78.3408         60.8194 
       0.490885         76.7489         59.2884 
       0.497035          75.761         57.7911 
       0.503198         73.7773         56.3281 
       0.509342         71.9641         54.9041 
       0.515458         70.7512         53.5222 
       0.521598         69.7097         52.1777 
       0.527764         68.4276         50.8769 
       0.533884         67.2428         49.6374 
           0.54         65.9338         48.4487 
       0.546137         65.0693         47.3037 
       0.552299         64.1109         46.1991 
       0.558452         62.2692         45.1355 
       0.564573         61.2686         44.1101 
       0.570708         60.5114         43.1103 
       0.576825         59.2216         42.1398 
       0.582926         58.1203         41.1985 
       0.589034          56.753         40.2825 
       0.595184         56.0974         39.3872 
       0.601379         55.2926         38.5132 
       0.607522         54.0569         37.6744 
       0.613639         53.7897         36.8672 
       0.619772         52.4369         36.0849 
       0.625918          52.171         35.3258 
       0.632068         51.3666          34.589 
       0.638161          50.485         33.8792 
         0.6443         49.6062         33.1834 
       0.650464         48.8341         32.5036 
       0.656582         48.4818         31.8472 
       0.662703         47.5166         31.2083 
       0.668861         46.8331         30.5832 
       0.675024         46.1223         29.9749 
       0.681124         45.3453         29.3895 
       0.687237          44.602         28.8191 
       0.693381         44.2847         28.2619 
       0.699536          43.303         27.7191 
       0.705665         43.3808         27.1935 
       0.711789         42.3234         26.6823 
       0.717957         41.8722         26.1808 
        0.72409         41.2929         25.6948 
       0.730186         40.6879         25.2238 
       0.736317         40.3905         24.7618 
       0.742472         39.6826         24.3096 
       0.748622         39.3693         23.8692 
        0.75476         38.7851         23.4407 
       0.760888         38.2228         23.0237 
       0.767043         37.8303         22.6155 
       0.773185         37.2272         22.2184 
       0.779291         37.0768         21.8332 
       0.785407         36.6691         21.4567 
       0.791564         36.0225         21.0869 
       0.797719          35.351          20.726 
       0.803834         35.3087         20.3758 
       0.809972         34.9123         20.0324 
       0.816124         34.1803         19.6962 
       0.822261         34.0047         19.3687 
       0.828378         33.6939         19.0496 
       0.834502         33.3189         18.7376 
       0.840667         32.9672         18.4306 
       0.846816         32.4481         18.1314 
       0.852925         32.1724         17.8409 
       0.859047         31.7973         17.5561 
       0.865192         31.5346         17.2768 
       0.871341         31.3547         17.0034 
       0.877463         30.7477         16.7371 
       0.883569         30.4639         16.4774 
       0.889708         30.1501         16.2218 
       0.895864         29.9127          15.971 
       0.902008         29.6797         15.7261 
       0.908149         29.3825         15.4864 
       0.914301         29.2573         15.2515 
       0.920448          28.674         15.0216 
       0.926574         28.5183         14.7973 
       0.932687         28.2189         14.5781 
       0.938823         27.8577         14.3626 
       0.944975         27.6485         14.1509 
       0.951105         27.4238         13.9443 
       0.957225         27.1142         13.7423 
       0.963368         26.9499         13.5435 
       0.969511         26.7296         13.3487 
       0.975621         26.5215         13.1589 
       0.981748         26.1584         12.9722 
       0.987916         26.0274         12.7881 
        0.99406         25.7381         12.6082 
        1.00019         25.4231         12.4322 
        1.00632          25.338         12.2597 
        1.01246         25.1196         12.0903 
        1.01859         24.7769         11.9243 
        1.02471         24.7269         11.7617 
        1.03085         24.4906         11.6016 
        1.03698          24.119         11.4449 
        1.04314         23.9812         11.2904 
        1.04929         23.7432         11.1391 
        1.05541         23.5141         10.9912 
        1.06154         23.3951         10.8457 
        1.06769         23.2506         10.7026 
        1.07382         22.9997         10.5626 
        1.07993         22.9011         10.4254 
        1.08607         22.6163         10.2901 
        1.09222         22.4955          10.157 
        1.09836          22.228         10.0265 
        1.10449         22.1309         9.89848 
        1.11063         21.8785         9.77255 
        1.11677         21.8072         9.64886 
         1.1229         21.7001         9.52754 
        1.12903         21.4133         9.40821 
        1.13518         21.2085         9.29083 
        1.14131         21.1512         9.17553 
        1.14745         20.9934         9.06226 
        1.15359         20.8652         8.95089 
        1.15973         20.6637         8.84136 
        1.16584         20.4122         8.73415 
        1.17197         20.4083         8.62857 
        1.17811         20.1803         8.52443 
        1.18424         20.0165         8.42231 
        1.19038         19.9557         8.32159 
        1.19652         19.7859         8.22255 
        1.20267         19.6233         8.12513 
        1.20881         19.5467         8.02932 
        1.21495         19.4062         7.93522 
        1.22108         19.2249         7.84264 
         1.2272         19.0547         7.75177 
        1.23334         18.9432         7.66214 
        1.23949         18.7788         7.57372 
        1.24562          18.739         7.48694 
        1.25174         18.6176         7.40167 
        1.25789         18.4895         7.31746 
        1.26402         18.4013         7.23473 
        1.27014         18.2273         7.15349 
        1.27628          18.036         7.07325 
        1.28244         17.9905          6.9941 
        1.28858          17.932         6.91628 
        1.29471         17.7485         6.83982 
        1.30084         17.6085         6.76459 
        1.30697         17.5266         6.69038 
        1.31312          17.357         6.61719 
        1.31925         17.2477         6.54532 
        1.32537         17.2086          6.4746 
        1.33151         17.0549         6.40468 
        1.33765         16.9711         6.33583 
        1.34378         16.8775         6.26814 
        1.34992         16.6942         6.20139 
        1.35606         16.6648         6.13548 
         1.3622         16.5659         6.07064 
        1.36833         16.4333         6.00691 
        1.37445          16.373         5.94412 
        1.38059         16.2807         5.88204 
        1.38675         16.1112          5.8207 
        1.39288         16.0666         5.76048 
        1.39901         15.9271         5.70115 
        1.40515         15.8667         5.64252 
         1.4113         15.7657         5.58474 
        1.41742         15.6592           5.528 
        1.42355         15.5818         5.47193 
         1.4297         15.4954         5.41648 
        1.43585         15.4504         5.36182 
        1.44198         15.3134         5.30812 
        1.44809         15.2461         5.25526 
        1.45423         15.1484         5.20293 
        1.46036          15.081         5.15141 
        1.46649         15.0073         5.10057 
        1.47263         14.8772         5.05038 
        1.47877          14.811         5.00089 
        1.48491         14.7386         4.95199 
        1.49104         14.6738         4.90385 
        1.49718         14.5731         4.85631 
        1.50333         14.5125         4.80933 
        1.50947          14.435         4.76307 
         1.5156         14.3272         4.71749 
        1.52172         14.2568         4.67251 
        1.52787         14.1756         4.62802 
          1.534         14.0977         4.58418 
        1.54013         14.0139         4.54094 
        1.54627         13.9294         4.49819 
        1.55241         13.8733         4.45599 
        1.55855         13.8145         4.41439 
        1.56467         13.7242         4.37343 
         1.5708         13.7033         4.33289 
        1.57695         13.5759         4.29279 
        1.58308         13.5249          4.2533 
        1.58922         13.4666         4.21428 
        1.59535         13.4006         4.17577 
         1.6015         13.3049         4.13768 
        1.60764         13.2398         4.10009 
        1.61376         13.2167         4.06307 
        1.61989         13.0954         4.02648 
        1.62604         13.0784         3.99026 
        1.63218         12.9967         3.95451 
        1.63831          12.951         3.91928 
        1.64444         12.8533         3.88447 
        1.65059         12.7871         3.84999 
        1.65673          12.759         3.81598 
        1.66285         12.6369         3.78247 
        1.66898         12.6179         3.74935 
        1.67512          12.557         3.71657 
        1.68127         12.4797         3.68414 
         1.6874         12.4313         3.65218 
        1.69353         12.3671         3.62062 
        1.69967         12.2986         3.58936 
        1.70581         12.2384         3.55848 
        1.71193         12.1793         3.52808 
        1.71806         12.1566         3.49797 
        1.72421         12.0568         3.46816 
        1.73035         12.0355         3.43873 
        1.73649         11.9778         3.40964 
        1.74262         11.9219         3.38092 
        1.74876         11.8711         3.35251 
        1.75489         11.8178         3.32449 
        1.76101          11.728         3.29679 
        1.76715         11.7261         3.26937 
        1.77329         11.6406         3.24224 
        1.77943         11.5793          3.2154 
        1.78557         11.5497          3.1889 
        1.79171         11.5074          3.1627 
        1.79785         11.4278         3.13679 
        1.80399         11.3831         3.11118 
        1.81012         11.3395         3.08588 
        1.81625         11.2729         3.06088 
        1.82239          11.235         3.03612 
        1.82853         11.1549         3.01165 
        1.83466         11.1271         2.98747 
        1.84078         11.0471         2.96358 
        1.84692         11.0454         2.93992 
        1.85306         10.9783         2.91649 
         1.8592         10.9264         2.89334 
        1.86533         10.8918         2.87047 
        1.87147         10.8406         2.84781 
        1.87761         10.8014         2.82539 
        1.88375         10.7359         2.80324 
        1.88988          10.721         2.78135 
        1.89601         10.6617         2.75968 
        1.90215         10.6047         2.73823 
        1.90829         10.5641         2.71701 
        1.91442         10.5196         2.69602 
        1.92056         10.4876         2.67527 
         1.9267         10.4345         2.65471 
        1.93284         10.3853         2.63436 
        1.93897         10.3285         2.61426 
        1.94509         10.3005         2.59442 
        1.95123         10.2572         2.57473 
        1.95737         10.2116         2.55523 
        1.96349         10.1697         2.53599 
        1.96964          10.124         2.51688 
        1.97578         10.0832         2.49797 
        1.98192         10.0349         2.47929 
        1.98805          10.007          2.4608 
        1.99419         9.96196         2.44249 
        2.00033         9.93878         2.42437 
        2.00647         9.89125         2.40643 
         2.0126         9.83233         2.38871 
        2.01874         9.80233         2.37113 
        2.02488         9.75178         2.35372 
        2.03101         9.72432         2.33652 
        2.03714         9.67897          2.3195 
        2.04328         9.64811         2.30264 
        2.04941          9.6027         2.28596 
        2.05554         9.57113         2.26945 
        2.06167         9.51986         2.25309 
        2.06781         9.50606         2.23688 
        2.07396         9.46773         2.22081 
        2.08009         9.41587         2.20493 
        2.08622         9.36974         2.18922 
        2.09237         9.36272         2.17364 
        2.09851         9.33628          2.1582 
        2.10464         9.28111         2.14294 
        2.11077         9.22724         2.12784 
        2.11691         9.19164         2.11286 
        2.12305         9.17206         2.09802 
        2.12918         9.14663         2.08336 
        2.13531         9.09883         2.06884 
        2.14145         9.07276         2.05442 
         2.1476         9.02344         2.04013 
        2.15372         8.99801         2.02604 
        2.15985         8.98504         2.01207 
        2.16599         8.93231          1.9982 
        2.17213         8.91297         1.98447 
        2.17827         8.87632         1.97087 
         2.1844         8.83572         1.95741 
        2.19054         8.78311         1.94407 
        2.19666         8.77026         1.93088 
         2.2028         8.73219          1.9178 
        2.20893         8.71687         1.90483 
        2.21508         8.66686         1.89196 
        2.22122         8.62609         1.87922 
        2.22736         8.60859         1.86661 
        2.23349         8.57046         1.85413 
        2.23962         8.55326         1.84175 
        2.24577         8.50785         1.82947 
         2.2519         8.48625         1.81733 
        2.25802         8.44837         1.80531 
        2.26417         8.41685         1.79337 
        2.27031         8.38778         1.78153 
        2.27644         8.35859         1.76982 
        2.28257         8.33463         1.75823 
        2.28872         8.29295         1.74671 
        2.29486         8.26897          1.7353 
        2.30099         8.25665         1.72402 
        2.30712         8.22606         1.71283 
        2.31326         8.16973         1.70173 
         2.3194         8.14375         1.69072 
        2.32553         8.13578         1.67984 
        2.33166         8.09899         1.66905 
         2.3378         8.07136         1.65835 
        2.34394         8.04018         1.64773 
        2.35007         7.99858         1.63722 
        2.35619         7.97526         1.62682 
        2.36233         7.94725         1.61649 
        2.36848          7.9297         1.60622 
        2.37462         7.89886         1.59606 
        2.38075         7.86904           1.586 
        2.38689          7.8428         1.57602 
        2.39303         7.80894         1.56613 
        2.39916         7.78952         1.55633 
        2.40529         7.76517         1.54661 
        2.41143         7.73038         1.53698 
        2.41757         7.72709         1.52742 
         2.4237         7.68806         1.51796 
        2.42983         7.66295         1.50858 
        2.43598         7.64533         1.49925 
        2.44211         7.61161         1.49002 
        2.44823          7.5954         1.48089 
        2.45437         7.56395         1.47181 
        2.46052         7.52187          1.4628 
        2.46665         7.50543         1.45388 
        2.47279         7.47715         1.44504 
        2.47892         7.44444         1.43626 
        2.48507         7.42736         1.42755 
         2.4912         7.39886         1.41893 
