# k  (h/Mpc)    Pcb(k)  (Mpc/h)^3    Pcb_linear(k)  (Mpc/h)^3
     0.00783031          1428.7         1442.45 
       0.013688         1824.16          1824.8 
       0.019231          1895.3         1894.91 
      0.0249154         1787.79         1799.73 
      0.0312784         1598.46         1601.57 
      0.0375637         1392.65         1389.91 
      0.0433917         1215.65         1219.06 
      0.0492413         1086.34         1085.62 
      0.0555754         976.147         981.691 
      0.0619321         912.011         907.493 
       0.067871         847.856         851.657 
      0.0738098         793.391         797.752 
      0.0800417         729.646         736.417 
      0.0862327          666.31         669.646 
      0.0921407         603.026             604 
      0.0982031         537.795         540.157 
       0.104506         485.824         482.779 
       0.110769         440.552         437.715 
       0.116806          405.84         405.534 
       0.122832         384.555         382.292 
       0.129052         363.611         364.143 
       0.135211         347.496         348.307 
       0.141259         332.857         331.967 
       0.147318         315.503         313.349 
       0.153489          293.01          292.12 
       0.159709         271.647          269.71 
       0.165845         253.094         248.408 
       0.171974         232.428         229.526 
       0.178125          217.69         213.905 
       0.184229         206.358         201.827 
        0.19034         194.573         192.595 
       0.196428         189.025         185.271 
       0.202534         183.828         178.711 
       0.208729         175.811         171.915 
       0.214876         167.184         164.479 
       0.220989         161.006         156.317 
       0.227147         150.714         147.634 
        0.23329         142.587         139.042 
       0.239377         135.732         131.125 
       0.245482         127.517         124.153 
       0.251667         123.337         118.223 
       0.257832         118.415         113.363 
       0.263955         114.253         109.314 
       0.270079         110.547         105.702 
        0.27624         107.982         102.193 
       0.282372         104.133         98.5942 
        0.28843          99.853         94.8502 
       0.294538          95.884          90.922 
       0.300721         92.9308         86.9215 
        0.30691         88.3984         83.0602 
       0.313033         85.1505          79.524 
       0.319153         80.9722         76.3579 
       0.325316         79.4551         73.5499 
        0.33145         76.5915         71.0853 
       0.337538         74.6478         68.8704 
       0.343633         72.2256         66.7837 
       0.349808         70.2732         64.7151 
       0.355968         68.2656           62.64 
       0.362074         66.0607          60.563 
       0.368217         64.0663           58.47 
       0.374374         61.9027         56.4157 
       0.380519         60.1934         54.4527 
       0.386598          58.459         52.6329 
       0.392688         57.0861         50.9509 
        0.39888         55.3777         49.3771 
       0.405048         54.0734         47.9294 
       0.411186         52.8058          46.575 
       0.417313         51.0971         45.2772 
       0.423458         49.8701         44.0088 
       0.429607         48.5005         42.7562 
       0.435692          47.039         41.5324 
       0.441815         46.1631         40.3252 
       0.447964         45.3221         39.1478 
       0.454126         43.5564          38.015 
       0.460267         42.7223          36.944 
       0.466387         41.4641         35.9354 
        0.47254         40.8175         34.9765 
       0.478662          40.063         34.0717 
       0.484765          38.918         33.2091 
       0.490885         38.0289         32.3731 
       0.497035         37.5325         31.5556 
       0.503198         36.5538         30.7567 
       0.509342         35.6227         29.9791 
       0.515458         34.8655         29.2246 
       0.521598         34.2495         28.4905 
       0.527764         33.5043         27.7802 
       0.533884         32.9128         27.1034 
           0.54         32.2189         26.4543 
       0.546137         31.6713         25.8291 
       0.552299         31.1453          25.226 
       0.558452         30.1889         24.6453 
       0.564573         29.7849         24.0853 
       0.570708         29.2799         23.5394 
       0.576825         28.5391         23.0095 
       0.582926         28.0425         22.4955 
       0.589034         27.2902         21.9954 
       0.595184         26.9306         21.5065 
       0.601379         26.4199         21.0293 
       0.607522         25.9727         20.5713 
       0.613639         25.6967         20.1305 
       0.619772         25.0259         19.7033 
       0.625918         24.8769         19.2889 
       0.632068         24.4616         18.8865 
       0.638161         23.9268          18.499 
         0.6443          23.449         18.1191 
       0.650464         23.0279         17.7479 
       0.656582         22.8734         17.3894 
       0.662703         22.4451         17.0406 
       0.668861         22.0318         16.6993 
       0.675024         21.6314         16.3671 
       0.681124          21.266         16.0475 
       0.687237         20.9276          15.736 
       0.693381         20.7208         15.4318 
       0.699536         20.1739         15.1354 
       0.705665         20.0519         14.8484 
       0.711789         19.6663         14.5693 
       0.717957         19.3834         14.2954 
        0.72409         19.0824         14.0301 
       0.730186         18.8301         13.7729 
       0.736317         18.6272         13.5207 
       0.742472         18.3206         13.2737 
       0.748622         18.0887         13.0332 
        0.75476         17.7415         12.7993 
       0.760888         17.5254         12.5716 
       0.767043         17.3178         12.3487 
       0.773185         16.9823         12.1318 
       0.779291         16.8828         11.9215 
       0.785407         16.6451          11.716 
       0.791564         16.3603          11.514 
       0.797719         16.0526          11.317 
       0.803834         15.9902         11.1257 
       0.809972         15.8453         10.9383 
       0.816124         15.4855         10.7547 
       0.822261         15.3217         10.5758 
       0.828378          15.143         10.4016 
       0.834502         15.0066         10.2312 
       0.840667         14.7782         10.0636 
       0.846816         14.5229         9.90026 
       0.852925         14.3922         9.74161 
       0.859047         14.2269         9.58614 
       0.865192         14.1026          9.4336 
       0.871341         13.9702         9.28431 
       0.877463         13.7322         9.13895 
       0.883569         13.5405          8.9971 
       0.889708         13.3325         8.85754 
       0.895864         13.2436         8.72061 
       0.902008         13.1231         8.58687 
       0.908149         12.9786         8.45603 
       0.914301         12.8384         8.32772 
       0.920448         12.6202         8.20221 
       0.926574         12.4978         8.07974 
       0.932687         12.3816         7.96004 
       0.938823         12.2127         7.84236 
       0.944975         12.0647          7.7268 
       0.951105         11.9639           7.614 
       0.957225         11.8812         7.50366 
       0.963368         11.7395         7.39514 
       0.969511         11.6263         7.28879 
       0.975621         11.4955         7.18511 
       0.981748         11.3666         7.08321 
       0.987916         11.2777         6.98265 
        0.99406         11.1113         6.88443 
        1.00019         10.9463         6.78832 
        1.00632         10.9358         6.69414 
        1.01246         10.8081         6.60162 
        1.01859          10.651         6.51101 
        1.02471         10.5833         6.42223 
        1.03085         10.4802         6.33481 
        1.03698           10.33         6.24921 
        1.04314         10.2685         6.16485 
        1.04929          10.133         6.08225 
        1.05541         10.0252         6.00151 
        1.06154         9.95103         5.92204 
        1.06769         9.90483         5.84391 
        1.07382         9.75303         5.76745 
        1.07993         9.67446         5.69254 
        1.08607         9.60031         5.61866 
        1.09222         9.51102         5.54602 
        1.09836         9.40963         5.47477 
        1.10449         9.32598         5.40485 
        1.11063         9.24156         5.33609 
        1.11677         9.18552         5.26855 
         1.1229         9.11286          5.2023 
        1.12903         9.00864         5.13715 
        1.13518          8.9062         5.07306 
        1.14131         8.82786          5.0101 
        1.14745          8.7434         4.94825 
        1.15359           8.692         4.88744 
        1.15973          8.6172         4.82763 
        1.16584         8.49741         4.76909 
        1.17197         8.44196         4.71144 
        1.17811         8.40089         4.65458 
        1.18424         8.32981         4.59882 
        1.19038         8.28584         4.54382 
        1.19652         8.19414         4.48974 
        1.20267         8.10284         4.43655 
        1.20881         8.08023         4.38424 
        1.21495          8.0081         4.33285 
        1.22108         7.91608          4.2823 
         1.2272         7.87434         4.23269 
        1.23334         7.77898         4.18374 
        1.23949         7.71875         4.13546 
        1.24562         7.68459         4.08808 
        1.25174         7.61124         4.04152 
        1.25789         7.55974         3.99554 
        1.26402         7.51247         3.95037 
        1.27014         7.44754         3.90601 
        1.27628         7.37209          3.8622 
        1.28244         7.29804         3.81898 
        1.28858         7.28852         3.77648 
        1.29471          7.2065         3.73473 
        1.30084         7.13956         3.69365 
        1.30697         7.14148         3.65314 
        1.31312         7.01445         3.61317 
        1.31925         6.98256         3.57393 
        1.32537         6.93201         3.53532 
        1.33151         6.90544         3.49714 
        1.33765         6.82558         3.45954 
        1.34378         6.77627         3.42258 
        1.34992         6.74228         3.38614 
        1.35606         6.67798         3.35014 
         1.3622         6.64547         3.31474 
        1.36833         6.59382         3.27994 
        1.37445         6.55168         3.24566 
        1.38059         6.52784         3.21176 
        1.38675         6.47037         3.17827 
        1.39288         6.42737         3.14539 
        1.39901         6.35882         3.11299 
        1.40515         6.32854         3.08098 
         1.4113         6.28761         3.04943 
        1.41742         6.24579         3.01844 
        1.42355         6.19022         2.98783 
         1.4297         6.14759         2.95755 
        1.43585         6.12641          2.9277 
        1.44198         6.10062         2.89838 
        1.44809         6.03618         2.86952 
        1.45423         5.99202         2.84095 
        1.46036          5.9511         2.81282 
        1.46649         5.90954         2.78506 
        1.47263         5.86554         2.75765 
        1.47877           5.827         2.73063 
        1.48491         5.79385         2.70393 
        1.49104         5.76123         2.67764 
        1.49718         5.72619         2.65168 
        1.50333         5.69343         2.62603 
        1.50947         5.65005         2.60077 
         1.5156         5.61698         2.57588 
        1.52172          5.5855         2.55132 
        1.52787         5.55377         2.52703 
          1.534         5.50835         2.50309 
        1.54013         5.48719         2.47948 
        1.54627         5.43445         2.45614 
        1.55241           5.406          2.4331 
        1.55855          5.3852         2.41038 
        1.56467         5.34534         2.38802 
         1.5708         5.31717         2.36588 
        1.57695          5.2711         2.34399 
        1.58308         5.23673         2.32242 
        1.58922         5.22475         2.30112 
        1.59535         5.19388         2.28009 
         1.6015         5.15361         2.25929 
        1.60764          5.1206         2.23877 
        1.61376         5.09556         2.21855 
        1.61989         5.06928         2.19857 
        1.62604         5.03077          2.1788 
        1.63218         5.01953         2.15928 
        1.63831         4.98645         2.14004 
        1.64444         4.95751         2.12103 
        1.65059          4.9079         2.10221 
        1.65673          4.9018         2.08363 
        1.66285         4.85658         2.06533 
        1.66898         4.83709         2.04725 
        1.67512         4.80658         2.02935 
        1.68127         4.78046         2.01165 
         1.6874         4.76438          1.9942 
        1.69353         4.72052         1.97696 
        1.69967         4.70306         1.95989 
        1.70581         4.67926         1.94303 
        1.71193         4.65425         1.92643 
        1.71806         4.63312         1.90999 
        1.72421          4.6021         1.89371 
        1.73035         4.58634         1.87764 
        1.73649         4.55539         1.86176 
        1.74262          4.5247         1.84608 
        1.74876         4.51375         1.83057 
        1.75489         4.49013         1.81526 
        1.76101         4.45119         1.80014 
        1.76715         4.43874         1.78517 
        1.77329         4.41891         1.77035 
        1.77943         4.37621          1.7557 
        1.78557         4.36965         1.74123 
        1.79171         4.34186         1.72692 
        1.79785         4.31878         1.71278 
        1.80399         4.29477         1.69879 
        1.81012         4.27916         1.68498 
        1.81625         4.25248         1.67133 
        1.82239         4.23162         1.65781 
        1.82853         4.20809         1.64445 
        1.83466         4.19725         1.63124 
        1.84078         4.17355          1.6182 
        1.84692         4.15963         1.60528 
        1.85306         4.12375         1.59248 
         1.8592         4.10148         1.57985 
        1.86533         4.08564         1.56736 
        1.87147         4.07096         1.55499 
        1.87761         4.04599         1.54274 
        1.88375         4.02562         1.53065 
        1.88988         4.00169          1.5187 
        1.89601         3.98867         1.50686 
        1.90215         3.97021         1.49515 
        1.90829         3.94331         1.48357 
        1.91442         3.93118          1.4721 
        1.92056         3.90492         1.46077 
         1.9267         3.89163         1.44955 
        1.93284         3.87502         1.43844 
        1.93897         3.85597         1.42746 
        1.94509         3.82992         1.41663 
        1.95123         3.81333         1.40588 
        1.95737         3.79118         1.39523 
        1.96349         3.78136         1.38472 
        1.96964          3.7706         1.37429 
        1.97578         3.74037         1.36396 
        1.98192         3.73068         1.35376 
        1.98805         3.71526         1.34367 
        1.99419         3.69675         1.33367 
        2.00033         3.68486         1.32377 
        2.00647         3.66228         1.31398 
         2.0126         3.65059          1.3043 
        2.01874          3.6221         1.29471 
        2.02488         3.61478          1.2852 
        2.03101         3.58733         1.27581 
        2.03714         3.57636         1.26652 
        2.04328         3.56104         1.25731 
        2.04941         3.53587          1.2482 
        2.05554         3.52895         1.23919 
        2.06167         3.51717         1.23025 
        2.06781          3.4994          1.2214 
        2.07396         3.48833         1.21263 
        2.08009         3.46972         1.20396 
        2.08622         3.44926         1.19538 
        2.09237         3.44204         1.18687 
        2.09851         3.42364         1.17844 
        2.10464         3.41171          1.1701 
        2.11077         3.39327         1.16186 
        2.11691         3.38015         1.15368 
        2.12305          3.3688         1.14558 
        2.12918         3.35936         1.13757 
        2.13531         3.34207         1.12965 
        2.14145         3.32717         1.12177 
         2.1476         3.30678         1.11397 
        2.15372         3.29528         1.10628 
        2.15985         3.28444         1.09865 
        2.16599         3.26969         1.09107 
        2.17213         3.25076         1.08358 
        2.17827         3.24273         1.07615 
         2.1844         3.22687          1.0688 
        2.19054         3.21918         1.06152 
        2.19666          3.2004         1.05431 
         2.2028         3.18603         1.04717 
        2.20893         3.17611         1.04009 
        2.21508         3.15842         1.03307 
        2.22122         3.14721         1.02611 
        2.22736         3.13425         1.01922 
        2.23349          3.1275         1.01241 
        2.23962         3.10943         1.00565 
        2.24577         3.09791        0.998945 
         2.2519         3.08755        0.992313 
        2.25802         3.07583        0.985752 
        2.26417         3.06422        0.979231 
        2.27031         3.04858        0.972764 
        2.27644         3.03956        0.966375 
        2.28257         3.02338        0.960043 
        2.28872         3.01678        0.953756 
        2.29486         3.00031        0.947526 
        2.30099         2.98902        0.941365 
        2.30712         2.97475        0.935256 
        2.31326         2.96549        0.929192 
         2.3194         2.95534        0.923184 
        2.32553         2.94134         0.91724 
        2.33166         2.93492        0.911351 
         2.3378         2.92188        0.905505 
        2.34394         2.91085        0.899709 
        2.35007         2.89731        0.893972 
        2.35619         2.89172        0.888292 
        2.36233         2.88007        0.882648 
        2.36848         2.86433        0.877041 
        2.37462         2.85781        0.871495 
        2.38075         2.84486        0.866002 
        2.38689         2.83669        0.860552 
        2.39303         2.82506         0.85515 
        2.39916         2.81404          0.8498 
        2.40529         2.80352        0.844496 
        2.41143         2.79317        0.839234 
        2.41757         2.78177        0.834014 
         2.4237         2.77406        0.828848 
        2.42983         2.75214        0.823727 
        2.43598         2.75711        0.818635 
        2.44211         2.73819        0.813595 
        2.44823         2.73381        0.808609 
        2.45437          2.7192        0.803651 
        2.46052         2.71358         0.79873 
        2.46665         2.70445        0.793859 
        2.47279         2.69244        0.789031 
        2.47892         2.68466        0.784239 
        2.48507         2.67494        0.779483 
         2.4912         2.65846        0.774776 
