# k  (h/Mpc)    P(k)  (Mpc/h)^3    P_linear(k)  (Mpc/h)^3
     0.00783031         4195.54         4229.38 
       0.013688         5301.91         5395.35 
       0.019231         5553.26         5603.96 
      0.0249154         5312.66         5310.81 
      0.0312784         4707.92         4731.07 
      0.0375637         4109.74         4147.19 
      0.0433917         3698.37         3704.11 
      0.0492413         3349.34          3374.4 
      0.0555754         3111.15         3116.55 
      0.0619321         2846.71          2907.6 
       0.067871         2685.14         2714.08 
      0.0738098         2483.14         2501.03 
      0.0800417         2251.39         2258.77 
      0.0862327         2006.44         2019.01 
      0.0921407         1805.28         1813.18 
      0.0982031         1647.01         1640.55 
       0.104506          1495.9         1506.43 
       0.110769         1404.02         1411.16 
       0.116806          1350.8          1341.2 
       0.122832         1272.92         1278.08 
       0.129052         1209.21         1208.49 
       0.135211         1144.92         1130.52 
       0.141259         1055.05         1047.63 
       0.147318         965.112         964.961 
       0.153489         899.595         888.513 
       0.159709         848.533           824.5 
       0.165845          782.94         775.359 
       0.171974         764.141         737.871 
       0.178125         734.721          707.44 
       0.184229         692.474         679.544 
        0.19034         673.066         650.261 
       0.196428         644.444         618.181 
       0.202534         599.747         583.697 
       0.208729         579.058          548.46 
       0.214876         552.204         515.719 
       0.220989         514.158         487.177 
       0.227147         501.949         463.171 
        0.23329         483.782         443.491 
       0.239377         472.035          426.92 
       0.245482         450.217         411.673 
       0.251667         432.151         396.314 
       0.257832         425.605         380.358 
       0.263955         401.579         363.849 
       0.270079         386.137         347.211 
        0.27624         368.426           331.1 
       0.282372         357.535         316.358 
        0.28843         353.771         303.406 
       0.294538          337.32         291.946 
       0.300721         324.688         281.673 
        0.30691         319.693         272.217 
       0.313033         306.802         263.225 
       0.319153         301.401         254.268 
       0.325316         291.609         245.194 
        0.33145         283.327         236.178 
       0.337538         273.849          227.46 
       0.343633         265.323         219.169 
       0.349808          257.55         211.373 
       0.355968         251.417         204.248 
       0.362074         245.956         197.762 
       0.368217         241.287         191.692 
       0.374374         235.958           185.9 
       0.380519         226.274         180.288 
       0.386598         221.929         174.835 
       0.392688         216.248         169.453 
        0.39888         211.796         164.117 
       0.405048         207.449         158.994 
       0.411186         204.295         154.138 
       0.417313          199.55         149.572 
       0.423458         194.438         145.259 
       0.429607         190.686         141.182 
       0.435692         187.362          137.34 
       0.441815         182.592         133.617 
       0.447964         177.487         129.984 
       0.454126         174.387         126.441 
       0.460267         172.871         123.006 
       0.466387         169.118         119.686 
        0.47254         167.159          116.47 
       0.478662         161.684         113.405 
       0.484765         159.531         110.483 
       0.490885         156.382         107.679 
       0.497035         155.216         104.976 
       0.503198         151.914         102.371 
       0.509342         148.095         99.8601 
       0.515458         146.525         97.4332 
       0.521598         143.039         95.0663 
       0.527764         141.528         92.7613 
       0.533884         140.694         90.5469 
           0.54         137.042         88.4081 
       0.546137         133.876         86.3351 
       0.552299          132.28         84.3274 
       0.558452           129.9         82.3951 
       0.564573           129.4         80.5384 
       0.570708          125.82         78.7367 
       0.576825         124.474         76.9939 
       0.582926         123.147         75.3053 
       0.589034          121.22         73.6632 
       0.595184         119.895         72.0585 
       0.601379         116.937         70.4913 
       0.607522         115.318         68.9847 
       0.613639         114.345         67.5297 
       0.619772         112.545         66.1147 
       0.625918         111.431         64.7391 
       0.632068         109.557         63.4034 
       0.638161         107.822         62.1184 
         0.6443         107.241         60.8605 
       0.650464         105.138         59.6332 
       0.656582         104.742         58.4484 
       0.662703         103.465          57.295 
       0.668861         101.238         56.1662 
       0.675024         101.167          55.067 
       0.681124         99.5647         54.0088 
       0.687237         97.6573         52.9769 
       0.693381         97.1987         51.9681 
       0.699536         96.0626         50.9846 
       0.705665         94.5894         50.0314 
       0.711789         93.3965         49.1039 
       0.717957         92.3293         48.1938 
        0.72409         91.6341          47.312 
       0.730186         91.0279         46.4577 
       0.736317         89.4022           45.62 
       0.742472         88.4559         44.7999 
       0.748622         87.1844          44.001 
        0.75476         86.4393         43.2234 
       0.760888          86.139         42.4661 
       0.767043         84.5635         41.7242 
       0.773185         83.6799         41.0019 
       0.779291         82.7535          40.301 
       0.785407         81.6677         39.6158 
       0.791564         81.6971         38.9424 
       0.797719         80.6377         38.2852 
       0.803834         79.8601         37.6476 
       0.809972          79.201         37.0223 
       0.816124         78.3457         36.4101 
       0.822261         77.3671         35.8135 
       0.828378         77.1201         35.2322 
       0.834502         76.0155         34.6635 
       0.840667         75.5872         34.1038 
       0.846816         74.6876         33.5583 
       0.852925         74.1139         33.0282 
       0.859047         73.8391         32.5086 
       0.865192         72.6588         31.9987 
       0.871341         71.9026         31.4994 
       0.877463         71.4598         31.0133 
       0.883569         71.2382         30.5387 
       0.889708         70.5385         30.0718 
       0.895864         69.8879         29.6135 
       0.902008         69.2262         29.1659 
       0.908149         68.5918         28.7279 
       0.914301         68.2193         28.2983 
       0.920448          67.826         27.8779 
       0.926574         66.6056         27.4677 
       0.932687         66.3481         27.0667 
       0.938823         65.7664         26.6723 
       0.944975         65.0875          26.285 
       0.951105         64.6027         25.9069 
       0.957225         64.4266         25.5369 
       0.963368         63.7635         25.1729 
       0.969511          63.204         24.8161 
       0.975621         62.7803         24.4682 
       0.981748         62.1358         24.1262 
       0.987916         61.7414         23.7886 
        0.99406         61.2903         23.4587 
        1.00019         60.7522         23.1359 
        1.00632         60.3597         22.8195 
        1.01246         59.9103         22.5086 
        1.01859         59.5648          22.204 
        1.02471         58.8974         21.9055 
        1.03085         58.6712         21.6115 
        1.03698         58.2671         21.3236 
        1.04314         57.8884         21.0398 
        1.04929         57.3277         20.7618 
        1.05541         57.0505           20.49 
        1.06154         56.7817         20.2225 
        1.06769          56.002         19.9594 
        1.07382         55.8152         19.7019 
        1.07993         55.4389         19.4496 
        1.08607         55.0172         19.2006 
        1.09222         54.7952         18.9559 
        1.09836         54.3168         18.7157 
        1.10449         54.0402           18.48 
        1.11063         53.5746         18.2482 
        1.11677          53.546         18.0205 
         1.1229         52.9439          17.797 
        1.12903         52.7478         17.5772 
        1.13518         52.6068          17.361 
        1.14131         52.0285         17.1486 
        1.14745         51.5319         16.9399 
        1.15359         51.1395         16.7346 
        1.15973         51.0096         16.5327 
        1.16584         50.6764         16.3351 
        1.17197         50.0854         16.1404 
        1.17811         49.9421         15.9483 
        1.18424         49.3306           15.76 
        1.19038         49.2523         15.5742 
        1.19652         49.0322         15.3914 
        1.20267         48.7413         15.2116 
        1.20881         48.4019         15.0348 
        1.21495         48.1875          14.861 
        1.22108         48.0134         14.6901 
         1.2272         47.6548         14.5223 
        1.23334         47.3582         14.3567 
        1.23949         47.0672         14.1933 
        1.24562         46.6748          14.033 
        1.25174         46.4433         13.8753 
        1.25789         46.4217         13.7197 
        1.26402         46.0469         13.5667 
        1.27014         45.7772         13.4165 
        1.27628         45.3633         13.2681 
        1.28244         45.3077         13.1216 
        1.28858         44.9345         12.9776 
        1.29471         44.7704         12.8361 
        1.30084          44.389         12.6969 
        1.30697         44.2646         12.5595 
        1.31312          43.898          12.424 
        1.31925         43.5831         12.2909 
        1.32537         43.4127           12.16 
        1.33151         43.1436         12.0304 
        1.33765          43.016         11.9029 
        1.34378         42.8293         11.7775 
        1.34992         42.5319         11.6538 
        1.35606         42.2922         11.5316 
         1.3622          42.004         11.4114 
        1.36833         41.8078         11.2933 
        1.37445          41.532         11.1768 
        1.38059         41.3906         11.0617 
        1.38675         41.0107         10.9479 
        1.39288         40.9521         10.8362 
        1.39901         40.6804         10.7261 
        1.40515         40.5113         10.6173 
         1.4113         40.4741         10.5101 
        1.41742         40.2189         10.4048 
        1.42355         39.8417         10.3007 
         1.4297         39.6418         10.1978 
        1.43585         39.3992         10.0963 
        1.44198         39.2672         9.99656 
        1.44809         39.0536         9.89838 
        1.45423          38.919         9.80118 
        1.46036         38.7239         9.70546 
        1.46649         38.5289           9.611 
        1.47263         38.2682         9.51773 
        1.47877         38.1453         9.42575 
        1.48491         38.0123         9.33484 
        1.49104         37.7173         9.24533 
        1.49718         37.5893         9.15694 
        1.50333         37.4773         9.06956 
        1.50947         37.2149         8.98352 
         1.5156         37.0488         8.89872 
        1.52172         36.7732         8.81503 
        1.52787         36.6428         8.73225 
          1.534          36.477         8.65064 
        1.54013           36.38         8.57017 
        1.54627         36.0621         8.49058 
        1.55241         35.9481           8.412 
        1.55855         35.8159         8.33453 
        1.56467         35.7059         8.25825 
         1.5708         35.5017         8.18272 
        1.57695         35.3247         8.10803 
        1.58308         35.0383         8.03445 
        1.58922         34.8816         7.96174 
        1.59535         34.7909         7.88996 
         1.6015         34.6521         7.81897 
        1.60764         34.5094         7.74889 
        1.61376         34.3165         7.67987 
        1.61989         34.0857         7.61164 
        1.62604         33.9764          7.5441 
        1.63218         33.8203         7.47742 
        1.63831         33.7068          7.4117 
        1.64444         33.5319         7.34676 
        1.65059         33.3742         7.28244 
        1.65673         33.2359         7.21897 
        1.66285         33.1187         7.15644 
        1.66898          32.908         7.09463 
        1.67512         32.8425         7.03344 
        1.68127         32.6634         6.97292 
         1.6874         32.5101         6.91325 
        1.69353         32.3939         6.85432 
        1.69967         32.2353         6.79594 
        1.70581         31.9979         6.73826 
        1.71193         31.8292         6.68148 
        1.71806         31.7874         6.62524 
        1.72421         31.6937         6.56954 
        1.73035         31.4861         6.51454 
        1.73649          31.303         6.46019 
        1.74262         31.1503          6.4065 
        1.74876         31.0288          6.3534 
        1.75489          30.922           6.301 
        1.76101         30.8119         6.24922 
        1.76715         30.6852         6.19795 
        1.77329          30.494          6.1472 
        1.77943         30.4335           6.097 
        1.78557         30.2858         6.04743 
        1.79171         30.1332         5.99841 
        1.79785         30.0089         5.94993 
        1.80399         29.8952           5.902 
        1.81012         29.7949         5.85466 
        1.81625         29.5856         5.80786 
        1.82239         29.5006         5.76151 
        1.82853         29.3718         5.71569 
        1.83466         29.2266         5.67042 
        1.84078         29.0996         5.62569 
        1.84692         29.0405         5.58137 
        1.85306         28.8534         5.53747 
         1.8592         28.7745         5.49412 
        1.86533         28.5797         5.45126 
        1.87147         28.4701         5.40881 
        1.87761         28.3776          5.3668 
        1.88375         28.3387         5.32528 
        1.88988         28.1018         5.28425 
        1.89601         28.0106         5.24363 
        1.90215         27.8991         5.20341 
        1.90829         27.8263         5.16364 
        1.91442          27.597         5.12428 
        1.92056         27.5769         5.08536 
         1.9267         27.4527         5.04681 
        1.93284         27.3988         5.00865 
        1.93897         27.2517         4.97095 
        1.94509          27.143         4.93372 
        1.95123         26.9809         4.89678 
        1.95737         26.9133          4.8602 
        1.96349          26.762         4.82408 
        1.96964         26.7851         4.78823 
        1.97578         26.5593         4.75273 
        1.98192         26.4658         4.71766 
        1.98805         26.2568         4.68295 
        1.99419         26.2844         4.64858 
        2.00033         26.1366         4.61455 
        2.00647         26.0467         4.58086 
         2.0126         25.9145         4.54757 
        2.01874         25.7953         4.51456 
        2.02488         25.6712         4.48186 
        2.03101         25.5692         4.44954 
        2.03714         25.4646         4.41757 
        2.04328         25.3967         4.38587 
        2.04941         25.2731         4.35452 
        2.05554         25.2415          4.3235 
        2.06167         25.1022         4.29274 
        2.06781         25.0032         4.26228 
        2.07396         24.9491         4.23207 
        2.08009         24.8078          4.2022 
        2.08622         24.6981         4.17266 
        2.09237         24.6446         4.14335 
        2.09851         24.4492         4.11432 
        2.10464         24.3927         4.08561 
        2.11077         24.3626         4.05721 
        2.11691         24.2213         4.02903 
        2.12305         24.1414         4.00111 
        2.12918         24.0356         3.97352 
        2.13531         23.9564         3.94619 
        2.14145         23.8058         3.91906 
         2.1476         23.6886         3.89215 
        2.15372         23.6447         3.86563 
        2.15985         23.5695         3.83933 
        2.16599         23.4671          3.8132 
        2.17213         23.4159         3.78735 
        2.17827         23.2408         3.76174 
         2.1844         23.1848         3.73639 
        2.19054         23.1457         3.71127 
        2.19666         23.0186         3.68641 
         2.2028         22.9649         3.66177 
        2.20893         22.7853         3.63733 
        2.21508         22.7285          3.6131 
        2.22122         22.6259         3.58907 
        2.22736         22.6024         3.56532 
        2.23349         22.4918         3.54179 
        2.23962         22.4414         3.51846 
        2.24577         22.3313         3.49532 
         2.2519         22.2428         3.47242 
        2.25802         22.0759         3.44977 
        2.26417         22.0566         3.42725 
        2.27031         21.9931         3.40492 
        2.27644         21.9556         3.38285 
        2.28257         21.8004         3.36097 
        2.28872         21.7811         3.33926 
        2.29486         21.6746         3.31773 
        2.30099         21.5426         3.29645 
        2.30712         21.4715         3.27534 
        2.31326         21.4001         3.25438 
         2.3194          21.321         3.23362 
        2.32553          21.257         3.21307 
        2.33166         21.1262         3.19271 
         2.3378         21.1138          3.1725 
        2.34394         20.9884         3.15246 
        2.35007         20.9101         3.13263 
        2.35619          20.848         3.11299 
        2.36233         20.7605         3.09347 
        2.36848         20.6782         3.07408 
        2.37462         20.5929         3.05489 
        2.38075         20.5188         3.03589 
        2.38689         20.4492         3.01704 
        2.39303         20.3686         2.99835 
        2.39916         20.2924         2.97984 
        2.40529         20.2179         2.96149 
        2.41143         20.1417         2.94328 
        2.41757         20.0461         2.92521 
         2.4237         19.9822         2.90733 
        2.42983         19.9323         2.88961 
        2.43598         19.8509         2.87198 
        2.44211         19.7485         2.85453 
        2.44823         19.7293         2.83727 
        2.45437         19.6571          2.8201 
        2.46052         19.5344         2.80306 
        2.46665          19.509         2.78619 
        2.47279         19.3778         2.76947 
        2.47892         19.3336         2.75287 
        2.48507         19.2616          2.7364 
         2.4912         19.2023         2.72009 
