# k  (h/Mpc)    P(k)  (Mpc/h)^3    P_linear(k)  (Mpc/h)^3
     0.00783031          6331.5         6359.48 
       0.013688         7638.57         7537.02 
       0.019231         7398.63         7310.93 
      0.0249154         6424.01         6433.65 
      0.0312784         5282.83         5246.23 
      0.0375637         4280.62         4217.58 
      0.0433917         3537.64         3517.69 
      0.0492413         3094.07         3057.19 
      0.0555754         2755.39         2760.85 
      0.0619321         2625.25         2577.53 
       0.067871         2428.08         2428.97 
      0.0738098         2250.28         2251.97 
      0.0800417         2007.75         2019.98 
      0.0862327         1768.31         1761.21 
      0.0921407         1546.04         1521.04 
      0.0982031         1329.44         1311.72 
       0.104506         1194.42         1151.02 
       0.110769         1087.85         1048.61 
       0.116806         1020.58         991.577 
       0.122832         987.815          957.43 
       0.129052         939.583         926.529 
       0.135211         897.874         885.295 
       0.141259         850.572         828.416 
       0.147318         786.338         758.051 
       0.153489         706.894          681.68 
       0.159709         644.678         610.496 
       0.165845          597.24         553.487 
       0.171974         552.005          512.47 
       0.178125         525.642         485.777 
       0.184229         507.071         469.185 
        0.19034         480.955         456.766 
       0.196428         473.787          443.34 
       0.202534         459.654         425.431 
       0.208729         433.156          401.92 
       0.214876         405.121         374.922 
       0.220989         384.075          347.42 
       0.227147         358.276         322.064 
        0.23329         338.856         301.131 
       0.239377         327.155         285.333 
       0.245482         306.261         273.832 
       0.251667         302.632         265.121 
       0.257832         293.587         257.583 
       0.263955         283.825         249.685 
       0.270079         272.912         240.431 
        0.27624         266.904         229.654 
       0.282372         255.553             218 
        0.28843          244.18         206.446 
       0.294538          232.16          195.64 
       0.300721         227.522         186.153 
        0.30691         216.508         178.339 
       0.313033         210.882          172.04 
       0.319153         202.155         166.739 
       0.325316         198.062         161.835 
        0.33145         191.094         156.933 
       0.337538         187.742         151.748 
       0.343633         181.024         146.218 
       0.349808          174.99         140.402 
       0.355968         171.101         134.657 
       0.362074         165.885         129.285 
       0.368217         160.859         124.375 
       0.374374         155.545         120.041 
       0.380519         152.473         116.224 
       0.386598         148.381         112.831 
       0.392688          145.87         109.649 
        0.39888         142.034         106.474 
       0.405048         138.433         103.295 
       0.411186         135.219         100.078 
       0.417313         131.844         96.8506 
       0.423458         128.747         93.6776 
       0.429607         125.542         90.6354 
       0.435692         121.362         87.8106 
       0.441815         120.235         85.1904 
       0.447964         117.977         82.7608 
       0.454126         112.754         80.4896 
       0.460267         111.437         78.3459 
       0.466387          109.52         76.2804 
        0.47254          107.24         74.2336 
       0.478662         106.069         72.2207 
       0.484765         102.752         70.2469 
       0.490885         100.918         68.3116 
       0.497035         99.5779         66.4306 
       0.503198         96.7522         64.6313 
       0.509342         94.8089         62.9346 
       0.515458          93.323         61.3338 
       0.521598         91.8254         59.8031 
       0.527764         90.4275         58.3314 
       0.533884         88.9956         56.9224 
           0.54         87.1201         55.5536 
       0.546137         86.2326         54.2086 
       0.552299         84.8114         52.8875 
       0.558452         82.7892         51.6042 
       0.564573         81.3115         50.3683 
       0.570708          80.119         49.1737 
       0.576825         78.9807         48.0264 
       0.582926         77.2692         46.9252 
       0.589034         75.8991          45.865 
       0.595184         74.8786         44.8368 
       0.601379         73.8051         43.8357 
       0.607522         72.0902          42.872 
       0.613639         71.8181         41.9367 
       0.619772         70.2061         41.0222 
       0.625918         69.3981         40.1303 
       0.632068         68.5489         39.2637 
       0.638161         67.6368         38.4316 
         0.6443         66.6834         37.6198 
       0.650464          65.779         36.8303 
       0.656582         64.8627         36.0706 
       0.662703         63.6266          35.333 
       0.668861          62.812         34.6123 
       0.675024         62.0797         33.9115 
       0.681124          61.186         33.2373 
       0.687237          60.052           32.58 
       0.693381         59.4657         31.9372 
       0.699536         58.5753         31.3102 
       0.705665         58.7519         30.7025 
       0.711789         57.1573         30.1114 
       0.717957          56.649         29.5318 
        0.72409         55.8635          28.971 
       0.730186         54.9475         28.4285 
       0.736317         54.7541         27.8974 
       0.742472         53.9993         27.3784 
       0.748622         53.3777         26.8734 
        0.75476         52.7847         26.3826 
       0.760888         51.9651         25.9049 
       0.767043         51.4186         25.4372 
       0.773185         50.7666          24.982 
       0.779291         50.4467         24.5405 
       0.785407         49.9685          24.109 
       0.791564         49.3037         23.6853 
       0.797719         48.4294          23.272 
       0.803834         48.2548         22.8712 
       0.809972         47.4106         22.4786 
       0.816124         46.9519         22.0944 
       0.822261         46.5684         21.7204 
       0.828378          46.267         21.3563 
       0.834502         45.6879         21.0003 
       0.840667         45.2323         20.6502 
       0.846816         44.5608         20.3092 
       0.852925         44.2183         19.9781 
       0.859047         43.6209         19.6538 
       0.865192         43.2939         19.3357 
       0.871341         43.1229         19.0244 
       0.877463         42.2637         18.7215 
       0.883569         41.9558          18.426 
       0.889708         41.6821         18.1354 
       0.895864         41.2796         17.8504 
       0.902008         40.8817         17.5722 
       0.908149         40.5413         17.3001 
       0.914301         40.2629         17.0333 
       0.920448         39.8157         16.7725 
       0.926574         39.3907         16.5181 
       0.932687         39.1154         16.2695 
       0.938823         38.5189         16.0252 
       0.944975         38.3704         15.7854 
       0.951105         37.9817         15.5514 
       0.957225         37.5015         15.3226 
       0.963368         37.5042         15.0976 
       0.969511         37.1243         14.8772 
       0.975621         36.8204         14.6625 
       0.981748         36.3537         14.4514 
       0.987916         36.1165         14.2432 
        0.99406         35.8699           14.04 
        1.00019         35.4508         13.8411 
        1.00632         35.2399         13.6463 
        1.01246         35.0282          13.455 
        1.01859         34.5075         13.2677 
        1.02471         34.4889         13.0842 
        1.03085         34.1616         12.9036 
        1.03698         33.7504         12.7268 
        1.04314         33.5058         12.5526 
        1.04929         33.2549         12.3821 
        1.05541          32.906         12.2155 
        1.06154         32.8476         12.0516 
        1.06769         32.5372         11.8904 
        1.07382          32.312         11.7327 
        1.07993         32.1442         11.5783 
        1.08607         31.7653          11.426 
        1.09222         31.6342         11.2764 
        1.09836         31.3582         11.1296 
        1.10449         31.1149         10.9856 
        1.11063         30.7401          10.844 
        1.11677         30.5988          10.705 
         1.1229         30.4497         10.5686 
        1.12903         30.0459         10.4346 
        1.13518         30.0468         10.3027 
        1.14131         29.8631         10.1733 
        1.14745         29.4799         10.0461 
        1.15359         29.4529          9.9211 
        1.15973          29.092         9.79819 
        1.16584         28.8786         9.67792 
        1.17197         28.8086         9.55951 
        1.17811         28.5252         9.44274 
        1.18424         28.2691         9.32827 
        1.19038         28.2074         9.21537 
        1.19652         28.0734          9.1044 
        1.20267         27.8523         8.99527 
        1.20881         27.5991         8.88796 
        1.21495          27.422         8.78258 
        1.22108         27.2547         8.67894 
         1.2272         26.9611         8.57723 
        1.23334         26.8906         8.47692 
        1.23949         26.7819         8.37799 
        1.24562         26.5348         8.28093 
        1.25174         26.4396         8.18556 
        1.25789         26.2285         8.09141 
        1.26402         26.0541         7.99892 
        1.27014         25.7983         7.90811 
        1.27628         25.6972         7.81845 
        1.28244         25.5546         7.73001 
        1.28858         25.4379         7.64307 
        1.29471         25.3006         7.55766 
        1.30084           25.14         7.47365 
        1.30697         24.9608          7.3908 
        1.31312         24.7333         7.30908 
        1.31925         24.6353         7.22887 
        1.32537         24.5224         7.14995 
        1.33151         24.3375         7.07193 
        1.33765         24.2785         6.99513 
        1.34378         24.1031         6.91963 
        1.34992         23.8565         6.84519 
        1.35606         23.7627          6.7717 
         1.3622         23.6388         6.69941 
        1.36833         23.4627         6.62837 
        1.37445         23.4642         6.55839 
        1.38059         23.2567         6.48921 
        1.38675         23.0078         6.42087 
        1.39288         23.0113         6.35379 
        1.39901         22.8058          6.2877 
        1.40515          22.718          6.2224 
         1.4113         22.5989         6.15807 
        1.41742         22.3834         6.09489 
        1.42355         22.3599         6.03248 
         1.4297         22.2126         5.97076 
        1.43585         22.1502         5.90994 
        1.44198         21.9414          5.8502 
        1.44809         21.8373          5.7914 
        1.45423         21.7384          5.7332 
        1.46036         21.6818         5.67591 
        1.46649         21.5144         5.61938 
        1.47263         21.3819         5.56358 
        1.47877         21.3108         5.50857 
        1.48491         21.2285         5.45422 
        1.49104         21.1015         5.40072 
        1.49718         20.9111         5.34791 
        1.50333         20.8795         5.29572 
        1.50947         20.7794         5.24433 
         1.5156         20.6428         5.19371 
        1.52172         20.5071         5.14376 
        1.52787         20.4839         5.09437 
          1.534         20.3125         5.04569 
        1.54013         20.1661         4.99771 
        1.54627         20.1139         4.95026 
        1.55241         19.9785         4.90342 
        1.55855         19.8806         4.85726 
        1.56467         19.7691         4.81182 
         1.5708         19.7402         4.76684 
        1.57695         19.5461         4.72237 
        1.58308         19.5523         4.67857 
        1.58922         19.4254         4.63529 
        1.59535          19.301         4.59258 
         1.6015         19.2074         4.55035 
        1.60764         19.1698         4.50868 
        1.61376         18.9813         4.46764 
        1.61989         18.8848         4.42708 
        1.62604          18.877         4.38694 
        1.63218         18.7511         4.34732 
        1.63831         18.6905         4.30828 
        1.64444         18.5555         4.26971 
        1.65059         18.4593         4.23152 
        1.65673          18.362         4.19384 
        1.66285          18.308         4.15673 
        1.66898         18.2399         4.12006 
        1.67512         18.1717         4.08376 
        1.68127          18.049         4.04786 
         1.6874          17.956         4.01248 
        1.69353         17.8903         3.97755 
        1.69967          17.772         3.94295 
        1.70581         17.7052         3.90878 
        1.71193         17.6443         3.87514 
        1.71806         17.5312         3.84183 
        1.72421         17.4589         3.80885 
        1.73035         17.3583         3.77629 
        1.73649         17.3302         3.74412 
        1.74262         17.2537         3.71236 
        1.74876         17.1944         3.68094 
        1.75489         17.0852         3.64996 
        1.76101         16.9986         3.61934 
        1.76715         16.9468         3.58903 
        1.77329         16.8794         3.55903 
        1.77943         16.7701         3.52937 
        1.78557         16.7243         3.50009 
        1.79171         16.6524         3.47113 
        1.79785         16.5323          3.4425 
        1.80399         16.4721          3.4142 
        1.81012         16.4542         3.38626 
        1.81625         16.3575         3.35864 
        1.82239         16.3341         3.33129 
        1.82853         16.1867         3.30426 
        1.83466         16.0963         3.27756 
        1.84078         16.0171         3.25118 
        1.84692          16.011         3.22505 
        1.85306         15.9083         3.19917 
         1.8592           15.84         3.17362 
        1.86533         15.7861         3.14836 
        1.87147         15.7102         3.12335 
        1.87761         15.6783         3.09861 
        1.88375         15.6093         3.07416 
        1.88988         15.5263            3.05 
        1.89601         15.4319         3.02608 
        1.90215         15.3916         3.00241 
        1.90829         15.3502           2.979 
        1.91442         15.2695         2.95584 
        1.92056          15.202         2.93295 
         1.9267         15.1289         2.91028 
        1.93284         15.0602         2.88783 
        1.93897         15.0089         2.86567 
        1.94509         14.9483         2.84378 
        1.95123         14.8782         2.82207 
        1.95737         14.8344         2.80058 
        1.96349         14.7568         2.77936 
        1.96964         14.6941          2.7583 
        1.97578         14.6469         2.73745 
        1.98192         14.5693         2.71686 
        1.98805         14.5301         2.69648 
        1.99419          14.452         2.67631 
        2.00033         14.3618         2.65633 
        2.00647          14.321         2.63657 
         2.0126         14.2817         2.61704 
        2.01874         14.2013         2.59768 
        2.02488         14.1664         2.57849 
        2.03101         14.1145         2.55954 
        2.03714         14.0674          2.5408 
        2.04328          13.981         2.52223 
        2.04941         13.9129         2.50385 
        2.05554          13.903         2.48567 
        2.06167         13.8387         2.46765 
        2.06781         13.7909         2.44981 
        2.07396          13.747         2.43212 
        2.08009         13.6906         2.41463 
        2.08622         13.5849         2.39734 
        2.09237         13.5596         2.38018 
        2.09851         13.5187         2.36319 
        2.10464         13.4589         2.34639 
        2.11077         13.3793         2.32978 
        2.11691         13.3506         2.31329 
        2.12305         13.3135         2.29695 
        2.12918          13.234         2.28082 
        2.13531         13.1917         2.26484 
        2.14145         13.1293         2.24898 
         2.1476         13.1091         2.23325 
        2.15372         13.0483         2.21775 
        2.15985         12.9626         2.20238 
        2.16599         12.9483         2.18712 
        2.17213         12.8896         2.17201 
        2.17827         12.8489         2.15706 
         2.1844         12.7864         2.14225 
        2.19054         12.7379         2.12759 
        2.19666          12.727         2.11308 
         2.2028         12.6754         2.09869 
        2.20893         12.6018         2.08443 
        2.21508         12.5316         2.07029 
        2.22122         12.4849         2.05627 
        2.22736         12.4668         2.04241 
        2.23349         12.3991         2.02869 
        2.23962          12.345         2.01508 
        2.24577         12.2998         2.00159 
         2.2519         12.2881         1.98824 
        2.25802         12.2375         1.97503 
        2.26417         12.2046         1.96191 
        2.27031         12.1168         1.94889 
        2.27644         12.1027         1.93603 
        2.28257         12.0452         1.92329 
        2.28872         12.0027         1.91064 
        2.29486         11.9563          1.8981 
        2.30099         11.9159         1.88571 
        2.30712         11.8942         1.87342 
        2.31326         11.8286         1.86121 
         2.3194         11.8052         1.84913 
        2.32553          11.744         1.83717 
        2.33166         11.6794         1.82532 
         2.3378         11.6493         1.81356 
        2.34394         11.6199         1.80191 
        2.35007         11.5515         1.79037 
        2.35619         11.4919         1.77894 
        2.36233         11.4886         1.76759 
        2.36848         11.4622         1.75632 
        2.37462         11.4235         1.74517 
        2.38075         11.3526         1.73412 
        2.38689         11.3334         1.72316 
        2.39303         11.2778          1.7123 
        2.39916         11.2517         1.70155 
        2.40529          11.198         1.69088 
        2.41143         11.1713         1.68031 
        2.41757         11.1314         1.66981 
         2.4237         11.0925         1.65943 
        2.42983         11.0432         1.64914 
        2.43598         11.0145          1.6389 
        2.44211         10.9746         1.62877 
        2.44823         10.9216         1.61875 
        2.45437         10.9065         1.60879 
        2.46052         10.8548          1.5989 
        2.46665         10.8074         1.58911 
        2.47279         10.7518         1.57941 
        2.47892         10.7376         1.56978 
        2.48507         10.7094         1.56023 
         2.4912         10.6759         1.55077 
