# k  (h/Mpc)    Pcb(k)  (Mpc/h)^3    Pcb_linear(k)  (Mpc/h)^3
     0.00783031         16185.1         16422.5 
       0.013688         19680.2         19500.7 
       0.019231         18986.1         18928.4 
      0.0249154         16342.4           16663 
      0.0312784         13479.7         13590.7 
      0.0375637         10980.2         10927.4 
      0.0433917         9019.21         9114.82 
      0.0492413         7925.86         7922.07 
      0.0555754         6991.53         7154.52 
      0.0619321         6737.34          6679.7 
       0.067871          6162.1         6294.88 
      0.0738098         5714.56          5836.3 
      0.0800417         5083.42         5235.16 
      0.0862327         4506.24         4564.58 
      0.0921407         3990.36         3942.15 
      0.0982031         3442.81         3399.69 
       0.104506          3139.1         2983.21 
       0.110769         2864.27          2717.8 
       0.116806         2698.07            2570 
       0.122832         2593.93         2481.51 
       0.129052         2440.09         2401.43 
       0.135211         2331.34         2294.57 
       0.141259         2226.22         2147.15 
       0.147318         2073.99         1964.78 
       0.153489         1871.78         1766.84 
       0.159709         1734.71         1582.34 
       0.165845         1632.92         1434.59 
       0.171974         1529.25         1328.28 
       0.178125         1452.43          1259.1 
       0.184229         1391.96         1216.09 
        0.19034         1319.47          1183.9 
       0.196428         1297.88          1149.1 
       0.202534         1253.89         1102.69 
       0.208729         1189.63         1041.75 
       0.214876         1129.54         971.773 
       0.220989         1080.87         900.492 
       0.227147         1027.21         834.771 
        0.23329         979.053         780.516 
       0.239377         956.106         739.571 
       0.245482          892.78          709.76 
       0.251667         887.721         687.179 
       0.257832         853.695         667.643 
       0.263955         826.424          647.17 
       0.270079         794.818         623.188 
        0.27624         784.806         595.255 
       0.282372         752.154         565.044 
        0.28843         737.157           535.1 
       0.294538         698.129         507.092 
       0.300721         692.672         482.507 
        0.30691         662.863         462.247 
       0.313033         649.393          445.92 
       0.319153         631.957         432.183 
       0.325316         613.385         419.469 
        0.33145         596.587          406.76 
       0.337538         586.303         393.328 
       0.343633          569.76         378.993 
       0.349808         548.934         363.918 
       0.355968         544.193         349.028 
       0.362074         536.385         335.102 
       0.368217         520.294         322.378 
       0.374374         498.109         311.143 
       0.380519         496.459          301.25 
       0.386598         482.704         292.455 
       0.392688         479.963         284.205 
        0.39888         465.783         275.977 
       0.405048         457.044         267.739 
       0.411186         449.699           259.4 
       0.417313         440.553         251.034 
       0.423458         431.342          242.81 
       0.429607         424.906         234.925 
       0.435692         414.424         227.603 
       0.441815         410.297         220.811 
       0.447964         401.477         214.514 
       0.454126         393.654         208.627 
       0.460267         385.607         203.071 
       0.466387         380.742         197.717 
        0.47254         374.828         192.411 
       0.478662          372.91         187.194 
       0.484765         359.529         182.078 
       0.490885          356.34         177.062 
       0.497035         349.443         172.186 
       0.503198         345.233         167.524 
       0.509342         342.677         163.125 
       0.515458         338.506         158.976 
       0.521598         329.737         155.008 
       0.527764         325.268         151.194 
       0.533884         322.486         147.542 
           0.54          317.92         143.993 
       0.546137         316.396         140.508 
       0.552299         310.057         137.083 
       0.558452         308.232         133.757 
       0.564573         303.801         130.554 
       0.570708         298.117         127.457 
       0.576825         292.501         124.483 
       0.582926         290.416         121.629 
       0.589034          287.61         118.881 
       0.595184         285.211         116.216 
       0.601379         280.407         113.621 
       0.607522         276.633         111.123 
       0.613639         275.124         108.699 
       0.619772         269.568         106.329 
       0.625918         268.344         104.017 
       0.632068         263.805         101.771 
       0.638161         262.697         99.6141 
         0.6443         258.517         97.5097 
       0.650464         255.939         95.4635 
       0.656582         253.217         93.4943 
       0.662703          252.86         91.5824 
       0.668861         248.493         89.7145 
       0.675024         245.432          87.898 
       0.681124          243.74         86.1504 
       0.687237         241.217         84.4467 
       0.693381          237.44         82.7805 
       0.699536          235.17         81.1556 
       0.705665         233.243         79.5804 
       0.711789         231.664         78.0482 
       0.717957          230.42          76.546 
        0.72409         227.883         75.0923 
       0.730186         225.059         73.6861 
       0.736317         222.602         72.3096 
       0.742472         221.083         70.9643 
       0.748622         219.366         69.6555 
        0.75476         217.148         68.3832 
       0.760888         214.698          67.145 
       0.767043         214.523         65.9327 
       0.773185         212.195         64.7528 
       0.779291         208.423         63.6085 
       0.785407         208.056         62.4902 
       0.791564         205.887         61.3918 
       0.797719          203.15         60.3206 
       0.803834         201.771         59.2819 
       0.809972         201.063         58.2642 
       0.816124         200.139         57.2684 
       0.822261         198.304          56.299 
       0.828378         196.203         55.3552 
       0.834502         195.066         54.4325 
       0.840667         192.952         53.5251 
       0.846816         191.542         52.6412 
       0.852925         190.623          51.783 
       0.859047         188.975         50.9423 
       0.865192         186.571         50.1177 
       0.871341         185.217          49.311 
       0.877463         184.178         48.5258 
       0.883569         183.557         47.7599 
       0.889708           181.3         47.0067 
       0.895864         179.677          46.268 
       0.902008         178.545         45.5468 
       0.908149         177.914         44.8415 
       0.914301         175.577         44.1501 
       0.920448          174.63          43.474 
       0.926574         173.268         42.8146 
       0.932687         173.243         42.1703 
       0.938823         170.956         41.5371 
       0.944975         169.904         40.9155 
       0.951105         168.928          40.309 
       0.957225         167.739         39.7159 
       0.963368         165.372         39.1329 
       0.969511          164.86         38.5616 
       0.975621         163.387         38.0049 
       0.981748         163.262         37.4578 
       0.987916         161.652         36.9182 
        0.99406         160.251         36.3914 
        1.00019         160.072         35.8759 
        1.00632         158.472          35.371 
        1.01246         157.422         34.8751 
        1.01859         157.271         34.3897 
        1.02471         154.923         33.9141 
        1.03085         153.806          33.446 
        1.03698         153.178         32.9878 
        1.04314         151.632         32.5363 
        1.04929         151.049         32.0943 
        1.05541         150.625         31.6624 
        1.06154         149.175         31.2374 
        1.06769          148.92         30.8197 
        1.07382         147.487          30.411 
        1.07993         146.505         30.0108 
        1.08607         145.846         29.6161 
        1.09222         145.043         29.2282 
        1.09836         143.917         28.8477 
        1.10449         142.401         28.4745 
        1.11063         141.491         28.1075 
        1.11677         140.973         27.7471 
         1.1229         139.921         27.3938 
        1.12903         139.425         27.0463 
        1.13518           138.7         26.7045 
        1.14131         137.288         26.3689 
        1.14745         137.126         26.0393 
        1.15359         135.999         25.7153 
        1.15973         135.148         25.3967 
        1.16584         134.058          25.085 
        1.17197         133.552         24.7781 
        1.17811         132.581         24.4754 
        1.18424           132.1         24.1787 
        1.19038         131.808         23.8861 
        1.19652         130.715         23.5985 
        1.20267         129.809         23.3156 
        1.20881         128.978         23.0375 
        1.21495         128.059         22.7643 
        1.22108          127.42         22.4957 
         1.2272         126.416          22.232 
        1.23334         126.047          21.972 
        1.23949         125.207         21.7156 
        1.24562         124.395          21.464 
        1.25174         123.846         21.2168 
        1.25789         122.991         20.9728 
        1.26402         121.748         20.7331 
        1.27014         121.174         20.4977 
        1.27628         120.925         20.2653 
        1.28244         120.556         20.0361 
        1.28858         119.622         19.8107 
        1.29471         118.507         19.5893 
        1.30084         118.522         19.3716 
        1.30697         117.164         19.1568 
        1.31312         116.718          18.945 
        1.31925         115.933         18.7371 
        1.32537         115.562         18.5326 
        1.33151         114.565         18.3303 
        1.33765         113.976         18.1313 
        1.34378          113.54         17.9356 
        1.34992         113.132         17.7426 
        1.35606         112.644         17.5521 
         1.3622         111.505         17.3648 
        1.36833          110.89         17.1806 
        1.37445          110.49         16.9992 
        1.38059           109.6         16.8199 
        1.38675         109.039         16.6428 
        1.39288         108.786         16.4689 
        1.39901         108.304         16.2976 
        1.40515         107.318         16.1284 
         1.4113         106.926         15.9616 
        1.41742         106.208         15.7978 
        1.42355         105.614         15.6361 
         1.4297         105.209         15.4761 
        1.43585         104.425         15.3185 
        1.44198         103.943         15.1636 
        1.44809         103.545         15.0112 
        1.45423         103.051         14.8604 
        1.46036         102.422         14.7119 
        1.46649         101.695         14.5653 
        1.47263          101.01         14.4207 
        1.47877         100.635         14.2781 
        1.48491         99.8396         14.1373 
        1.49104         99.7035         13.9986 
        1.49718         99.0357         13.8617 
        1.50333         98.5024         13.7264 
        1.50947         98.0124         13.5932 
         1.5156         97.5445          13.462 
        1.52172          97.019         13.3325 
        1.52787         96.3724         13.2045 
          1.534         95.9041         13.0784 
        1.54013         95.4457          12.954 
        1.54627         95.0433          12.831 
        1.55241         94.3417         12.7096 
        1.55855         93.8089         12.5899 
        1.56467         93.6313         12.4722 
         1.5708         92.8149         12.3556 
        1.57695         92.6343         12.2403 
        1.58308         92.0294         12.1268 
        1.58922         91.7479         12.0146 
        1.59535         91.1975         11.9039 
         1.6015         90.7403         11.7944 
        1.60764         90.1945         11.6864 
        1.61376         89.8652           11.58 
        1.61989         89.3689         11.4749 
        1.62604         88.8907         11.3709 
        1.63218         88.7077         11.2682 
        1.63831         87.7727          11.167 
        1.64444         87.4612          11.067 
        1.65059         86.9972          10.968 
        1.65673         86.4356         10.8704 
        1.66285         86.1422         10.7742 
        1.66898         85.8455         10.6791 
        1.67512         85.1257          10.585 
        1.68127         84.8888          10.492 
         1.6874         84.2561         10.4003 
        1.69353          83.911         10.3097 
        1.69967         83.6479         10.2201 
        1.70581         83.1465         10.1315 
        1.71193         82.6938         10.0443 
        1.71806         82.3825         9.95796 
        1.72421         81.7871         9.87247 
        1.73035         81.5013         9.78808 
        1.73649         81.1303          9.7047 
        1.74262         80.5229         9.62237 
        1.74876          80.294         9.54094 
        1.75489         79.7368         9.46062 
        1.76101         79.3729         9.38126 
        1.76715         78.8084          9.3027 
        1.77329         78.6386         9.22495 
        1.77943         78.0445         9.14806 
        1.78557         77.9603         9.07216 
        1.79171         77.1492         8.99711 
        1.79785         76.8434          8.9229 
        1.80399         76.5259         8.84955 
        1.81012         76.2808         8.77712 
        1.81625         75.8954         8.70554 
        1.82239         75.4825         8.63465 
        1.82853          75.191         8.56459 
        1.83466         74.7505         8.49537 
        1.84078         74.3212         8.42699 
        1.84692         74.0266         8.35926 
        1.85306         73.6174         8.29219 
         1.8592         73.3868         8.22597 
        1.86533         72.8747          8.1605 
        1.87147         72.4296         8.09568 
        1.87761         72.2202         8.03153 
        1.88375         71.8525         7.96815 
        1.88988         71.4568         7.90553 
        1.89601         71.1011         7.84355 
        1.90215         70.6228         7.78219 
        1.90829         70.3584         7.72152 
        1.91442         70.0352         7.66149 
        1.92056         69.6373         7.60215 
         1.9267         69.3661         7.54339 
        1.93284         68.9859         7.48521 
        1.93897         68.6256         7.42776 
        1.94509          68.434         7.37104 
        1.95123         67.9895         7.31476 
        1.95737          67.603         7.25904 
        1.96349         67.2574         7.20404 
        1.96964         66.9152         7.14946 
        1.97578         66.5702         7.09542 
        1.98192          66.527         7.04205 
        1.98805         65.8539         6.98922 
        1.99419         65.6682         6.93694 
        2.00033         65.4766         6.88516 
        2.00647         65.0001         6.83393 
         2.0126         64.7132         6.78331 
        2.01874         64.2274         6.73313 
        2.02488         64.1192         6.68341 
        2.03101         63.7257         6.63429 
        2.03714         63.3033         6.58571 
        2.04328         63.0878         6.53756 
        2.04941         62.8133         6.48993 
        2.05554         62.5995         6.44282 
        2.06167         62.3062         6.39611 
        2.06781         61.8162         6.34986 
        2.07396         61.5386           6.304 
        2.08009         61.3336         6.25868 
        2.08622         60.9956         6.21385 
        2.09237          60.763         6.16938 
        2.09851         60.5273         6.12534 
        2.10464         60.1293          6.0818 
        2.11077         59.8545         6.03873 
        2.11691         59.5266         5.99599 
        2.12305         59.2712         5.95366 
        2.12918         59.0051         5.91185 
        2.13531         58.6199         5.87043 
        2.14145         58.3699         5.82931 
         2.1476         58.0356         5.78854 
        2.15372         57.8747         5.74837 
        2.15985           57.53         5.70854 
        2.16599         57.2563         5.66897 
        2.17213         57.0425         5.62982 
        2.17827         56.6974         5.59105 
         2.1844         56.4259         5.55268 
        2.19054         56.2208         5.51466 
        2.19666         55.9243         5.47705 
         2.2028         55.7899         5.43976 
        2.20893         55.3864          5.4028 
        2.21508         55.1863         5.36614 
        2.22122         54.8995         5.32981 
        2.22736         54.6696         5.29389 
        2.23349         54.3852         5.25832 
        2.23962         54.0541         5.22305 
        2.24577         53.7375         5.18808 
         2.2519         53.6104         5.15347 
        2.25802         53.3665         5.11924 
        2.26417         53.0172         5.08523 
        2.27031         52.7915         5.05149 
        2.27644         52.5581         5.01816 
        2.28257         52.3373         4.98513 
        2.28872         52.0015         4.95234 
        2.29486          51.744         4.91985 
        2.30099         51.4912         4.88772 
        2.30712         51.3379         4.85586 
        2.31326         51.0265         4.82423 
         2.3194         50.7906          4.7929 
        2.32553         50.5692         4.76191 
        2.33166         50.2144          4.7312 
         2.3378         50.0109         4.70072 
        2.34394         49.7669          4.6705 
        2.35007         49.5886         4.64059 
        2.35619         49.3896         4.61098 
        2.36233         49.0911         4.58156 
        2.36848         48.9003         4.55234 
        2.37462         48.6073         4.52343 
        2.38075         48.4645         4.49481 
        2.38689         48.2291          4.4664 
        2.39303         47.9654         4.43825 
        2.39916         47.7471         4.41037 
        2.40529         47.5853         4.38274 
        2.41143         47.3616         4.35532 
        2.41757         47.1012         4.32812 
         2.4237         46.8843         4.30121 
        2.42983          46.643         4.27453 
        2.43598         46.3982           4.248 
        2.44211          46.191         4.22175 
        2.44823         46.0218         4.19577 
        2.45437         45.7779         4.16994 
        2.46052         45.5913         4.14431 
        2.46665         45.3973         4.11894 
        2.47279         45.1051          4.0938 
        2.47892         44.9718         4.06884 
        2.48507         44.6759         4.04407 
         2.4912         44.5448         4.01956 
