# k  (h/Mpc)    P(k)  (Mpc/h)^3    P_linear(k)  (Mpc/h)^3
     0.00783031         2792.93         2831.55 
       0.013688         3354.46         3357.01 
       0.019231         3257.67         3256.95 
      0.0249154         2843.63         2866.49 
      0.0312784         2335.06         2337.65 
      0.0375637         1887.64         1879.41 
      0.0433917         1565.49         1567.59 
      0.0492413         1366.12         1362.41 
      0.0555754         1222.48         1230.38 
      0.0619321         1156.81          1148.7 
       0.067871         1076.56         1082.51 
      0.0738098         997.651         1003.64 
      0.0800417         891.792         900.256 
      0.0862327         782.938         784.934 
      0.0921407          680.63         677.897 
      0.0982031         585.388         584.612 
       0.104506         521.502         512.991 
       0.110769         474.782          467.35 
       0.116806         445.612         441.934 
       0.122832         431.805         426.716 
       0.129052          413.36         412.945 
       0.135211         394.822         394.568 
       0.141259         372.404         369.219 
       0.147318          343.17         337.858 
       0.153489         308.251         303.821 
       0.159709         278.589         272.094 
       0.165845         256.203         246.686 
       0.171974         235.739         228.405 
       0.178125          224.45         216.509 
       0.184229         216.872         209.114 
        0.19034         207.438         203.579 
       0.196428         203.446         197.595 
       0.202534         197.176         189.614 
       0.208729         185.518         179.135 
       0.214876         172.844         167.102 
       0.220989         162.737         154.844 
       0.227147         150.606         143.543 
        0.23329          141.69         134.214 
       0.239377         135.739         127.172 
       0.245482         128.282         122.047 
       0.251667         126.011         118.164 
       0.257832         122.314         114.805 
       0.263955         118.383         111.284 
       0.270079         113.983          107.16 
        0.27624         110.526         102.357 
       0.282372         105.534         97.1623 
        0.28843         100.014         92.0129 
       0.294538         95.1502         87.1966 
       0.300721         92.1814         82.9685 
        0.30691         87.7518         79.4857 
       0.313033         85.0228         76.6781 
       0.319153         81.3194         74.3158 
       0.325316           80.19         72.1298 
        0.33145         77.3185         69.9449 
       0.337538         75.4211         67.6344 
       0.343633         72.5906         65.1697 
       0.349808         70.2373         62.5774 
       0.355968         67.9934         60.0167 
       0.362074         65.5181         57.6224 
       0.368217         63.3481         55.4341 
       0.374374         61.3038         53.5023 
       0.380519         59.7654          51.801 
       0.386598         58.1608          50.289 
       0.392688         56.9709         48.8706 
        0.39888          55.317         47.4555 
       0.405048         53.9389         46.0388 
       0.411186         52.5778         44.6051 
       0.417313         50.8632         43.1665 
       0.423458         49.4726         41.7522 
       0.429607         48.0954         40.3963 
       0.435692          46.485         39.1373 
       0.441815         45.6948         37.9695 
       0.447964         44.8631         36.8866 
       0.454126         43.0145         35.8743 
       0.460267         42.3478         34.9189 
       0.466387         41.1573         33.9983 
        0.47254         40.4729          33.086 
       0.478662         39.7852         32.1889 
       0.484765         38.5227         31.3092 
       0.490885         37.6496         30.4466 
       0.497035         37.1499         29.6082 
       0.503198          36.104         28.8063 
       0.509342         35.1593         28.0501 
       0.515458         34.4428         27.3366 
       0.521598         33.8408         26.6544 
       0.527764         33.1342         25.9984 
       0.533884         32.5862         25.3704 
           0.54         31.8259         24.7604 
       0.546137         31.3499         24.1609 
       0.552299         30.8209          23.572 
       0.558452         29.8763         23.0001 
       0.564573         29.3958         22.4493 
       0.570708         28.9183         21.9168 
       0.576825         28.2445         21.4055 
       0.582926         27.6627         20.9147 
       0.589034          26.978         20.4421 
       0.595184         26.6314         19.9838 
       0.601379         26.1128         19.5376 
       0.607522         25.6112         19.1081 
       0.613639         25.3622         18.6913 
       0.619772         24.7051         18.2837 
       0.625918         24.5492         17.8862 
       0.632068         24.1547         17.4999 
       0.638161         23.6411          17.129 
         0.6443         23.1803         16.7672 
       0.650464         22.7607         16.4154 
       0.656582         22.6082         16.0767 
       0.662703         22.1696          15.748 
       0.668861          21.749         15.4268 
       0.675024         21.3708         15.1144 
       0.681124         20.9977         14.8139 
       0.687237         20.6454          14.521 
       0.693381         20.4652         14.2345 
       0.699536         19.9328          13.955 
       0.705665         19.8735         13.6842 
       0.711789         19.4154         13.4207 
       0.717957         19.1442         13.1624 
        0.72409          18.869         12.9124 
       0.730186         18.5964         12.6706 
       0.736317          18.394         12.4339 
       0.742472         18.0747         12.2026 
       0.748622         17.8853         11.9776 
        0.75476         17.5674         11.7588 
       0.760888          17.298         11.5459 
       0.767043         17.0826         11.3374 
       0.773185         16.7846         11.1345 
       0.779291         16.6966         10.9378 
       0.785407         16.4992         10.7455 
       0.791564         16.2034         10.5566 
       0.797719         15.8303         10.3724 
       0.803834         15.8123         10.1938 
       0.809972         15.6546         10.0188 
       0.816124           15.31         9.84755 
       0.822261         15.1374         9.68085 
       0.828378         14.9866         9.51856 
       0.834502         14.8484         9.35989 
       0.840667         14.6285         9.20386 
       0.846816         14.3605         9.05187 
       0.852925         14.2233          8.9043 
       0.859047         14.0675         8.75975 
       0.865192         13.9309         8.61796 
       0.871341         13.8157         8.47924 
       0.877463         13.5676         8.34422 
       0.883569         13.3986         8.21252 
       0.889708         13.1925           8.083 
       0.895864         13.0722         7.95597 
       0.902008         12.9769         7.83196 
       0.908149         12.8345         7.71068 
       0.914301         12.7435         7.59179 
       0.920448          12.509         7.47554 
       0.926574         12.3876         7.36215 
       0.932687         12.2461         7.25136 
       0.938823         12.0874         7.14248 
       0.944975         11.9569          7.0356 
       0.951105         11.8358         6.93131 
       0.957225         11.7351         6.82932 
       0.963368         11.6326         6.72906 
       0.969511         11.5141         6.63083 
       0.975621          11.399          6.5351 
       0.981748         11.2416         6.44104 
       0.987916         11.1777         6.34825 
        0.99406         11.0144         6.25765 
        1.00019         10.8587         6.16901 
        1.00632         10.8255         6.08219 
        1.01246         10.7209         5.99693 
        1.01859         10.5424         5.91345 
        1.02471         10.5018         5.83168 
        1.03085         10.3898         5.75118 
        1.03698         10.2284         5.67239 
        1.04314         10.1732         5.59475 
        1.04929         10.0463         5.51875 
        1.05541          9.9343         5.44449 
        1.06154         9.87076         5.37141 
        1.06769          9.8215         5.29958 
        1.07382         9.67886         5.22931 
        1.07993         9.60121         5.16048 
        1.08607         9.51397         5.09261 
        1.09222         9.43951         5.02591 
        1.09836         9.32525         4.96049 
        1.10449         9.25444         4.89631 
        1.11063         9.14734          4.8332 
        1.11677         9.10993         4.77124 
         1.1229         9.04983         4.71048 
        1.12903         8.92597         4.65072 
        1.13518         8.81883         4.59196 
        1.14131          8.7807         4.53425 
        1.14745         8.69561         4.47758 
        1.15359         8.63657         4.42186 
        1.15973          8.5492         4.36708 
        1.16584         8.43014         4.31348 
        1.17197          8.3869          4.2607 
        1.17811         8.33911         4.20866 
        1.18424         8.25991         4.15764 
        1.19038         8.22565         4.10732 
        1.19652         8.12989         4.05786 
        1.20267         8.05448         4.00922 
        1.20881         8.02494         3.96139 
        1.21495          7.9597         3.91442 
        1.22108         7.86125         3.86823 
         1.2272         7.80566          3.8229 
        1.23334         7.73342         3.77819 
        1.23949         7.66363          3.7341 
        1.24562         7.62933         3.69083 
        1.25174         7.57163         3.64833 
        1.25789          7.5107         3.60636 
        1.26402         7.47487         3.56514 
        1.27014         7.40726         3.52467 
        1.27628          7.3185          3.4847 
        1.28244         7.25835         3.44529 
        1.28858         7.25516         3.40654 
        1.29471         7.16793         3.36847 
        1.30084          7.0977         3.33103 
        1.30697         7.08431          3.2941 
        1.31312         6.98395         3.25768 
        1.31925          6.9317         3.22193 
        1.32537         6.89816         3.18676 
        1.33151         6.86281         3.15198 
        1.33765         6.79844         3.11775 
        1.34378         6.74921          3.0841 
        1.34992          6.6965         3.05092 
        1.35606         6.65408         3.01817 
         1.3622         6.61626         2.98595 
        1.36833         6.54849         2.95428 
        1.37445         6.51631         2.92309 
        1.38059         6.48725         2.89226 
        1.38675         6.42512          2.8618 
        1.39288         6.40172          2.8319 
        1.39901         6.32657         2.80245 
        1.40515          6.2998         2.77334 
         1.4113         6.25414         2.74467 
        1.41742          6.2079         2.71651 
        1.42355         6.15587          2.6887 
         1.4297         6.13048         2.66119 
        1.43585         6.09774         2.63408 
        1.44198         6.06605         2.60745 
        1.44809         6.01514         2.58125 
        1.45423         5.96897         2.55531 
        1.46036         5.92286         2.52977 
        1.46649         5.89797         2.50458 
        1.47263         5.84245         2.47971 
        1.47877         5.80644         2.45519 
        1.48491          5.7784         2.43096 
        1.49104         5.74032         2.40712 
        1.49718         5.70745         2.38358 
        1.50333          5.6742         2.36032 
        1.50947         5.62547         2.33742 
         1.5156          5.5995         2.31485 
        1.52172         5.57182         2.29259 
        1.52787         5.53082         2.27058 
          1.534         5.48828         2.24888 
        1.54013         5.46225         2.22749 
        1.54627         5.41826         2.20635 
        1.55241         5.38919         2.18547 
        1.55855         5.36783          2.1649 
        1.56467         5.32463         2.14465 
         1.5708         5.30678          2.1246 
        1.57695         5.26256         2.10477 
        1.58308         5.21877         2.08525 
        1.58922         5.20852         2.06597 
        1.59535          5.1836         2.04693 
         1.6015         5.13436         2.02811 
        1.60764         5.09833         2.00953 
        1.61376         5.08474         1.99124 
        1.61989         5.05219         1.97317 
        1.62604         5.02253         1.95527 
        1.63218         5.00963         1.93761 
        1.63831         4.96817         1.92021 
        1.64444         4.94458         1.90302 
        1.65059         4.89252           1.886 
        1.65673         4.89806         1.86921 
        1.66285         4.84538         1.85267 
        1.66898         4.82118         1.83632 
        1.67512         4.80108         1.82014 
        1.68127         4.77009         1.80415 
         1.6874         4.75149         1.78838 
        1.69353          4.7088         1.77281 
        1.69967         4.69817         1.75739 
        1.70581         4.67555         1.74215 
        1.71193         4.63867         1.72716 
        1.71806          4.6226         1.71232 
        1.72421         4.59294         1.69762 
        1.73035         4.57612         1.68311 
        1.73649         4.54928         1.66877 
        1.74262         4.51984         1.65461 
        1.74876         4.50632         1.64061 
        1.75489         4.47935          1.6268 
        1.76101         4.44697         1.61315 
        1.76715         4.43213         1.59964 
        1.77329         4.40337         1.58627 
        1.77943         4.37342         1.57305 
        1.78557         4.36321            1.56 
        1.79171         4.33909          1.5471 
        1.79785         4.31332         1.53433 
        1.80399         4.29122         1.52172 
        1.81012         4.26953         1.50927 
        1.81625         4.24987         1.49696 
        1.82239         4.23164         1.48477 
        1.82853         4.20224         1.47272 
        1.83466         4.18418         1.46082 
        1.84078         4.16748         1.44906 
        1.84692         4.15623         1.43741 
        1.85306         4.12293         1.42588 
         1.8592         4.09752         1.41449 
        1.86533         4.08198         1.40324 
        1.87147         4.06348         1.39209 
        1.87761         4.04346         1.38106 
        1.88375         4.01746         1.37016 
        1.88988         4.00675         1.35939 
        1.89601         3.98475         1.34874 
        1.90215         3.96332         1.33819 
        1.90829         3.94242         1.32775 
        1.91442         3.92526         1.31743 
        1.92056         3.91125         1.30723 
         1.9267         3.88442         1.29712 
        1.93284         3.86882         1.28712 
        1.93897         3.84785         1.27724 
        1.94509         3.83861         1.26749 
        1.95123         3.81748         1.25781 
        1.95737         3.79116         1.24823 
        1.96349         3.78266         1.23877 
        1.96964         3.76471         1.22938 
        1.97578         3.73884         1.22009 
        1.98192         3.73161         1.21091 
        1.98805         3.71269         1.20183 
        1.99419         3.69084         1.19284 
        2.00033          3.6835         1.18394 
        2.00647         3.65985         1.17513 
         2.0126         3.65026         1.16642 
        2.01874         3.62614         1.15779 
        2.02488         3.61617         1.14924 
        2.03101         3.59172          1.1408 
        2.03714          3.5723         1.13244 
        2.04328         3.56069         1.12417 
        2.04941         3.53971         1.11598 
        2.05554         3.52983         1.10787 
        2.06167         3.51195         1.09984 
        2.06781         3.49991         1.09189 
        2.07396         3.49027           1.084 
        2.08009         3.47132         1.07621 
        2.08622         3.45292          1.0685 
        2.09237         3.43479         1.06086 
        2.09851         3.42946         1.05328 
        2.10464          3.4139         1.04579 
        2.11077         3.39059         1.03839 
        2.11691         3.37586         1.03104 
        2.12305         3.36788         1.02376 
        2.12918         3.35794         1.01657 
        2.13531         3.34195         1.00945 
        2.14145         3.32592         1.00238 
         2.1476           3.309        0.995369 
        2.15372         3.29334         0.98846 
        2.15985         3.29399        0.981611 
        2.16599         3.26575        0.974807 
        2.17213         3.25396        0.968076 
        2.17827         3.24703        0.961409 
         2.1844         3.23073        0.954811 
        2.19054         3.21256        0.948274 
        2.19666         3.20047        0.941806 
         2.2028         3.18762        0.935394 
        2.20893         3.17604        0.929038 
        2.21508         3.16229        0.922735 
        2.22122         3.14633        0.916488 
        2.22736         3.13701        0.910312 
        2.23349         3.12841        0.904194 
        2.23962         3.11301         0.89813 
        2.24577         3.10232        0.892116 
         2.2519         3.09486        0.886166 
        2.25802         3.07659         0.88028 
        2.26417         3.06762        0.874431 
        2.27031         3.05249         0.86863 
        2.27644         3.03613        0.862898 
        2.28257         3.02136        0.857219 
        2.28872         3.02117         0.85158 
        2.29486         3.00453        0.845993 
        2.30099         2.98951        0.840468 
        2.30712         2.97897        0.834989 
        2.31326         2.96372        0.829551 
         2.3194         2.95571        0.824164 
        2.32553         2.94924        0.818834 
        2.33166          2.9379        0.813554 
         2.3378         2.92331        0.808313 
        2.34394         2.91318        0.803117 
        2.35007         2.89985        0.797974 
        2.35619         2.89272        0.792883 
        2.36233         2.87896        0.787824 
        2.36848         2.86617        0.782798 
        2.37462         2.86294        0.777828 
        2.38075         2.84724        0.772905 
        2.38689         2.84234        0.768021 
        2.39303         2.82465        0.763181 
        2.39916         2.81589        0.758387 
        2.40529         2.80596        0.753634 
        2.41143         2.79538         0.74892 
        2.41757         2.79043        0.744243 
         2.4237         2.77852        0.739615 
        2.42983         2.76123        0.735027 
        2.43598         2.75306        0.730466 
        2.44211         2.74156        0.725951 
        2.44823         2.73449        0.721485 
        2.45437         2.72356        0.717044 
        2.46052         2.71733        0.712637 
        2.46665          2.7073        0.708274 
        2.47279         2.69299         0.70395 
        2.47892          2.6853        0.699659 
        2.48507         2.67725          0.6954 
         2.4912         2.66322        0.691184 
