# k  (h/Mpc)    P(k)  (Mpc/h)^3    P_linear(k)  (Mpc/h)^3
     0.00783031          4344.4         4361.86 
       0.013688         5230.23         5170.28 
       0.019231         5072.56         5015.65 
      0.0249154         4415.94         4414.06 
      0.0312784         3628.43         3599.54 
      0.0375637         2936.26         2893.84 
      0.0433917         2430.93         2413.67 
      0.0492413         2123.53         2097.72 
      0.0555754         1895.87         1894.41 
      0.0619321         1800.03         1768.63 
       0.067871         1670.15         1666.71 
      0.0738098         1547.73         1545.26 
      0.0800417         1382.22         1386.08 
      0.0862327         1215.32         1208.52 
      0.0921407         1059.29         1043.72 
      0.0982031         910.805         900.092 
       0.104506         814.719         789.821 
       0.110769         741.829         719.549 
       0.116806         695.927         680.416 
       0.122832         674.176         656.986 
       0.129052         643.396         635.782 
       0.135211         614.679         607.488 
       0.141259         580.987         568.459 
       0.147318         536.188         520.175 
       0.153489         481.759         467.769 
       0.159709         437.241         418.923 
       0.165845         403.498         379.803 
       0.171974         371.905         351.658 
       0.178125         354.195         333.341 
       0.184229         342.021         321.956 
        0.19034         325.658         313.434 
       0.196428         320.191         304.221 
       0.202534          310.58         291.932 
       0.208729         292.362         275.799 
       0.214876          272.78         257.273 
       0.220989         257.735         238.401 
       0.227147         239.313         221.002 
        0.23329         225.725         206.637 
       0.239377         217.077         195.797 
       0.245482         204.123         187.905 
       0.251667         201.116         181.927 
       0.257832         195.256         176.755 
       0.263955         188.809         171.335 
       0.270079         181.682         164.985 
        0.27624         176.913          157.59 
       0.282372         169.186         149.592 
        0.28843         160.871         141.664 
       0.294538         153.059         134.249 
       0.300721         149.124         127.739 
        0.30691         141.911         122.377 
       0.313033         137.823         118.055 
       0.319153         131.844         114.418 
       0.325316         129.694         111.052 
        0.33145         125.003         107.688 
       0.337538         122.423         104.131 
       0.343633         117.936         100.336 
       0.349808          114.08         96.3449 
       0.355968         110.963         92.4024 
       0.362074         107.188         88.7162 
       0.368217         103.777         85.3471 
       0.374374         100.529         82.3728 
       0.380519         98.1894         79.7535 
       0.386598         95.5316         77.4256 
       0.392688         93.7222         75.2417 
        0.39888         91.1442          73.063 
       0.405048         88.8605         70.8818 
       0.411186         86.7274         68.6745 
       0.417313         84.1826         66.4596 
       0.423458         82.0335         64.2822 
       0.429607         79.8794         62.1946 
       0.435692         77.1347         60.2562 
       0.441815         76.2021         58.4582 
       0.447964         74.8159         56.7911 
       0.454126         71.5227         55.2325 
       0.460267         70.6006         53.7615 
       0.466387         68.9814         52.3441 
        0.47254         67.7349         50.9396 
       0.478662         66.7533         49.5583 
       0.484765         64.6792         48.2039 
       0.490885         63.3549         46.8759 
       0.497035          62.528         45.5851 
       0.503198          60.744         44.3504 
       0.509342         59.2644         43.1862 
       0.515458         58.2186         42.0877 
       0.521598         57.2836         41.0373 
       0.527764         56.2506         40.0274 
       0.533884         55.3454         39.0606 
           0.54         54.0775         38.1213 
       0.546137         53.4235         37.1983 
       0.552299         52.5707         36.2918 
       0.558452         51.0741         35.4112 
       0.564573         50.1747         34.5631 
       0.570708         49.4744         33.7433 
       0.576825         48.5452         32.9561 
       0.582926         47.4847         32.2004 
       0.589034         46.4475         31.4729 
       0.595184         45.8526         30.7673 
       0.601379         45.0994         30.0804 
       0.607522         44.0744         29.4191 
       0.613639           43.83         28.7772 
       0.619772         42.7651         28.1497 
       0.625918         42.4072         27.5377 
       0.632068         41.7963         26.9431 
       0.638161          41.081          26.372 
         0.6443         40.3795          25.815 
       0.650464         39.7313         25.2732 
       0.656582         39.3642         24.7519 
       0.662703          38.572         24.2457 
       0.668861         37.9809         23.7512 
       0.675024         37.4263         23.2703 
       0.681124          36.774         22.8077 
       0.687237         36.1333         22.3566 
       0.693381         35.8591         21.9155 
       0.699536         35.0717         21.4853 
       0.705665         35.1482         21.0683 
       0.711789         34.2172         20.6627 
       0.717957         33.8159          20.265 
        0.72409         33.3744         19.8801 
       0.730186         32.8471         19.5078 
       0.736317         32.6082         19.1434 
       0.742472         32.0488         18.7873 
       0.748622          31.746         18.4408 
        0.75476         31.2915         18.1039 
       0.760888         30.7834         17.7761 
       0.767043         30.4195         17.4552 
       0.773185         29.9757         17.1428 
       0.779291         29.8465         16.8399 
       0.785407         29.5432         16.5438 
       0.791564         29.0317          16.253 
       0.797719         28.4114         15.9694 
       0.803834         28.3684         15.6944 
       0.809972         27.9947          15.425 
       0.816124         27.5003         15.1614 
       0.822261          27.255         14.9047 
       0.828378         27.0714         14.6549 
       0.834502         26.7512         14.4106 
       0.840667         26.4387         14.1704 
       0.846816         25.9878         13.9363 
       0.852925         25.7668         13.7091 
       0.859047          25.462         13.4866 
       0.865192         25.2063         13.2683 
       0.871341         25.0927         13.0547 
       0.877463         24.5915         12.8468 
       0.883569         24.3558         12.6441 
       0.889708         24.0979         12.4447 
       0.895864         23.8609         12.2491 
       0.902008          23.663         12.0582 
       0.908149         23.4204         11.8714 
       0.914301         23.3415         11.6884 
       0.920448         22.9327         11.5094 
       0.926574         22.7255         11.3348 
       0.932687         22.4852         11.1643 
       0.938823         22.1782         10.9966 
       0.944975         22.0382         10.8321 
       0.951105         21.8143         10.6715 
       0.957225         21.5558         10.5145 
       0.963368         21.4971         10.3601 
       0.969511         21.2637         10.2089 
       0.975621         21.0911         10.0615 
       0.981748          20.772         9.91668 
       0.987916         20.6676         9.77382 
        0.99406         20.4473         9.63433 
        1.00019         20.2014         9.49787 
        1.00632         20.0794          9.3642 
        1.01246         19.9755         9.23292 
        1.01859         19.6377          9.1044 
        1.02471         19.6038          8.9785 
        1.03085         19.4174         8.85457 
        1.03698         19.1018         8.73326 
        1.04314         18.9983         8.61372 
        1.04929         18.8068         8.49672 
        1.05541         18.6132         8.38238 
        1.06154         18.5262         8.26988 
        1.06769         18.4107         8.15928 
        1.07382          18.202         8.05109 
        1.07993         18.1033         7.94512 
        1.08607         17.8716         7.84063 
        1.09222         17.7918         7.73793 
        1.09836         17.5865         7.63721 
        1.10449         17.4715          7.5384 
        1.11063         17.2516         7.44124 
        1.11677         17.2029         7.34584 
         1.1229         17.1046         7.25229 
        1.12903         16.8831         7.16029 
        1.13518         16.7287         7.06982 
        1.14131         16.6882         6.98098 
        1.14745         16.5256         6.89371 
        1.15359         16.4506         6.80794 
        1.15973         16.2626         6.72359 
        1.16584         16.0684         6.64107 
        1.17197         16.0723         6.55981 
        1.17811         15.8665         6.47968 
        1.18424         15.7443         6.40113 
        1.19038         15.6962         6.32366 
        1.19652         15.5741         6.24751 
        1.20267         15.4496         6.17263 
        1.20881         15.3296         6.09899 
        1.21495         15.2448         6.02668 
        1.22108         15.1041         5.95556 
         1.2272         14.9656         5.88576 
        1.23334         14.9026         5.81693 
        1.23949         14.7587         5.74905 
        1.24562         14.6915         5.68244 
        1.25174         14.6004         5.61699 
        1.25789         14.4748         5.55239 
        1.26402         14.4221         5.48892 
        1.27014         14.2621         5.42661 
        1.27628         14.1475         5.36508 
        1.28244         14.0919         5.30439 
        1.28858         14.0346         5.24473 
        1.29471          13.906         5.18613 
        1.30084         13.7927         5.12848 
        1.30697         13.7153         5.07162 
        1.31312         13.5748         5.01555 
        1.31925         13.4912         4.96051 
        1.32537         13.4555         4.90635 
        1.33151         13.3412         4.85282 
        1.33765          13.277         4.80011 
        1.34378         13.1894          4.7483 
        1.34992         13.0402         4.69723 
        1.35606         13.0248         4.64679 
         1.3622         12.9417         4.59719 
        1.36833         12.8174         4.54844 
        1.37445         12.7946         4.50042 
        1.38059         12.6846         4.45295 
        1.38675         12.5417         4.40605 
        1.39288         12.5334         4.36002 
        1.39901         12.4305         4.31467 
        1.40515         12.3805         4.26986 
         1.4113         12.2833         4.22571 
        1.41742          12.186         4.18236 
        1.42355         12.1408         4.13954 
         1.4297         12.0941         4.09719 
        1.43585         12.0267         4.05545 
        1.44198         11.9333         4.01445 
        1.44809         11.8603         3.97411 
        1.45423         11.7923         3.93417 
        1.46036         11.7267         3.89485 
        1.46649         11.6759         3.85606 
        1.47263         11.5703         3.81778 
        1.47877         11.5114         3.78003 
        1.48491         11.4808         3.74273 
        1.49104          11.418         3.70602 
        1.49718         11.3239         3.66978 
        1.50333         11.2816         3.63396 
        1.50947         11.2097          3.5987 
         1.5156          11.128         3.56397 
        1.52172         11.0846         3.52969 
        1.52787           11.03          3.4958 
          1.534          10.944          3.4624 
        1.54013         10.8668         3.42947 
        1.54627         10.8119         3.39691 
        1.55241         10.7644         3.36477 
        1.55855         10.6995         3.33309 
        1.56467         10.6398         3.30191 
         1.5708         10.6324         3.27104 
        1.57695         10.5359         3.24053 
        1.58308          10.495         3.21047 
        1.58922         10.4446         3.18078 
        1.59535         10.3774         3.15147 
         1.6015          10.308         3.12249 
        1.60764         10.2623         3.09389 
        1.61376         10.2181         3.06573 
        1.61989         10.1407          3.0379 
        1.62604         10.1328         3.01035 
        1.63218          10.062         2.98316 
        1.63831         10.0247         2.95638 
        1.64444          9.9331         2.92991 
        1.65059         9.88578          2.9037 
        1.65673           9.875         2.87785 
        1.66285         9.77466         2.85238 
        1.66898         9.76862         2.82722 
        1.67512         9.71541         2.80231 
        1.68127         9.66684         2.77768 
         1.6874         9.60375          2.7534 
        1.69353         9.53665         2.72943 
        1.69967         9.51412         2.70568 
        1.70581         9.48124         2.68223 
        1.71193         9.41287         2.65915 
        1.71806         9.37457          2.6363 
        1.72421         9.32128         2.61366 
        1.73035         9.27622         2.59132 
        1.73649         9.24444         2.56925 
        1.74262         9.21815         2.54745 
        1.74876         9.17247         2.52589 
        1.75489         9.11977         2.50463 
        1.76101         9.05063         2.48362 
        1.76715         9.04447         2.46282 
        1.77329         8.96557         2.44224 
        1.77943         8.93017         2.42188 
        1.78557          8.9122         2.40179 
        1.79171         8.87556         2.38192 
        1.79785          8.8023         2.36227 
        1.80399         8.77818         2.34285 
        1.81012         8.75585         2.32368 
        1.81625         8.69452         2.30473 
        1.82239          8.6582         2.28596 
        1.82853         8.60309         2.26741 
        1.83466         8.56472         2.24909 
        1.84078         8.51783         2.23099 
        1.84692         8.50406         2.21305 
        1.85306         8.45402          2.1953 
         1.8592         8.41698         2.17776 
        1.86533         8.39793         2.16043 
        1.87147         8.34985         2.14327 
        1.87761         8.32429         2.12629 
        1.88375          8.2471         2.10951 
        1.88988         8.24768         2.09293 
        1.89601         8.20872         2.07652 
        1.90215         8.16393         2.06028 
        1.90829          8.1279         2.04422 
        1.91442         8.09313         2.02832 
        1.92056         8.06349         2.01262 
         1.9267         8.02758         1.99706 
        1.93284         7.98036         1.98166 
        1.93897         7.94588         1.96645 
        1.94509         7.91178         1.95143 
        1.95123         7.89327         1.93653 
        1.95737         7.86233         1.92178 
        1.96349         7.82679         1.90722 
        1.96964         7.77572         1.89277 
        1.97578         7.74822         1.87846 
        1.98192          7.7179         1.86433 
        1.98805         7.69584         1.85035 
        1.99419         7.65066          1.8365 
        2.00033          7.6269          1.8228 
        2.00647         7.59378         1.80923 
         2.0126         7.56099         1.79583 
        2.01874         7.52563         1.78255 
        2.02488         7.48256         1.76938 
        2.03101         7.47661         1.75638 
        2.03714         7.43651         1.74352 
        2.04328         7.41116         1.73077 
        2.04941         7.35798         1.71816 
        2.05554         7.35429         1.70569 
        2.06167         7.30881         1.69333 
        2.06781         7.29728         1.68108 
        2.07396         7.27354         1.66894 
        2.08009         7.24289         1.65694 
        2.08622         7.18131         1.64507 
        2.09237         7.18609          1.6333 
        2.09851         7.15212         1.62164 
        2.10464         7.11309         1.61011 
        2.11077         7.07468         1.59871 
        2.11691         7.05191          1.5874 
        2.12305         7.03548         1.57619 
        2.12918         7.00339         1.56512 
        2.13531         6.98056         1.55415 
        2.14145         6.94957         1.54327 
         2.1476         6.93442         1.53248 
        2.15372          6.9032         1.52184 
        2.15985         6.87072         1.51129 
        2.16599         6.85314         1.50082 
        2.17213          6.8212         1.49046 
        2.17827         6.80132         1.48019 
         2.1844         6.76915         1.47003 
        2.19054         6.73227         1.45997 
        2.19666         6.72266         1.45001 
         2.2028         6.69236         1.44014 
        2.20893         6.67722         1.43035 
        2.21508         6.63885         1.42065 
        2.22122         6.61007         1.41103 
        2.22736         6.59646         1.40152 
        2.23349         6.55597          1.3921 
        2.23962         6.54949         1.38277 
        2.24577         6.51688         1.37351 
         2.2519         6.50176         1.36435 
        2.25802         6.46947         1.35528 
        2.26417           6.451         1.34628 
        2.27031         6.40992         1.33735 
        2.27644         6.39642         1.32852 
        2.28257         6.37372         1.31978 
        2.28872         6.35262          1.3111 
        2.29486          6.3285          1.3025 
        2.30099         6.32278         1.29399 
        2.30712         6.28643         1.28555 
        2.31326         6.25943         1.27718 
         2.3194         6.23712         1.26889 
        2.32553          6.2187         1.26068 
        2.33166         6.18988         1.25255 
         2.3378         6.17216         1.24448 
        2.34394         6.15236         1.23648 
        2.35007         6.12561         1.22857 
        2.35619         6.09908         1.22073 
        2.36233         6.07836         1.21294 
        2.36848         6.06946          1.2052 
        2.37462         6.04536         1.19755 
        2.38075         6.01703         1.18997 
        2.38689         5.99667         1.18245 
        2.39303         5.97294           1.175 
        2.39916         5.96017         1.16762 
        2.40529         5.93812          1.1603 
        2.41143         5.91673         1.15304 
        2.41757         5.90568         1.14584 
         2.4237         5.88079         1.13872 
        2.42983          5.8541         1.13165 
        2.43598         5.84833         1.12463 
        2.44211         5.81652         1.11768 
        2.44823         5.79671          1.1108 
        2.45437         5.78602         1.10396 
        2.46052         5.75452         1.09718 
        2.46665         5.73958         1.09046 
        2.47279         5.71306         1.08381 
        2.47892         5.69902          1.0772 
        2.48507         5.67525         1.07064 
         2.4912         5.66011         1.06415 
