# k  (h/Mpc)    Pcb(k)  (Mpc/h)^3    Pcb_linear(k)  (Mpc/h)^3
     0.00783031         6971.68         7060.81 
       0.013688          8571.9         8532.83 
       0.019231         8436.86         8420.34 
      0.0249154         7485.26         7579.14 
      0.0312784         6381.47         6407.23 
      0.0375637          5415.6         5396.96 
      0.0433917         4676.25         4712.59 
      0.0492413         4241.98         4249.32 
      0.0555754         3843.43         3907.94 
      0.0619321         3641.33         3623.12 
       0.067871          3294.2         3338.32 
      0.0738098         2975.89         3014.19 
      0.0800417         2606.22         2653.36 
      0.0862327         2301.12         2316.95 
      0.0921407         2061.47         2050.72 
      0.0982031         1846.96         1847.76 
       0.104506         1739.28         1705.24 
       0.110769         1633.93         1609.91 
       0.116806         1544.29         1535.06 
       0.122832         1472.34         1455.52 
       0.129052         1356.17         1357.42 
       0.135211         1253.78          1246.3 
       0.141259         1164.18         1134.45 
       0.147318         1073.47         1032.18 
       0.153489         980.624         946.971 
       0.159709         924.895          882.95 
       0.165845         889.785         837.685 
       0.171974         844.173         803.045 
       0.178125         809.967         771.072 
       0.184229         776.663         736.387 
        0.19034         721.714         696.574 
       0.196428         696.383         653.232 
       0.202534         664.121         609.589 
       0.208729         622.756         568.984 
       0.214876         586.426          534.88 
       0.220989         566.387         507.642 
       0.227147         538.169         485.771 
        0.23329         518.346         467.317 
       0.239377         506.036         450.056 
       0.245482         473.473          432.14 
       0.251667         465.504         412.769 
       0.257832         446.942         392.632 
       0.263955         428.523         372.858 
       0.270079          410.76         354.385 
        0.27624         402.629         337.862 
       0.282372         386.711         323.671 
        0.28843         374.098         311.515 
       0.294538         357.572          300.53 
       0.300721         353.861         290.005 
        0.30691         337.491         279.563 
       0.313033         329.121         269.095 
       0.319153         316.128         258.594 
       0.325316         307.812          248.23 
        0.33145         297.102         238.452 
       0.337538         292.183         229.474 
       0.343633         282.181         221.299 
       0.349808         273.072         213.749 
       0.355968         268.853         206.783 
       0.362074          261.98         200.227 
       0.368217         254.698         193.817 
       0.374374         245.779         187.507 
       0.380519          241.79          181.31 
       0.386598         235.383          175.35 
       0.392688         231.978         169.626 
        0.39888          225.78         164.114 
       0.405048         220.275         158.969 
       0.411186         215.478         154.167 
       0.417313         210.974         149.636 
       0.423458         206.495         145.302 
       0.429607         201.741         141.121 
       0.435692         195.608         137.099 
       0.441815         194.033         133.166 
       0.447964         190.468          129.34 
       0.454126         182.397         125.641 
       0.460267         180.366         122.109 
       0.466387         177.958         118.753 
        0.47254         173.957         115.534 
       0.478662         172.567          112.47 
       0.484765         167.373         109.538 
       0.490885         164.784         106.704 
       0.497035         162.558         103.949 
       0.503198         158.145         101.272 
       0.509342         155.765         98.6868 
       0.515458         153.556         96.2006 
       0.521598         151.159         93.7938 
       0.527764          148.91          91.465 
       0.533884         146.597         89.2382 
           0.54         144.051         87.0948 
       0.546137         142.823         85.0205 
       0.552299         140.329         83.0081 
       0.558452         137.801         81.0631 
       0.564573         135.408         79.1864 
       0.570708         133.214         77.3624 
       0.576825         131.508         75.6005 
       0.582926         129.088         73.8991 
       0.589034         127.141         72.2501 
       0.595184          125.63         70.6429 
       0.601379         124.151         69.0753 
       0.607522         121.308         67.5693 
       0.613639         120.887         66.1153 
       0.619772         118.234         64.7014 
       0.625918         116.904         63.3266 
       0.632068         115.628         61.9914 
       0.638161         114.409         60.7067 
         0.6443         112.849         59.4493 
       0.650464         111.584         58.2231 
       0.656582         109.998         57.0407 
       0.662703         108.214         55.8913 
       0.668861         106.861         54.7678 
       0.675024          105.64          53.675 
       0.681124         104.634         52.6238 
       0.687237         102.714         51.5991 
       0.693381         101.484         50.5974 
       0.699536         100.487         49.6209 
       0.705665         100.701         48.6746 
       0.711789         98.0486          47.754 
       0.717957         97.5685         46.8512 
        0.72409          96.125          45.977 
       0.730186         94.5526         45.1306 
       0.736317         94.2923         44.3012 
       0.742472         93.3114         43.4899 
       0.748622         92.3594         42.6999 
        0.75476         91.3934         41.9315 
       0.760888         90.1275         41.1834 
       0.767043         89.3827         40.4509 
       0.773185         88.3501         39.7379 
       0.779291         87.4788         39.0464 
       0.785407         86.7965         38.3705 
       0.791564          85.848         37.7066 
       0.797719         84.5142         37.0588 
       0.803834         84.1647         36.4306 
       0.809972          82.791         35.8149 
       0.816124         82.3612         35.2122 
       0.822261         81.6708         34.6252 
       0.828378         80.9476         34.0535 
       0.834502         80.2275         33.4944 
       0.840667         79.3746         32.9443 
       0.846816          78.398         32.4083 
       0.852925         77.7936         31.8878 
       0.859047         76.7924         31.3777 
       0.865192         76.4062         30.8772 
       0.871341         75.8665         30.3875 
       0.877463         74.6932         29.9107 
       0.883569         74.2518         29.4455 
       0.889708         73.7974         28.9879 
       0.895864          73.167         28.5389 
       0.902008         72.4945         28.1006 
       0.908149         71.9892         27.6718 
       0.914301         71.2742         27.2513 
       0.920448         70.7496         26.8401 
       0.926574         70.0836          26.439 
       0.932687         69.8147         26.0469 
       0.938823         68.6961         25.6615 
       0.944975         68.3493         25.2831 
       0.951105         67.7467         24.9137 
       0.957225         66.9237         24.5525 
       0.963368         66.7996         24.1972 
       0.969511         66.3532         23.8491 
       0.975621         65.9084         23.5097 
       0.981748          65.199         23.1761 
       0.987916         64.6962          22.847 
        0.99406         64.3223         22.5255 
        1.00019         63.6105          22.211 
        1.00632         63.3299         21.9028 
        1.01246         62.7902            21.6 
        1.01859         61.9268         21.3035 
        1.02471         62.0873         21.0129 
        1.03085         61.3947         20.7269 
        1.03698         60.9109         20.4468 
        1.04314         60.3287         20.1707 
        1.04929         60.0033         19.9004 
        1.05541         59.4123         19.6363 
        1.06154         59.3463         19.3763 
        1.06769         58.7941         19.1206 
        1.07382         58.5123         18.8705 
        1.07993         58.1713         18.6255 
        1.08607         57.6216         18.3838 
        1.09222          57.329         18.1462 
        1.09836         56.9096         17.9132 
        1.10449         56.5092         17.6845 
        1.11063         55.9841         17.4596 
        1.11677         55.6629         17.2388 
         1.1229         55.3034         17.0222 
        1.12903         54.5713         16.8091 
        1.13518         54.7871         16.5996 
        1.14131         54.4366         16.3938 
        1.14745         53.6801         16.1916 
        1.15359         53.6254         15.9928 
        1.15973         53.0683         15.7974 
        1.16584          52.767         15.6061 
        1.17197         52.4839         15.4177 
        1.17811         52.2201         15.2318 
        1.18424          51.692         15.0496 
        1.19038         51.4547         14.8699 
        1.19652         51.2829         14.6932 
        1.20267          50.853         14.5194 
        1.20881         50.5542         14.3485 
        1.21495         50.1239         14.1806 
        1.22108         49.8794         14.0155 
         1.2272         49.3857         13.8534 
        1.23334         49.2162         13.6935 
        1.23949         49.1402         13.5358 
        1.24562         48.6689          13.381 
        1.25174         48.4905         13.2288 
        1.25789          48.225         13.0786 
        1.26402         47.8126          12.931 
        1.27014         47.3721         12.7861 
        1.27628         47.2484          12.643 
        1.28244         46.8925         12.5018 
        1.28858          46.731         12.3629 
        1.29471         46.5501         12.2265 
        1.30084         46.2659         12.0923 
        1.30697         45.8917         11.9599 
        1.31312         45.5522         11.8294 
        1.31925          45.464         11.7012 
        1.32537         45.2217          11.575 
        1.33151         44.7962         11.4503 
        1.33765         44.7388         11.3275 
        1.34378          44.427         11.2067 
        1.34992         44.0487         11.0877 
        1.35606         43.8187         10.9701 
         1.3622         43.5709         10.8545 
        1.36833         43.3453         10.7408 
        1.37445         43.2488         10.6288 
        1.38059         42.9664         10.5181 
        1.38675         42.6338         10.4087 
        1.39288         42.5111         10.3013 
        1.39901         42.1927         10.1955 
        1.40515         42.0026          10.091 
         1.4113         41.8586         9.98795 
        1.41742         41.5298         9.88676 
        1.42355         41.2997         9.78679 
         1.4297         41.1049         9.68792 
        1.43585         40.9712         9.59045 
        1.44198         40.6473         9.49471 
        1.44809          40.514         9.40046 
        1.45423         40.3314         9.30715 
        1.46036         40.1433         9.21529 
        1.46649         39.8659         9.12463 
        1.47263         39.6507         9.03514 
        1.47877          39.535         8.94689 
        1.48491         39.4186         8.85968 
        1.49104         39.0992         8.77383 
        1.49718         38.7206         8.68907 
        1.50333         38.6833         8.60529 
        1.50947         38.5309          8.5228 
         1.5156          38.259         8.44152 
        1.52172         38.0748          8.3613 
        1.52787         38.0319         8.28198 
          1.534         37.7464         8.20379 
        1.54013         37.5066         8.12669 
        1.54627         37.4068         8.05045 
        1.55241         37.1335         7.97519 
        1.55855         36.9684           7.901 
        1.56467         36.6498         7.82796 
         1.5708          36.706         7.75565 
        1.57695         36.3733         7.68415 
        1.58308         36.3089         7.61372 
        1.58922         36.2129         7.54412 
        1.59535         35.9571         7.47544 
         1.6015         35.7036         7.40751 
        1.60764         35.5651         7.34047 
        1.61376         35.4051         7.27445 
        1.61989         35.1296          7.2092 
        1.62604         35.0833          7.1446 
        1.63218         34.9212         7.08084 
        1.63831         34.7423         7.01801 
        1.64444         34.5927         6.95592 
        1.65059         34.3309         6.89445 
        1.65673         34.1661         6.83378 
        1.66285         34.0503         6.77402 
        1.66898         33.8638         6.71496 
        1.67512         33.7376         6.65649 
        1.68127         33.5112         6.59867 
         1.6874           33.42         6.54167 
        1.69353         33.2327         6.48537 
        1.69967         33.0769         6.42962 
        1.70581          32.987         6.37454 
        1.71193         32.8198         6.32032 
        1.71806         32.5892         6.26662 
        1.72421         32.4199         6.21344 
        1.73035         32.2689         6.16095 
        1.73649         32.1424         6.10907 
        1.74262         31.9919         6.05784 
        1.74876         31.9832         6.00716 
        1.75489         31.7409         5.95718 
        1.76101          31.567         5.90778 
        1.76715         31.4512         5.85887 
        1.77329         31.3213         5.81046 
        1.77943         31.1906         5.76258 
        1.78557         31.0089         5.71532 
        1.79171          30.875         5.66858 
        1.79785         30.7185         5.62235 
        1.80399          30.617         5.57666 
        1.81012         30.5198         5.53153 
        1.81625          30.319         5.48693 
        1.82239         30.2375         5.44276 
        1.82853         30.0062         5.39909 
        1.83466         29.9233         5.35595 
        1.84078         29.7006         5.31333 
        1.84692         29.6246         5.27111 
        1.85306          29.485          5.2293 
         1.8592         29.3465         5.18801 
        1.86533         29.1909         5.14719 
        1.87147          29.102         5.10676 
        1.87761         29.0415         5.06676 
        1.88375          28.885         5.02723 
        1.88988           28.78         4.98817 
        1.89601         28.5842         4.94951 
        1.90215         28.5274         4.91122 
        1.90829         28.4507         4.87336 
        1.91442         28.2398          4.8359 
        1.92056         28.1838         4.79887 
         1.9267         27.9869         4.76219 
        1.93284          27.832         4.72588 
        1.93897           27.79         4.69001 
        1.94509         27.6397          4.6546 
        1.95123         27.5123         4.61946 
        1.95737         27.3795         4.58466 
        1.96349         27.2775         4.55031 
        1.96964         27.1341         4.51622 
        1.97578         27.0775         4.48246 
        1.98192         26.8966         4.44911 
        1.98805         26.8326         4.41611 
        1.99419         26.6874         4.38344 
        2.00033          26.535         4.35108 
        2.00647         26.4518         4.31906 
         2.0126         26.3292         4.28743 
        2.01874         26.2467         4.25606 
        2.02488         26.2027         4.22498 
        2.03101         25.9923         4.19426 
        2.03714          25.897         4.16389 
        2.04328         25.7722         4.13378 
        2.04941         25.7012           4.104 
        2.05554         25.5864         4.07453 
        2.06167         25.4769         4.04531 
        2.06781         25.3658         4.01638 
        2.07396         25.2805         3.98769 
        2.08009         25.2045         3.95933 
        2.08622         25.0356         3.93128 
        2.09237         24.9442         3.90345 
        2.09851         24.8492         3.87588 
        2.10464         24.7903         3.84863 
        2.11077         24.5987         3.82168 
        2.11691         24.5451         3.79492 
        2.12305         24.4602         3.76842 
        2.12918         24.4082         3.74224 
        2.13531          24.264         3.71631 
        2.14145         24.2164         3.69056 
         2.1476         24.0456         3.66503 
        2.15372         23.9436         3.63987 
        2.15985         23.8301         3.61492 
        2.16599         23.7847         3.59013 
        2.17213         23.7099         3.56561 
        2.17827         23.5142         3.54132 
         2.1844           23.42         3.51728 
        2.19054         23.3454         3.49346 
        2.19666         23.2744         3.46989 
         2.2028         23.1945         3.44652 
        2.20893         23.0996         3.42336 
        2.21508         22.9967         3.40038 
        2.22122         22.8326         3.37761 
        2.22736         22.8326         3.35509 
        2.23349         22.7024         3.33279 
        2.23962         22.6067         3.31067 
        2.24577         22.4899         3.28874 
         2.2519         22.4466         3.26704 
        2.25802         22.3276         3.24557 
        2.26417         22.2718         3.22424 
        2.27031         22.1794         3.20308 
        2.27644         22.0823         3.18217 
        2.28257         21.9733         3.16145 
        2.28872         21.8653         3.14087 
        2.29486         21.8255         3.12048 
        2.30099         21.7139         3.10032 
        2.30712         21.6716         3.08033 
        2.31326          21.595         3.06048 
         2.3194          21.472         3.04082 
        2.32553         21.3808         3.02136 
        2.33166         21.2674         3.00208 
         2.3378          21.188         2.98295 
        2.34394         21.1306         2.96398 
        2.35007         21.0351          2.9452 
        2.35619         20.9199          2.9266 
        2.36233         20.8924         2.90813 
        2.36848         20.7484         2.88977 
        2.37462         20.6837         2.87162 
        2.38075         20.6126         2.85364 
        2.38689         20.5658         2.83579 
        2.39303         20.4361         2.81811 
        2.39916         20.3556         2.80059 
        2.40529         20.2721         2.78323 
        2.41143         20.2203           2.766 
        2.41757         20.1363          2.7489 
         2.4237         20.0399         2.73199 
        2.42983         19.9694         2.71522 
        2.43598         19.9089         2.69854 
        2.44211         19.8095         2.68204 
        2.44823         19.7105         2.66571 
        2.45437         19.6489         2.64947 
        2.46052         19.5901         2.63336 
        2.46665         19.5277          2.6174 
        2.47279         19.4125         2.60159 
        2.47892         19.3749          2.5859 
        2.48507         19.2776         2.57032 
         2.4912         19.2367          2.5549 
