# k  (h/Mpc)    P(k)  (Mpc/h)^3    P_linear(k)  (Mpc/h)^3
     0.00783031         208.538         210.245 
       0.013688         268.072         270.123 
       0.019231         284.335         285.148 
      0.0249154         275.659         275.946 
      0.0312784         250.938         251.134 
      0.0375637         222.548         222.716 
      0.0433917         199.053         198.727 
      0.0492413          179.24         179.195 
      0.0555754         163.651         163.235 
      0.0619321         150.808         151.227 
       0.067871         141.907         141.894 
      0.0738098         132.955         132.935 
      0.0800417          123.18         123.027 
      0.0862327         112.513         112.527 
      0.0921407         102.332         102.345 
      0.0982031         92.6228         92.4522 
       0.104506         83.3727         83.4617 
       0.110769         76.1929         76.2286 
       0.116806         71.0619         70.8642 
       0.122832         66.7889          66.792 
       0.129052         63.5732         63.4552 
       0.135211         60.6795         60.5059 
       0.141259         57.5939           57.56 
       0.147318         54.2481         54.3568 
       0.153489         50.8501         50.8371 
       0.159709         47.2897         47.1977 
       0.165845         43.6441         43.7562 
       0.171974         40.8412         40.6804 
       0.178125         38.2304         38.0814 
       0.184229         36.0579         36.0009 
        0.19034         34.5318         34.3376 
       0.196428          33.104         32.9621 
       0.202534         31.6957         31.7133 
       0.208729         30.5515         30.4494 
       0.214876         29.3066         29.1219 
       0.220989         27.7257         27.7172 
       0.227147         26.4651         26.2585 
        0.23329         25.0589         24.8291 
       0.239377         23.7578         23.5083 
       0.245482         22.5698         22.3289 
       0.251667         21.4666         21.3012 
       0.257832         20.6915         20.4308 
       0.263955           19.87         19.6831 
       0.270079         19.1912         19.0051 
        0.27624         18.4681         18.3496 
       0.282372         17.8247         17.6933 
        0.28843         17.2577          17.028 
       0.294538         16.5543         16.3456 
       0.300721          15.811         15.6598 
        0.30691         15.2384         15.0002 
       0.313033         14.6083         14.3923 
       0.319153         14.1512         13.8402 
       0.325316         13.5239         13.3411 
        0.33145         13.0751         12.8938 
       0.337538         12.6936         12.4859 
       0.343633          12.334            12.1 
       0.349808         11.9275         11.7199 
       0.355968         11.5431         11.3446 
       0.362074         11.2112         10.9739 
       0.368217         10.8319         10.6056 
       0.374374           10.53          10.246 
       0.380519         10.1285         9.90246 
       0.386598         9.78934         9.58239 
       0.392688          9.4818         9.28295 
        0.39888         9.22442         9.00008 
       0.405048         8.96801          8.7366 
       0.411186         8.71076         8.48855 
       0.417313         8.47898         8.25111 
       0.423458         8.21511         8.01965 
       0.429607         8.02982         7.79303 
       0.435692          7.8226         7.57361 
       0.441815         7.57672         7.35801 
       0.447964         7.34355         7.14842 
       0.454126         7.17542         6.94689 
       0.460267         7.01702         6.75524 
       0.466387         6.81547         6.57362 
        0.47254         6.65476          6.4002 
       0.478662         6.47822         6.23557 
       0.484765         6.32408           6.078 
       0.490885         6.15584         5.92548 
       0.497035         5.98737         5.77686 
       0.503198          5.8627         5.63192 
       0.509342          5.7026         5.49125 
       0.515458         5.58608         5.35533 
       0.521598         5.45552         5.22325 
       0.527764         5.34665         5.09521 
       0.533884         5.18839          4.9728 
           0.54         5.08264         4.85522 
       0.546137         4.94992         4.74173 
       0.552299         4.84993         4.63187 
       0.558452         4.74459         4.52585 
       0.564573         4.64855         4.42363 
       0.570708         4.54665         4.32421 
       0.576825         4.44922         4.22792 
       0.582926         4.34631         4.13454 
       0.589034         4.27065         4.04366 
       0.595184         4.18949         3.95486 
       0.601379         4.08672         3.86822 
       0.607522         4.00044         3.78506 
       0.613639         3.90573         3.70487 
       0.619772         3.84511         3.62696 
       0.625918         3.76636         3.55123 
       0.632068         3.69539          3.4777 
       0.638161         3.62158         3.40693 
         0.6443         3.54822         3.33761 
       0.650464         3.47696         3.26993 
       0.656582         3.42594         3.20453 
       0.662703         3.35944         3.14085 
       0.668861         3.27731         3.07853 
       0.675024         3.22185         3.01788 
       0.681124         3.19368         2.95952 
       0.687237          3.1173         2.90266 
       0.693381          3.0438         2.84709 
       0.699536         3.01022         2.79291 
       0.705665         2.95377          2.7404 
       0.711789         2.88943         2.68928 
       0.717957          2.8402         2.63911 
        0.72409         2.79221          2.5905 
       0.730186         2.75638         2.54341 
       0.736317         2.69809         2.49724 
       0.742472         2.65986         2.45206 
       0.748622         2.61748         2.40805 
        0.75476         2.56145         2.36523 
       0.760888         2.53049         2.32353 
       0.767043         2.46493         2.28269 
       0.773185         2.43575         2.24292 
       0.779291         2.40976         2.20434 
       0.785407         2.36384         2.16661 
       0.791564         2.32634         2.12954 
       0.797719         2.28647         2.09337 
       0.803834         2.24986         2.05827 
       0.809972         2.21544         2.02386 
       0.816124         2.18101         1.99017 
       0.822261         2.14951         1.95735 
       0.828378         2.11198         1.92537 
       0.834502         2.08134         1.89409 
       0.840667          2.0548         1.86331 
       0.846816          2.0213          1.8333 
       0.852925         1.98585         1.80415 
       0.859047         1.95808         1.77557 
       0.865192         1.93077         1.74753 
       0.871341         1.90469         1.72008 
       0.877463         1.87073         1.69334 
       0.883569         1.84534         1.66725 
       0.889708         1.82333         1.64157 
       0.895864         1.79723         1.61638 
       0.902008         1.76646         1.59177 
       0.908149         1.74494         1.56769 
       0.914301         1.72483         1.54407 
       0.920448         1.70035         1.52096 
       0.926574         1.68174         1.49842 
       0.932687         1.65571         1.47638 
       0.938823         1.62665          1.4547 
       0.944975         1.60996         1.43342 
       0.951105         1.58065         1.41264 
       0.957225         1.56146         1.39231 
       0.963368           1.545         1.37232 
       0.969511         1.52697         1.35272 
       0.975621         1.50282         1.33361 
       0.981748          1.4766         1.31482 
       0.987916         1.46038         1.29628 
        0.99406         1.44619         1.27817 
        1.00019         1.42582         1.26045 
        1.00632         1.41263         1.24308 
        1.01246         1.39224         1.22601 
        1.01859         1.37515         1.20929 
        1.02471         1.35238         1.19291 
        1.03085         1.33575         1.17678 
        1.03698         1.32311         1.16098 
        1.04314         1.30705         1.14541 
        1.04929          1.2939         1.13016 
        1.05541         1.27157         1.11526 
        1.06154         1.26041         1.10058 
        1.06769         1.24652         1.08616 
        1.07382         1.23026         1.07203 
        1.07993         1.21563          1.0582 
        1.08607          1.2017         1.04455 
        1.09222         1.18477         1.03113 
        1.09836         1.17392         1.01797 
        1.10449         1.15657         1.00505 
        1.11063         1.14314        0.992338 
        1.11677         1.13329        0.979855 
         1.1229         1.11528        0.967609 
        1.12903         1.10678        0.955563 
        1.13518         1.09169        0.943713 
        1.14131          1.0815        0.932071 
        1.14745         1.07149        0.920634 
        1.15359          1.0571        0.909387 
        1.15973         1.04675        0.898324 
        1.16584         1.03278        0.887496 
        1.17197         1.02087        0.876832 
        1.17811         1.00941        0.866311 
        1.18424        0.998574        0.855994 
        1.19038        0.986401        0.845816 
        1.19652        0.980152        0.835808 
        1.20267        0.970084        0.825963 
        1.20881         0.95495         0.81628 
        1.21495        0.947023        0.806767 
        1.22108        0.937703        0.797408 
         1.2272          0.9249        0.788221 
        1.23334        0.916827        0.779158 
        1.23949        0.909416        0.770217 
        1.24562        0.898968        0.761442 
        1.25174         0.88935        0.752818 
        1.25789        0.877791        0.744301 
        1.26402        0.870061        0.735932 
        1.27014          0.8591        0.727714 
        1.27628        0.853281        0.719596 
        1.28244         0.84504        0.711588 
        1.28858         0.83407        0.703713 
        1.29471        0.826091        0.695975 
        1.30084        0.818414        0.688362 
        1.30697        0.812665        0.680851 
        1.31312        0.803773        0.673443 
        1.31925        0.795381        0.666168 
        1.32537        0.788027        0.659009 
        1.33151        0.779501         0.65193 
        1.33765        0.772075        0.644959 
        1.34378        0.762792        0.638105 
        1.34992        0.759179        0.631346 
        1.35606        0.749794        0.624671 
         1.3622        0.743259        0.618104 
        1.36833        0.737158        0.611648 
        1.37445        0.730381        0.605287 
        1.38059        0.722831        0.598998 
        1.38675        0.715396        0.592783 
        1.39288        0.707796        0.586682 
        1.39901        0.703141        0.580669 
        1.40515        0.695687        0.574728 
         1.4113        0.691784        0.568872 
        1.41742        0.683733         0.56312 
        1.42355        0.675195        0.557438 
         1.4297        0.672474        0.551817 
        1.43585        0.664297        0.546276 
        1.44198        0.659395        0.540832 
        1.44809        0.652319        0.535473 
        1.45423        0.647943        0.530168 
        1.46036        0.641634        0.524944 
        1.46649        0.635451        0.519789 
        1.47263        0.628916        0.514699 
        1.47877        0.626948         0.50968 
        1.48491        0.617503         0.50472 
        1.49104        0.615618        0.499837 
        1.49718        0.608161        0.495015 
        1.50333        0.604126        0.490249 
        1.50947        0.599516        0.485556 
         1.5156        0.593495        0.480932 
        1.52172        0.589202        0.476368 
        1.52787        0.582172        0.471854 
          1.534        0.579323        0.467405 
        1.54013        0.574225        0.463018 
        1.54627        0.569233        0.458679 
        1.55241        0.563726        0.454396 
        1.55855        0.559451        0.450173 
        1.56467        0.555248        0.446016 
         1.5708        0.549903          0.4419 
        1.57695        0.545256         0.43783 
        1.58308        0.539138         0.43382 
        1.58922        0.537136        0.429858 
        1.59535        0.531464        0.425948 
         1.6015        0.527536         0.42208 
        1.60764        0.523293        0.418263 
        1.61376        0.519025        0.414503 
        1.61989        0.514679        0.410787 
        1.62604        0.510233        0.407108 
        1.63218        0.507522        0.403477 
        1.63831        0.502244        0.399898 
        1.64444        0.498856        0.396362 
        1.65059        0.494182         0.39286 
        1.65673        0.490736        0.389404 
        1.66285        0.487652           0.386 
        1.66898        0.483251        0.382635 
        1.67512        0.478949        0.379304 
        1.68127        0.474848         0.37601 
         1.6874        0.472225        0.372762 
        1.69353        0.468332        0.369555 
        1.69967        0.464465        0.366378 
        1.70581        0.461816         0.36324 
        1.71193        0.458576         0.36015 
        1.71806        0.454658         0.35709 
        1.72421        0.450985        0.354059 
        1.73035        0.446842        0.351068 
        1.73649        0.445362        0.348111 
        1.74262         0.44032        0.345191 
        1.74876        0.438079        0.342302 
        1.75489        0.434942        0.339453 
        1.76101        0.430926        0.336637 
        1.76715        0.428382        0.333849 
        1.77329        0.424847         0.33109 
        1.77943        0.421575         0.32836 
        1.78557        0.419901        0.325666 
        1.79171         0.41648        0.323001 
        1.79785        0.412795        0.320366 
        1.80399        0.409023         0.31776 
        1.81012         0.40722        0.315187 
        1.81625        0.404834        0.312644 
        1.82239         0.40213        0.310126 
        1.82853        0.398358        0.307636 
        1.83466        0.395419        0.305176 
        1.84078        0.392402        0.302745 
        1.84692         0.39004        0.300338 
        1.85306        0.387582        0.297953 
         1.8592        0.384676        0.295598 
        1.86533         0.38252         0.29327 
        1.87147        0.379099        0.290965 
        1.87761        0.376552        0.288683 
        1.88375        0.373967        0.286429 
        1.88988        0.371131        0.284201 
        1.89601        0.367836        0.281995 
        1.90215         0.36624        0.279812 
        1.90829         0.36315        0.277652 
        1.91442        0.361596        0.275515 
        1.92056        0.359774        0.273403 
         1.9267        0.356363        0.271311 
        1.93284        0.353583        0.269239 
        1.93897        0.351939        0.267193 
        1.94509        0.349686        0.265173 
        1.95123        0.346629        0.263168 
        1.95737        0.344678        0.261183 
        1.96349        0.342328        0.259224 
        1.96964        0.339922        0.257278 
        1.97578        0.337475        0.255353 
        1.98192        0.336054         0.25345 
        1.98805        0.333954        0.251567 
        1.99419        0.332115        0.249703 
        2.00033        0.329504        0.247857 
        2.00647        0.327161         0.24603 
         2.0126        0.325377        0.244225 
        2.01874        0.323478        0.242435 
        2.02488        0.321214        0.240661 
        2.03101        0.318762        0.238909 
        2.03714        0.317846        0.237175 
        2.04328        0.314702        0.235457 
        2.04941        0.313551        0.233758 
        2.05554        0.311534        0.232076 
        2.06167         0.30936        0.230409 
        2.06781        0.306386        0.228758 
        2.07396        0.305483         0.22712 
        2.08009        0.303407        0.225502 
        2.08622         0.30185        0.223901 
        2.09237        0.299781        0.222313 
        2.09851        0.297513         0.22074 
        2.10464        0.295949        0.219184 
        2.11077        0.293842        0.217646 
        2.11691        0.292522        0.216119 
        2.12305        0.290187        0.214606 
        2.12918        0.288544        0.213112 
        2.13531         0.28722        0.211632 
        2.14145        0.285218        0.210162 
         2.1476        0.283813        0.208705 
        2.15372        0.282079        0.207269 
        2.15985        0.279986        0.205845 
        2.16599        0.278405         0.20443 
        2.17213        0.277092         0.20303 
        2.17827        0.275137        0.201644 
         2.1844        0.273897        0.200272 
        2.19054        0.272394        0.198912 
        2.19666        0.270775        0.197566 
         2.2028        0.268436        0.196232 
        2.20893         0.26742         0.19491 
        2.21508        0.265848        0.193598 
        2.22122        0.264648        0.192298 
        2.22736        0.262473        0.191013 
        2.23349        0.260803         0.18974 
        2.23962        0.259508        0.188478 
        2.24577        0.258337        0.187226 
         2.2519        0.256849        0.185987 
        2.25802        0.255271        0.184761 
        2.26417        0.254071        0.183543 
        2.27031        0.252312        0.182335 
        2.27644        0.251727        0.181142 
        2.28257        0.249806        0.179959 
        2.28872        0.248387        0.178784 
        2.29486        0.247019         0.17762 
        2.30099        0.245446        0.176469 
        2.30712         0.24419        0.175328 
        2.31326        0.242599        0.174195 
         2.3194        0.241668        0.173072 
        2.32553        0.240323        0.171962 
        2.33166        0.238985        0.170861 
         2.3378        0.237602        0.169769 
        2.34394         0.23637        0.168686 
        2.35007        0.235044        0.167614 
        2.35619        0.233914        0.166552 
        2.36233        0.232272        0.165497 
        2.36848        0.231299         0.16445 
        2.37462        0.230444        0.163413 
        2.38075        0.228965        0.162386 
        2.38689        0.227857        0.161368 
        2.39303        0.226526        0.160358 
        2.39916        0.225166        0.159358 
        2.40529        0.224147        0.158367 
        2.41143        0.222481        0.157383 
        2.41757        0.221602        0.156407 
         2.4237        0.220571        0.155442 
        2.42983        0.219901        0.154484 
        2.43598        0.218262        0.153533 
        2.44211        0.216469         0.15259 
        2.44823        0.216301        0.151658 
        2.45437        0.215023        0.150731 
        2.46052        0.213897        0.149811 
        2.46665        0.212612          0.1489 
        2.47279        0.211435        0.147997 
        2.47892         0.21087        0.147101 
        2.48507        0.209354        0.146212 
         2.4912        0.208648        0.145332 
