# k  (h/Mpc)    Pcb(k)  (Mpc/h)^3    Pcb_linear(k)  (Mpc/h)^3
     0.00783031         5281.22         5311.95 
       0.013688         6551.03          6665.2 
       0.019231         6810.11          6871.6 
      0.0249154         6508.53          6500.1 
      0.0312784         5761.29         5791.45 
      0.0375637         5014.12         5064.54 
      0.0433917         4483.33         4492.08 
      0.0492413         4016.09         4047.89 
      0.0555754         3686.39         3692.21 
      0.0619321         3339.43         3415.52 
       0.067871         3147.08         3182.86 
      0.0738098         2924.14         2945.38 
      0.0800417         2671.35         2681.46 
      0.0862327         2396.34         2414.29 
      0.0921407         2161.89          2173.1 
      0.0982031         1965.62         1956.99 
       0.104506         1765.19         1776.11 
       0.110769         1636.04         1639.97 
       0.116806         1559.52         1541.03 
       0.122832         1462.84         1461.16 
       0.129052         1392.34         1385.42 
       0.135211          1330.4          1307.7 
       0.141259         1236.62         1225.34 
       0.147318         1139.51         1138.77 
       0.153489         1065.06         1051.77 
       0.159709         1003.03         971.403 
       0.165845         916.913         903.512 
       0.171974         887.656         848.302 
       0.178125          847.01         804.073 
       0.184229         793.241         767.983 
        0.19034         772.821         735.787 
       0.196428          744.29          704.36 
       0.202534         696.361         671.583 
       0.208729         677.714         636.739 
       0.214876         648.185         601.615 
       0.220989         603.521         567.805 
       0.227147         587.315         536.477 
        0.23329         563.277         508.936 
       0.239377          548.32         485.467 
       0.245482         520.795         465.193 
       0.251667         499.623         447.003 
       0.257832         493.118         430.125 
       0.263955         466.317         413.739 
       0.270079         449.731         397.278 
        0.27624         430.166         380.616 
       0.282372         418.426         364.236 
        0.28843         414.135         348.682 
       0.294538         393.638          334.02 
       0.300721         378.818         320.464 
        0.30691         372.477         308.188 
       0.313033         356.652          297.16 
       0.319153          350.27         286.961 
       0.325316         340.357         277.235 
        0.33145         331.394          267.86 
       0.337538          320.17         258.741 
       0.343633         310.247         249.779 
       0.349808         301.488         240.947 
       0.355968         294.564         232.483 
       0.362074         287.268         224.529 
       0.368217         282.532         217.021 
       0.374374         276.021         209.979 
       0.380519         264.689         203.393 
       0.386598         260.116          197.23 
       0.392688         253.574          191.33 
        0.39888         248.008         185.549 
       0.405048         243.116         179.964 
       0.411186         240.074         174.573 
       0.417313         234.809         169.365 
       0.423458         228.669         164.336 
       0.429607         223.794         159.517 
       0.435692         219.772         154.971 
       0.441815         214.827         150.609 
       0.447964         208.803         146.432 
       0.454126         205.308         142.429 
       0.460267         203.203         138.595 
       0.466387         198.978         134.909 
        0.47254         196.601         131.327 
       0.478662          190.37         127.877 
       0.484765         187.941          124.55 
       0.490885         184.669          121.33 
       0.497035         182.914         118.211 
       0.503198         179.655         115.204 
       0.509342         174.975         112.319 
       0.515458         173.036         109.555 
       0.521598          168.94         106.882 
       0.527764         167.163          104.29 
       0.533884         166.412         101.802 
           0.54         162.122          99.395 
       0.546137         158.496         97.0559 
       0.552299          156.79         94.7813 
       0.558452         153.988         92.5824 
       0.564573         153.263         90.4645 
       0.570708         149.272         88.4105 
       0.576825         147.524         86.4295 
       0.582926         145.954         84.5175 
       0.589034         143.752         82.6631 
       0.595184         142.322         80.8535 
       0.601379         138.998         79.0863 
       0.607522         136.856         77.3863 
       0.613639          135.74         75.7435 
       0.619772         133.806         74.1445 
       0.625918         132.699         72.5885 
       0.632068         130.032         71.0767 
       0.638161         128.231          69.622 
         0.6443         127.634         68.1984 
       0.650464         125.162         66.8105 
       0.656582          124.64         65.4721 
       0.662703         123.139         64.1708 
       0.668861         120.552         62.8979 
       0.675024         120.576         61.6589 
       0.681124         118.591         60.4659 
       0.687237         116.504         59.3023 
       0.693381         115.934         58.1642 
       0.699536         114.468         57.0543 
       0.705665         112.841         55.9786 
       0.711789          111.44          54.932 
       0.717957         110.215         53.9055 
        0.72409         109.422         52.9113 
       0.730186         108.767         51.9486 
       0.736317         106.831         51.0048 
       0.742472         105.603         50.0814 
       0.748622         104.035         49.1819 
        0.75476         103.687         48.3067 
       0.760888         103.048         47.4544 
       0.767043         101.153         46.6196 
       0.773185         100.015         45.8068 
       0.779291         98.9204         45.0184 
       0.785407         97.7573         44.2475 
       0.791564         97.6186         43.4902 
       0.797719         96.3931         42.7512 
       0.803834         95.6219         42.0343 
       0.809972         94.9603         41.3314 
       0.816124         93.8164         40.6433 
       0.822261         92.6471          39.973 
       0.828378         92.4342         39.3199 
       0.834502         91.0133          38.681 
       0.840667         90.5419         38.0523 
       0.846816         89.6678         37.4396 
       0.852925         88.7339         36.8443 
       0.859047         88.4036         36.2609 
       0.865192         87.1328         35.6883 
       0.871341          86.204         35.1279 
       0.877463         85.6837         34.5821 
       0.883569         85.4584         34.0494 
       0.889708         84.6631         33.5253 
       0.895864         83.9021         33.0111 
       0.902008         83.1279         32.5087 
       0.908149         82.1717         32.0173 
       0.914301         81.9048         31.5353 
       0.920448         81.5315         31.0638 
       0.926574         79.9648         30.6036 
       0.932687         79.7276         30.1538 
       0.938823         79.0767         29.7116 
       0.944975         78.1689         29.2772 
       0.951105         77.5849         28.8532 
       0.957225          77.464         28.4384 
       0.963368         76.6347         28.0305 
       0.969511         75.9743         27.6306 
       0.975621         75.4544         27.2407 
       0.981748         74.7055         26.8575 
       0.987916         74.2085         26.4793 
        0.99406         73.8196         26.1098 
        1.00019         73.0014         25.7483 
        1.00632          72.541         25.3939 
        1.01246         72.0471         25.0458 
        1.01859         71.7365         24.7049 
        1.02471         70.9087         24.3708 
        1.03085         70.4829         24.0417 
        1.03698          70.052         23.7195 
        1.04314         69.5574          23.402 
        1.04929          69.024          23.091 
        1.05541         68.6233          22.787 
        1.06154         68.2477         22.4877 
        1.06769         67.4238         22.1935 
        1.07382         67.0385         21.9055 
        1.07993         66.7555         21.6233 
        1.08607         66.2138          21.345 
        1.09222         65.9816         21.0714 
        1.09836         65.3699         20.8029 
        1.10449         65.0163         20.5394 
        1.11063         64.4612         20.2802 
        1.11677         64.3082         20.0257 
         1.1229         63.6342          19.776 
        1.12903         63.4665         19.5303 
        1.13518         63.2738         19.2887 
        1.14131         62.5813         19.0513 
        1.14745         62.0485          18.818 
        1.15359         61.4721         18.5887 
        1.15973         61.4216         18.3631 
        1.16584         60.9809         18.1423 
        1.17197         60.3234         17.9248 
        1.17811         60.1104         17.7103 
        1.18424         59.3858         17.4999 
        1.19038         59.3283         17.2923 
        1.19652         59.0607         17.0883 
        1.20267         58.6327         16.8875 
        1.20881         58.2321           16.69 
        1.21495         58.0049         16.4961 
        1.22108         57.7679         16.3052 
         1.2272         57.2414         16.1179 
        1.23334         56.9367         15.9331 
        1.23949         56.6056         15.7508 
        1.24562         56.1851         15.5718 
        1.25174         55.8417          15.396 
        1.25789          55.859         15.2223 
        1.26402         55.3494         15.0517 
        1.27014         55.0872         14.8841 
        1.27628         54.5603         14.7186 
        1.28244         54.4543         14.5553 
        1.28858         54.0756         14.3947 
        1.29471         53.8153         14.2369 
        1.30084           53.34         14.0817 
        1.30697         53.3131         13.9285 
        1.31312         52.8147         13.7774 
        1.31925         52.4201         13.6291 
        1.32537         52.2229         13.4831 
        1.33151         51.9121         13.3387 
        1.33765         51.6813         13.1966 
        1.34378         51.4877         13.0568 
        1.34992            51.1          12.919 
        1.35606          50.781         12.7828 
         1.3622         50.5048         12.6489 
        1.36833         50.2494         12.5173 
        1.37445         49.8346         12.3875 
        1.38059          49.758         12.2593 
        1.38675         49.2299         12.1326 
        1.39288         49.2296         12.0081 
        1.39901         48.8416         11.8855 
        1.40515         48.6316         11.7643 
         1.4113         48.6024         11.6449 
        1.41742         48.2509         11.5276 
        1.42355          47.832         11.4117 
         1.4297         47.6129          11.297 
        1.43585         47.3006          11.184 
        1.44198         47.0541         11.0729 
        1.44809         46.8048         10.9636 
        1.45423         46.6555         10.8554 
        1.46036         46.4248         10.7488 
        1.46649         46.2285         10.6437 
        1.47263         45.8983         10.5399 
        1.47877         45.7326         10.4375 
        1.48491         45.5604         10.3363 
        1.49104         45.1706         10.2367 
        1.49718         45.0277         10.1383 
        1.50333           44.88         10.0411 
        1.50947          44.542         9.94537 
         1.5156         44.3642         9.85103 
        1.52172         44.0364         9.75792 
        1.52787         43.8777         9.66584 
          1.534         43.6509         9.57507 
        1.54013         43.5624         9.48557 
        1.54627         43.1466         9.39705 
        1.55241         42.9664         9.30966 
        1.55855         42.8871         9.22351 
        1.56467         42.6325          9.1387 
         1.5708         42.4683         9.05472 
        1.57695         42.2266         8.97167 
        1.58308         41.8889         8.88987 
        1.58922         41.7178         8.80903 
        1.59535         41.5891         8.72923 
         1.6015          41.497         8.65032 
        1.60764         41.2331         8.57242 
        1.61376         40.9697         8.49571 
        1.61989          40.734         8.41987 
        1.62604         40.5745         8.34479 
        1.63218         40.3677         8.27068 
        1.63831         40.2599         8.19764 
        1.64444         40.0135         8.12547 
        1.65059         39.8328         8.05399 
        1.65673         39.6175         7.98346 
        1.66285         39.5559         7.91398 
        1.66898         39.1809          7.8453 
        1.67512         39.1332         7.77731 
        1.68127         38.9143         7.71007 
         1.6874         38.7124         7.64377 
        1.69353         38.6314          7.5783 
        1.69967         38.4537         7.51345 
        1.70581         38.1084         7.44939 
        1.71193         37.9494         7.38632 
        1.71806         37.8633         7.32385 
        1.72421         37.6945         7.26199 
        1.73035         37.4828         7.20091 
        1.73649          37.227         7.14055 
        1.74262         37.0067         7.08094 
        1.74876         36.9206         7.02197 
        1.75489         36.7418          6.9638 
        1.76101          36.619          6.9063 
        1.76715         36.4995         6.84939 
        1.77329         36.2007         6.79304 
        1.77943         36.1744         6.73731 
        1.78557          35.979         6.68229 
        1.79171         35.8349         6.62788 
        1.79785         35.6462         6.57407 
        1.80399         35.4965         6.52087 
        1.81012         35.3761         6.46834 
        1.81625         35.0737          6.4164 
        1.82239         34.9742         6.36497 
        1.82853         34.8402         6.31412 
        1.83466         34.6557         6.26389 
        1.84078         34.4923         6.21425 
        1.84692         34.3742         6.16508 
        1.85306         34.1437         6.11638 
         1.8592         34.0878         6.06828 
        1.86533         33.8978         6.02073 
        1.87147         33.7401         5.97364 
        1.87761         33.5596         5.92703 
        1.88375         33.5274         5.88098 
        1.88988         33.2928         5.83547 
        1.89601         33.1037         5.79041 
        1.90215         33.0196          5.7458 
        1.90829         32.8872         5.70168 
        1.91442         32.6774         5.65803 
        1.92056         32.5703         5.61487 
         1.9267         32.4813         5.57212 
        1.93284         32.3006         5.52979 
        1.93897         32.1899         5.48799 
        1.94509         32.0465         5.44671 
        1.95123         31.9203         5.40575 
        1.95737         31.7435         5.36519 
        1.96349         31.6108         5.32514 
        1.96964         31.5829          5.2854 
        1.97578         31.2991         5.24604 
        1.98192         31.1999         5.20717 
        1.98805         30.9828         5.16868 
        1.99419          30.959         5.13059 
        2.00033         30.7734         5.09286 
        2.00647         30.7051         5.05552 
         2.0126         30.5149         5.01863 
        2.01874         30.3758         4.98204 
        2.02488         30.2515         4.94579 
        2.03101         30.0742         4.90998 
        2.03714         29.9989         4.87455 
        2.04328         29.8789         4.83943 
        2.04941         29.7316         4.80469 
        2.05554         29.6546         4.77031 
        2.06167         29.4665         4.73623 
        2.06781         29.4004         4.70248 
        2.07396         29.2981         4.66901 
        2.08009          29.132         4.63592 
        2.08622         28.9943         4.60319 
        2.09237         28.9317         4.57072 
        2.09851         28.7003         4.53856 
        2.10464         28.5775         4.50676 
        2.11077         28.5741         4.47531 
        2.11691         28.3935         4.44408 
        2.12305         28.2782         4.41316 
        2.12918         28.1646          4.3826 
        2.13531         28.0582         4.35234 
        2.14145          27.926         4.32229 
         2.1476          27.755         4.29248 
        2.15372          27.682         4.26312 
        2.15985         27.5833         4.23399 
        2.16599         27.4201         4.20506 
        2.17213         27.3694         4.17643 
        2.17827         27.1917         4.14807 
         2.1844         27.1239         4.12001 
        2.19054         27.0476         4.09219 
        2.19666          26.873         4.06467 
         2.2028         26.8295         4.03738 
        2.20893         26.6501         4.01033 
        2.21508         26.5657          3.9835 
        2.22122          26.429         3.95691 
        2.22736         26.3676         3.93061 
        2.23349          26.189         3.90456 
        2.23962          26.154         3.87874 
        2.24577         26.0076         3.85313 
         2.2519         25.9312         3.82778 
        2.25802         25.7567         3.80271 
        2.26417         25.6578         3.77779 
        2.27031          25.608         3.75307 
        2.27644         25.5485         3.72864 
        2.28257         25.4035         3.70444 
        2.28872         25.3269          3.6804 
        2.29486         25.1911         3.65659 
        2.30099         25.0548         3.63303 
        2.30712         24.9998         3.60967 
        2.31326         24.8527         3.58648 
         2.3194         24.7825         3.56351 
        2.32553         24.6939         3.54078 
        2.33166         24.5501         3.51825 
         2.3378         24.5214         3.49589 
        2.34394         24.3806         3.47372 
        2.35007         24.3175         3.45178 
        2.35619         24.2141         3.43005 
        2.36233         24.0737         3.40846 
        2.36848         23.9657         3.38701 
        2.37462         23.9135         3.36579 
        2.38075         23.7918         3.34477 
        2.38689         23.6743         3.32392 
        2.39303         23.6419         3.30325 
        2.39916         23.4897         3.28278 
        2.40529          23.394         3.26248 
        2.41143         23.3234         3.24234 
        2.41757         23.1823         3.22236 
         2.4237         23.1139         3.20259 
        2.42983         23.0442         3.18299 
        2.43598         22.9237         3.16349 
        2.44211         22.8656          3.1442 
        2.44823         22.7619         3.12511 
        2.45437         22.7143         3.10613 
        2.46052         22.5661         3.08729 
        2.46665         22.5388         3.06863 
        2.47279         22.3759         3.05015 
        2.47892         22.3129          3.0318 
        2.48507         22.2399         3.01358 
         2.4912         22.1561         2.99555 
