# k  (h/Mpc)    Pcb(k)  (Mpc/h)^3    Pcb_linear(k)  (Mpc/h)^3
     0.00783031         16760.7         16836.1 
       0.013688         20528.6         21115.8 
       0.019231         21386.1         21765.4 
      0.0249154         20572.3         20586.4 
      0.0312784         18056.1         18340.6 
      0.0375637         15640.9         16037.8 
      0.0433917         14033.8         14224.6 
      0.0492413         12525.6         12817.7 
      0.0555754         11492.6         11691.2 
      0.0619321         10278.9         10814.9 
       0.067871         9719.07         10078.1 
      0.0738098         9088.53         9326.11 
      0.0800417         8288.82          8490.4 
      0.0862327         7443.37         7644.41 
      0.0921407         6760.05         6880.69 
      0.0982031         6196.48         6196.39 
       0.104506          5559.3         5623.64 
       0.110769         5173.58         5192.59 
       0.116806         4950.66          4879.3 
       0.122832         4655.81          4626.4 
       0.129052         4395.29         4386.57 
       0.135211         4257.92         4140.51 
       0.141259         3940.64         3879.71 
       0.147318            3655          3605.6 
       0.153489          3447.1         3330.15 
       0.159709         3315.26         3075.68 
       0.165845            3037         2860.72 
       0.171974         2955.49         2685.91 
       0.178125         2866.79         2545.87 
       0.184229         2643.45          2431.6 
        0.19034         2609.15         2329.66 
       0.196428         2536.58         2230.15 
       0.202534         2391.93         2126.37 
       0.208729         2340.39         2016.05 
       0.214876          2237.1         1904.84 
       0.220989         2135.98         1797.79 
       0.227147         2076.61          1698.6 
        0.23329          1996.5          1611.4 
       0.239377         1988.18         1537.09 
       0.245482          1899.4          1472.9 
       0.251667         1830.89          1415.3 
       0.257832         1800.38         1361.86 
       0.263955         1725.18         1309.98 
       0.270079         1685.48         1257.86 
        0.27624         1616.25         1205.11 
       0.282372         1601.59         1153.24 
        0.28843         1568.32            1104 
       0.294538         1503.08         1057.57 
       0.300721         1478.89         1014.65 
        0.30691         1439.84         975.784 
       0.313033         1390.44         940.867 
       0.319153         1377.78         908.574 
       0.325316         1360.66          877.78 
        0.33145         1331.07         848.096 
       0.337538         1290.88         819.226 
       0.343633          1263.2          790.85 
       0.349808         1243.27         762.886 
       0.355968         1217.07         736.087 
       0.362074         1184.93         710.902 
       0.368217         1180.92         687.129 
       0.374374          1162.4         664.834 
       0.380519            1125         643.981 
       0.386598         1121.31         624.468 
       0.392688         1092.05         605.788 
        0.39888         1073.53         587.484 
       0.405048          1052.5         569.801 
       0.411186         1048.19          552.73 
       0.417313         1044.19         536.243 
       0.423458         1013.47         520.318 
       0.429607          988.05         505.062 
       0.435692         980.765         490.667 
       0.441815         961.678         476.857 
       0.447964         953.516         463.633 
       0.454126         940.566         450.959 
       0.460267         930.202         438.819 
       0.466387         914.482         427.148 
        0.47254         899.895         415.806 
       0.478662         889.345         404.884 
       0.484765          880.07          394.35 
       0.490885          870.61         384.152 
       0.497035         855.069         374.278 
       0.503198         854.416         364.756 
       0.509342          838.34         355.622 
       0.515458         822.218         346.873 
       0.521598         823.263         338.408 
       0.527764         803.373         330.201 
       0.533884           794.4         322.324 
           0.54         790.059         314.703 
       0.546137         780.128         307.297 
       0.552299         773.831         300.095 
       0.558452         765.934         293.133 
       0.564573         762.167         286.427 
       0.570708         753.219         279.924 
       0.576825         738.232         273.652 
       0.582926         736.763         267.598 
       0.589034         728.132         261.727 
       0.595184         719.437         255.997 
       0.601379         708.665         250.402 
       0.607522          699.66          245.02 
       0.613639         699.001         239.818 
       0.619772         692.341         234.755 
       0.625918         683.565         229.829 
       0.632068         679.665         225.042 
       0.638161          670.15         220.436 
         0.6443         663.782         215.929 
       0.650464          659.35         211.534 
       0.656582         654.308         207.297 
       0.662703         646.004         203.177 
       0.668861         639.302         199.146 
       0.675024         636.256         195.223 
       0.681124         623.929         191.446 
       0.687237         624.722         187.762 
       0.693381         613.994         184.159 
       0.699536         615.856         180.645 
       0.705665         606.376         177.239 
       0.711789         604.829         173.925 
       0.717957         597.523         170.675 
        0.72409         592.632         167.527 
       0.730186         590.622         164.479 
       0.736317         583.231         161.491 
       0.742472         576.129         158.567 
       0.748622         575.572         155.719 
        0.75476         566.884         152.948 
       0.760888         565.042          150.25 
       0.767043         562.557         147.606 
       0.773185         557.685         145.033 
       0.779291         551.797         142.536 
       0.785407         547.432         140.096 
       0.791564          544.86         137.698 
       0.797719         536.434         135.358 
       0.803834         537.106         133.088 
       0.809972         529.301         130.863 
       0.816124         526.024         128.684 
       0.822261           522.9         126.562 
       0.828378         520.933         124.494 
       0.834502         512.597         122.471 
       0.840667          510.99         120.481 
       0.846816         507.008         118.541 
       0.852925          505.78         116.656 
       0.859047         499.941         114.809 
       0.865192         497.384         112.996 
       0.871341         491.965         111.221 
       0.877463         491.354         109.493 
       0.883569         486.335         107.807 
       0.889708         480.846         106.147 
       0.895864         476.141         104.519 
       0.902008         475.787         102.929 
       0.908149         470.971         101.373 
       0.914301         469.404         99.8465 
       0.920448         463.614         98.3536 
       0.926574         461.443         96.8966 
       0.932687         460.077         95.4726 
       0.938823         454.632         94.0723 
       0.944975          452.66         92.6971 
       0.951105         449.543         91.3547 
       0.957225          443.75         90.0414 
       0.963368         444.039         88.7497 
       0.969511         438.599         87.4836 
       0.975621         435.963         86.2492 
       0.981748         433.879         85.0358 
       0.987916         431.137         83.8383 
        0.99406         426.888         82.6686 
        1.00019         423.007         81.5238 
        1.00632          421.36         80.4019 
        1.01246         418.042         79.2997 
        1.01859         415.018         78.2202 
        1.02471         413.297         77.1623 
        1.03085         410.274         76.1206 
        1.03698         408.256         75.1005 
        1.04314          404.64         74.0949 
        1.04929         403.511         73.1103 
        1.05541         398.398         72.1477 
        1.06154         396.695         71.2003 
        1.06769         393.309         70.2686 
        1.07382         389.923         69.3568 
        1.07993         389.996         68.4634 
        1.08607         387.224         67.5822 
        1.09222         383.475         66.7158 
        1.09836         381.258         65.8657 
        1.10449         378.007         65.0315 
        1.11063         376.987          64.211 
        1.11677         372.772          63.405 
         1.1229         371.342         62.6144 
        1.12903         367.933         61.8366 
        1.13518         366.791         61.0715 
        1.14131         364.409         60.3198 
        1.14745         360.867         59.5814 
        1.15359         358.152         58.8552 
        1.15973         356.505         58.1409 
        1.16584         355.002         57.4418 
        1.17197         352.217         56.7532 
        1.17811         348.142         56.0739 
        1.18424         347.653         55.4078 
        1.19038         345.479         54.7507 
        1.19652         342.013         54.1046 
        1.20267         340.606         53.4689 
        1.20881         339.117         52.8437 
        1.21495         335.251         52.2296 
        1.22108         334.987         51.6254 
         1.2272         329.992         51.0322 
        1.23334         328.963         50.4471 
        1.23949         326.674         49.8699 
        1.24562         326.021         49.3033 
        1.25174         323.419         48.7465 
        1.25789         320.585         48.1967 
        1.26402         319.097         47.6564 
        1.27014         317.372         47.1258 
        1.27628         315.013         46.6017 
        1.28244         312.246         46.0847 
        1.28858          311.21         45.5762 
        1.29471         309.519         45.0767 
        1.30084         308.331         44.5851 
        1.30697         304.747         44.1002 
        1.31312         303.141         43.6219 
        1.31925         301.633         43.1522 
        1.32537         300.305         42.6899 
        1.33151         297.093         42.2328 
        1.33765         295.063         41.7828 
        1.34378         293.923         41.3402 
        1.34992         291.162         40.9038 
        1.35606         289.398         40.4728 
         1.3622         287.594         40.0488 
        1.36833         287.249         39.6319 
        1.37445         285.554         39.2212 
        1.38059         281.973         38.8151 
        1.38675         280.792         38.4139 
        1.39288           279.9         38.0199 
        1.39901         277.351         37.6316 
        1.40515         275.971          37.248 
         1.4113         273.972         36.8698 
        1.41742         271.939         36.4984 
        1.42355         270.841         36.1314 
         1.4297         269.025         35.7684 
        1.43585         266.697         35.4105 
        1.44198         265.524          35.059 
        1.44809         264.059         34.7129 
        1.45423         262.407         34.3702 
        1.46036         261.571         34.0328 
        1.46649         259.273         33.6999 
        1.47263         256.989         33.3711 
        1.47877         255.994          33.047 
        1.48491         253.875         32.7266 
        1.49104         251.711         32.4112 
        1.49718         251.023         32.0998 
        1.50333          249.26          31.792 
        1.50947         247.792         31.4888 
         1.5156          246.11         31.1902 
        1.52172         244.477         30.8954 
        1.52787         242.809         30.6038 
          1.534          242.42         30.3164 
        1.54013         240.162          30.033 
        1.54627         238.647         29.7528 
        1.55241          237.77         29.4761 
        1.55855         235.863         29.2033 
        1.56467         234.355         28.9348 
         1.5708         232.954         28.6689 
        1.57695         232.123         28.4059 
        1.58308         230.914         28.1469 
        1.58922         228.815          27.891 
        1.59535         227.189         27.6383 
         1.6015         226.232         27.3885 
        1.60764         224.697         27.1418 
        1.61376         223.169         26.8989 
        1.61989         221.692         26.6588 
        1.62604         220.457         26.4211 
        1.63218         218.815         26.1865 
        1.63831         217.967         25.9552 
        1.64444          216.28         25.7267 
        1.65059         215.415         25.5004 
        1.65673         213.981         25.2771 
        1.66285         212.521         25.0571 
        1.66898         211.178         24.8396 
        1.67512         209.979         24.6244 
        1.68127         208.756         24.4115 
         1.6874         207.187         24.2016 
        1.69353         206.712         23.9943 
        1.69967         205.051         23.7889 
        1.70581         203.763         23.5861 
        1.71193         202.603         23.3864 
        1.71806         200.831         23.1886 
        1.72421         200.197         22.9928 
        1.73035         198.638         22.7994 
        1.73649         197.185         22.6083 
        1.74262         196.477         22.4195 
        1.74876         194.944         22.2328 
        1.75489          194.37         22.0486 
        1.76101         193.232         21.8666 
        1.76715         191.895         21.6864 
        1.77329           190.3          21.508 
        1.77943         189.118         21.3315 
        1.78557         188.186         21.1574 
        1.79171         187.523         20.9851 
        1.79785         185.928         20.8147 
        1.80399          184.93         20.6463 
        1.81012          184.26         20.4799 
        1.81625         182.457         20.3155 
        1.82239         181.865         20.1526 
        1.82853         180.744         19.9917 
        1.83466         179.313         19.8326 
        1.84078         178.504         19.6754 
        1.84692         177.695         19.5198 
        1.85306           176.3         19.3656 
         1.8592         175.615         19.2133 
        1.86533         173.937         19.0627 
        1.87147         173.197         18.9136 
        1.87761         172.144          18.766 
        1.88375         171.001         18.6202 
        1.88988         170.264         18.4761 
        1.89601         169.574         18.3335 
        1.90215         168.507         18.1922 
        1.90829         166.975         18.0526 
        1.91442         166.174         17.9143 
        1.92056         165.186         17.7777 
         1.9267         164.229         17.6423 
        1.93284         162.946         17.5083 
        1.93897         162.252          17.376 
        1.94509         161.535         17.2453 
        1.95123         160.557         17.1156 
        1.95737         159.934         16.9871 
        1.96349         158.573         16.8604 
        1.96964         157.579         16.7345 
        1.97578         156.783         16.6099 
        1.98192         156.235         16.4868 
        1.98805         155.105          16.365 
        1.99419         154.147         16.2444 
        2.00033         153.311         16.1249 
        2.00647         151.992         16.0067 
         2.0126         151.388         15.8899 
        2.01874         150.541          15.774 
        2.02488         149.681         15.6593 
        2.03101         149.025         15.5459 
        2.03714         148.483         15.4337 
        2.04328         147.071         15.3225 
        2.04941         146.377         15.2125 
        2.05554         145.482         15.1037 
        2.06167         144.882         14.9958 
        2.06781           144.1         14.8889 
        2.07396           142.9         14.7829 
        2.08009         142.447         14.6782 
        2.08622         141.634         14.5745 
        2.09237         140.378         14.4717 
        2.09851         139.928         14.3699 
        2.10464         139.234         14.2692 
        2.11077          138.54         14.1696 
        2.11691         137.673         14.0708 
        2.12305         136.687         13.9729 
        2.12918         135.974         13.8761 
        2.13531         135.026         13.7803 
        2.14145         134.429         13.6851 
         2.1476         133.478         13.5908 
        2.15372         132.867         13.4978 
        2.15985         132.233         13.4056 
        2.16599         131.392          13.314 
        2.17213         130.526         13.2233 
        2.17827          130.04         13.1335 
         2.1844         129.076         13.0447 
        2.19054         128.428         12.9566 
        2.19666         127.709         12.8695 
         2.2028         127.103         12.7831 
        2.20893         126.398         12.6974 
        2.21508         125.517         12.6125 
        2.22122         124.669         12.5283 
        2.22736         124.363          12.445 
        2.23349         123.649         12.3625 
        2.23962         122.979         12.2808 
        2.24577         122.006         12.1997 
         2.2519         121.267         12.1194 
        2.25802         120.963           12.04 
        2.26417         120.211         11.9611 
        2.27031          119.47         11.8829 
        2.27644         118.804         11.8055 
        2.28257         118.411         11.7289 
        2.28872         117.582         11.6528 
        2.29486         116.907         11.5774 
        2.30099         115.977         11.5028 
        2.30712         115.669         11.4289 
        2.31326         114.809         11.3554 
         2.3194         114.348         11.2827 
        2.32553         113.705         11.2107 
        2.33166          113.29         11.1394 
         2.3378         112.465         11.0686 
        2.34394         111.775         10.9984 
        2.35007         111.111         10.9289 
        2.35619         110.603         10.8602 
        2.36233         110.249         10.7918 
        2.36848         109.609         10.7239 
        2.37462         109.067         10.6567 
        2.38075         108.397         10.5902 
        2.38689         107.771         10.5241 
        2.39303         107.296         10.4587 
        2.39916          106.67         10.3939 
        2.40529         105.976         10.3296 
        2.41143          105.36         10.2658 
        2.41757          104.73         10.2026 
         2.4237         104.227           10.14 
        2.42983         103.788         10.0779 
        2.43598         103.066         10.0162 
        2.44211         102.546          9.9551 
        2.44823         102.129         9.89465 
        2.45437         101.632         9.83455 
        2.46052         100.904          9.7749 
        2.46665         100.516         9.71584 
        2.47279          99.897          9.6573 
        2.47892         99.4265          9.5992 
        2.48507         98.9405         9.54153 
         2.4912         98.3265         9.48445 
