# k  (h/Mpc)    Pcb(k)  (Mpc/h)^3    Pcb_linear(k)  (Mpc/h)^3
     0.00783031         656.268         661.097 
       0.013688         822.333         830.037 
       0.019231         852.724         855.955 
      0.0249154         809.734          809.79 
      0.0312784         720.931         721.568 
      0.0375637         629.832         631.034 
      0.0433917         560.614         559.725 
      0.0492413         504.014          504.39 
      0.0555754         461.168         460.078 
      0.0619321         423.086         425.606 
       0.067871         396.118         396.618 
      0.0738098         366.852         367.029 
      0.0800417          334.64         334.144 
      0.0862327         300.731         300.853 
      0.0921407         270.671         270.798 
      0.0982031         244.574         243.868 
       0.104506         220.836         221.329 
       0.110769         204.097         204.365 
       0.116806         192.784         192.036 
       0.122832         181.919         182.083 
       0.129052         172.998         172.645 
       0.135211         163.726         162.961 
       0.141259         152.925         152.696 
       0.147318         141.582         141.909 
       0.153489         131.282         131.068 
       0.159709         121.713         121.053 
       0.165845         112.352         112.592 
       0.171974         106.639         105.712 
       0.178125         101.046         100.201 
       0.184229         96.0653         95.7036 
        0.19034         92.6137         91.6914 
       0.196428         88.5714         87.7751 
       0.202534         83.7783         83.6906 
       0.208729         80.0672         79.3485 
       0.214876         76.0899         74.9715 
       0.220989         71.1421         70.7581 
       0.227147         68.0676         66.8542 
        0.23329         64.7365         63.4222 
       0.239377         61.9311         60.4975 
       0.245482         59.2442          57.971 
       0.251667         56.6787         55.7043 
       0.257832         55.0387         53.6011 
       0.263955         52.6073          51.559 
       0.270079          50.561         49.5077 
        0.27624         48.2587         47.4314 
       0.282372         46.3156         45.3902 
        0.28843         44.8538         43.4519 
       0.294538         42.9196         41.6248 
       0.300721         40.9862         39.9353 
        0.30691         39.8005         38.4056 
       0.313033         38.2973         37.0313 
       0.319153         37.3868         35.7603 
       0.325316         35.6943         34.5483 
        0.33145         34.4981           33.38 
       0.337538         33.4478         32.2437 
       0.343633         32.4426         31.1269 
       0.349808         31.2646         30.0263 
       0.355968         30.1739         28.9715 
       0.362074         29.3873         27.9803 
       0.368217         28.4046         27.0446 
       0.374374         27.7298         26.1671 
       0.380519         26.6454         25.3463 
       0.386598         25.8076         24.5783 
       0.392688         25.0287         23.8431 
        0.39888         24.4347         23.1227 
       0.405048         23.7767         22.4267 
       0.411186         23.0714         21.7548 
       0.417313         22.4165         21.1059 
       0.423458         21.6877         20.4791 
       0.429607         21.2525         19.8787 
       0.435692          20.766         19.3121 
       0.441815         20.0458         18.7685 
       0.447964         19.4311         18.2481 
       0.454126         19.0588         17.7492 
       0.460267         18.7357         17.2714 
       0.466387         18.1808         16.8121 
        0.47254         17.8117         16.3657 
       0.478662         17.3051         15.9358 
       0.484765         16.8972         15.5212 
       0.490885         16.4173         15.1198 
       0.497035         16.0047         14.7312 
       0.503198         15.6884         14.3564 
       0.509342         15.2443         13.9969 
       0.515458         14.9889         13.6525 
       0.521598          14.646         13.3194 
       0.527764         14.3984         12.9964 
       0.533884         13.9604         12.6863 
           0.54         13.7016         12.3864 
       0.546137         13.3111         12.0949 
       0.552299         13.0652         11.8114 
       0.558452         12.7822         11.5374 
       0.564573         12.5645         11.2735 
       0.570708         12.2837         11.0175 
       0.576825         12.0427         10.7706 
       0.582926         11.7804         10.5324 
       0.589034         11.5686         10.3013 
       0.595184         11.3918         10.0758 
       0.601379         11.0926         9.85556 
       0.607522         10.8816         9.64371 
       0.613639         10.6358         9.43899 
       0.619772         10.4789         9.23972 
       0.625918         10.2607         9.04582 
       0.632068         10.1114         8.85742 
       0.638161          9.9064         8.67613 
         0.6443         9.71214         8.49873 
       0.650464         9.49497         8.32578 
       0.656582         9.40197         8.15899 
       0.662703         9.24561         7.99682 
       0.668861         9.00055          7.8382 
       0.675024         8.85702         7.68379 
       0.681124         8.82037         7.53513 
       0.687237         8.61176         7.39012 
       0.693381         8.39377         7.24829 
       0.699536         8.33097         7.10998 
       0.705665         8.17721         6.97593 
       0.711789          8.0008         6.84551 
       0.717957         7.85005         6.71758 
        0.72409         7.75616         6.59369 
       0.730186         7.68212         6.47372 
       0.736317         7.51076         6.35611 
       0.742472         7.41512         6.24103 
       0.748622         7.30135         6.12894 
        0.75476         7.12472         6.01988 
       0.760888          7.0622         5.91367 
       0.767043         6.89616         5.80963 
       0.773185         6.81445         5.70835 
       0.779291         6.77077         5.61009 
       0.785407         6.63302         5.51403 
       0.791564         6.54304         5.41965 
       0.797719         6.42595         5.32756 
       0.803834         6.34984         5.23822 
       0.809972         6.24009         5.15064 
       0.816124         6.15755         5.06489 
       0.822261         6.07509         4.98134 
       0.828378          5.9788         4.89996 
       0.834502         5.90232         4.82034 
       0.840667         5.83865           4.742 
       0.846816         5.72842         4.66564 
       0.852925         5.65366         4.59146 
       0.859047         5.57765         4.51876 
       0.865192           5.501          4.4474 
       0.871341         5.42466         4.37756 
       0.877463         5.34575         4.30955 
       0.883569         5.28432         4.24317 
       0.889708         5.21528         4.17786 
       0.895864         5.14667         4.11377 
       0.902008         5.06516         4.05117 
       0.908149         5.00346         3.98993 
       0.914301         4.95146         3.92986 
       0.920448          4.8881          3.8711 
       0.926574         4.85157         3.81376 
       0.932687         4.77035         3.75771 
       0.938823         4.69033         3.70259 
       0.944975         4.65412         3.64847 
       0.951105         4.56869         3.59563 
       0.957225         4.53404         3.54394 
       0.963368         4.48664          3.4931 
       0.969511         4.43403         3.44327 
       0.975621         4.37013         3.39468 
       0.981748         4.29236         3.34692 
       0.987916         4.25471         3.29979 
        0.99406         4.22537         3.25375 
        1.00019         4.17313         3.20869 
        1.00632         4.13229         3.16454 
        1.01246         4.07146         3.12116 
        1.01859         4.02615         3.07867 
        1.02471         3.96281         3.03703 
        1.03085         3.93397         2.99603 
        1.03698         3.89225         2.95588 
        1.04314         3.85234          2.9163 
        1.04929         3.80392         2.87755 
        1.05541         3.75339         2.83966 
        1.06154         3.72568         2.80237 
        1.06769         3.69927          2.7657 
        1.07382         3.63913         2.72982 
        1.07993         3.59372         2.69465 
        1.08607         3.56975         2.65997 
        1.09222          3.5188         2.62587 
        1.09836         3.50695         2.59241 
        1.10449         3.43583         2.55958 
        1.11063         3.41171         2.52728 
        1.11677         3.38252         2.49556 
         1.1229         3.33805         2.46444 
        1.12903         3.31782         2.43383 
        1.13518         3.26854         2.40372 
        1.14131         3.23902         2.37413 
        1.14745          3.2029         2.34507 
        1.15359         3.17372         2.31648 
        1.15973         3.13922         2.28837 
        1.16584         3.10917         2.26085 
        1.17197         3.07403         2.23375 
        1.17811          3.0438         2.20702 
        1.18424         3.01377          2.1808 
        1.19038         2.98423         2.15494 
        1.19652         2.96319          2.1295 
        1.20267         2.93839         2.10449 
        1.20881         2.90279         2.07988 
        1.21495         2.87754         2.05571 
        1.22108         2.85307         2.03193 
         1.2272          2.8123         2.00858 
        1.23334         2.80163         1.98555 
        1.23949         2.77101         1.96283 
        1.24562         2.74668         1.94053 
        1.25174         2.72479         1.91862 
        1.25789         2.68949         1.89698 
        1.26402         2.66318         1.87571 
        1.27014         2.63864         1.85483 
        1.27628         2.61764          1.8342 
        1.28244         2.59742         1.81385 
        1.28858         2.57302         1.79384 
        1.29471          2.5414         1.77418 
        1.30084         2.52352         1.75483 
        1.30697         2.50754         1.73574 
        1.31312         2.48381         1.71692 
        1.31925         2.46154         1.69843 
        1.32537         2.44317         1.68024 
        1.33151         2.41663         1.66225 
        1.33765         2.39863         1.64453 
        1.34378         2.37839         1.62711 
        1.34992         2.36095         1.60994 
        1.35606         2.33941         1.59297 
         1.3622         2.32177         1.57628 
        1.36833         2.29657         1.55988 
        1.37445         2.27688         1.54371 
        1.38059         2.25903         1.52773 
        1.38675         2.24128         1.51193 
        1.39288         2.22726         1.49643 
        1.39901         2.20349         1.48115 
        1.40515         2.18528         1.46605 
         1.4113         2.17423         1.45116 
        1.41742         2.14854         1.43654 
        1.42355         2.12966          1.4221 
         1.4297         2.12016         1.40781 
        1.43585         2.09994         1.39373 
        1.44198           2.084         1.37989 
        1.44809          2.0695         1.36627 
        1.45423         2.05394         1.35278 
        1.46036          2.0381          1.3395 
        1.46649         2.01279          1.3264 
        1.47263         2.00659         1.31346 
        1.47877          1.9958          1.3007 
        1.48491         1.96963         1.28809 
        1.49104         1.95999         1.27568 
        1.49718         1.94265         1.26342 
        1.50333         1.92849          1.2513 
        1.50947         1.91611         1.23937 
         1.5156         1.90047         1.22762 
        1.52172         1.88813         1.21601 
        1.52787         1.87274         1.20454 
          1.534         1.86208         1.19323 
        1.54013         1.84489         1.18207 
        1.54627         1.83164         1.17104 
        1.55241         1.81498         1.16015 
        1.55855         1.80482         1.14942 
        1.56467         1.79209         1.13885 
         1.5708         1.77894         1.12838 
        1.57695         1.76274         1.11803 
        1.58308         1.74841         1.10784 
        1.58922         1.74323         1.09776 
        1.59535         1.72406         1.08782 
         1.6015         1.71148         1.07799 
        1.60764          1.7028         1.06828 
        1.61376         1.68791         1.05872 
        1.61989         1.67844         1.04927 
        1.62604         1.66199         1.03991 
        1.63218         1.65781         1.03068 
        1.63831         1.64422         1.02157 
        1.64444         1.63166         1.01258 
        1.65059         1.62361         1.00367 
        1.65673         1.60798        0.994884 
        1.66285         1.59802        0.986225 
        1.66898          1.5901        0.977666 
        1.67512         1.57353        0.969193 
        1.68127         1.56295        0.960814 
         1.6874         1.55938        0.952553 
        1.69353         1.54341        0.944394 
        1.69967         1.53501        0.936312 
        1.70581         1.52883        0.928329 
        1.71193         1.51149        0.920469 
        1.71806         1.50422        0.912685 
        1.72421         1.49648        0.904975 
        1.73035          1.4806        0.897364 
        1.73649         1.47956        0.889842 
        1.74262         1.46559        0.882413 
        1.74876         1.45603        0.875065 
        1.75489         1.44792        0.867815 
        1.76101         1.43499        0.860651 
        1.76715         1.42829        0.853558 
        1.77329         1.41966        0.846536 
        1.77943         1.41095        0.839591 
        1.78557         1.40452        0.832735 
        1.79171         1.39551        0.825955 
        1.79785         1.38545        0.819249 
        1.80399         1.37527        0.812619 
        1.81012         1.36684        0.806072 
        1.81625         1.35687        0.799601 
        1.82239         1.35033        0.793191 
        1.82853         1.34194        0.786855 
        1.83466         1.33186        0.780594 
        1.84078          1.3238        0.774409 
        1.84692         1.31737        0.768281 
        1.85306         1.31212        0.762212 
         1.8592         1.30039        0.756218 
        1.86533         1.29441        0.750293 
        1.87147         1.28306        0.744424 
        1.87761         1.27835        0.738616 
        1.88375         1.27035        0.732877 
        1.88988         1.26185        0.727205 
        1.89601         1.25442        0.721591 
        1.90215         1.24797        0.716031 
        1.90829          1.2412        0.710534 
        1.91442         1.23258        0.705093 
        1.92056         1.22817        0.699715 
         1.9267         1.22036        0.694388 
        1.93284          1.2109        0.689113 
        1.93897         1.20405        0.683903 
        1.94509         1.19997        0.678759 
        1.95123         1.18951        0.673655 
        1.95737         1.18474          0.6686 
        1.96349         1.17738         0.66361 
        1.96964         1.17283        0.658657 
        1.97578         1.16223        0.653752 
        1.98192         1.15616        0.648908 
        1.98805         1.15084        0.644112 
        1.99419         1.14481        0.639365 
        2.00033         1.13877        0.634663 
        2.00647         1.13287        0.630011 
         2.0126         1.12822        0.625412 
        2.01874         1.12043        0.620854 
        2.02488         1.11197        0.616336 
        2.03101         1.10713        0.611873 
        2.03714         1.10274        0.607457 
        2.04328         1.09468        0.603081 
        2.04941         1.08867        0.598752 
        2.05554          1.0833        0.594468 
        2.06167         1.07754        0.590221 
        2.06781         1.06969        0.586014 
        2.07396         1.06709        0.581843 
        2.08009         1.06025         0.57772 
        2.08622          1.0544        0.573642 
        2.09237         1.04964        0.569596 
        2.09851          1.0426        0.565588 
        2.10464         1.03939        0.561625 
        2.11077         1.03138        0.557705 
        2.11691          1.0265        0.553814 
        2.12305         1.02343         0.54996 
        2.12918         1.01526        0.546153 
        2.13531         1.01071        0.542381 
        2.14145         1.00523        0.538636 
         2.1476         1.00131        0.534922 
        2.15372        0.995062        0.531262 
        2.15985        0.989902        0.527633 
        2.16599        0.986331        0.524027 
        2.17213        0.980482         0.52046 
        2.17827        0.973917        0.516926 
         2.1844          0.9705        0.513428 
        2.19054        0.965495        0.509962 
        2.19666        0.961429        0.506533 
         2.2028        0.955534        0.503132 
        2.20893        0.951095        0.499761 
        2.21508        0.946177        0.496417 
        2.22122         0.94312        0.493103 
        2.22736        0.934591        0.489826 
        2.23349        0.931061         0.48658 
        2.23962        0.927971        0.483362 
        2.24577         0.92287         0.48017 
         2.2519        0.917869        0.477012 
        2.25802         0.91564        0.473887 
        2.26417        0.908516        0.470781 
        2.27031         0.90531        0.467701 
        2.27644        0.902193        0.464657 
        2.28257        0.894949        0.461641 
        2.28872        0.893681        0.458646 
        2.29486        0.887474        0.455678 
        2.30099        0.883771        0.452742 
        2.30712         0.88015        0.449832 
        2.31326        0.875943        0.446942 
         2.3194        0.871804        0.444079 
        2.32553         0.86659        0.441246 
        2.33166        0.864388        0.438439 
         2.3378        0.859356        0.435653 
        2.34394        0.855393         0.43289 
        2.35007         0.84921        0.430155 
        2.35619        0.845828        0.427447 
        2.36233        0.842085        0.424757 
        2.36848        0.840298        0.422084 
        2.37462         0.83619        0.419439 
        2.38075        0.830823         0.41682 
        2.38689        0.828154        0.414222 
        2.39303        0.824086        0.411646 
        2.39916        0.820054        0.409094 
        2.40529        0.818414        0.406565 
        2.41143        0.811371        0.404055 
        2.41757        0.809625        0.401566 
         2.4237        0.805457        0.399102 
        2.42983        0.801106        0.396659 
        2.43598        0.798495         0.39423 
        2.44211        0.793997        0.391825 
        2.44823        0.791431        0.389446 
        2.45437        0.788508        0.387081 
        2.46052        0.785318        0.384733 
        2.46665        0.781175        0.382409 
        2.47279        0.777528        0.380104 
        2.47892        0.774089        0.377818 
        2.48507        0.772153        0.375548 
         2.4912         0.76711        0.373301 
