#  k  (h/Mpc)          P(k)  (Mpc/h)^3     P_linear(k) (Mpc/h)^3
     0.00783031         6366.63         6440.82 
       0.013688         8454.02         8416.85 
       0.019231         8953.29         8951.01 
      0.0249154         8563.72         8693.58 
      0.0312784         7860.07         7926.77 
      0.0375637         7025.29         7040.17 
      0.0433917         6201.08         6295.56 
      0.0492413          5653.3         5695.97 
      0.0555754         5087.23         5212.46 
      0.0619321         4844.65         4850.67 
       0.067871         4461.75         4565.27 
      0.0738098         4179.33          4283.2 
      0.0800417         3827.74          3963.4 
      0.0862327         3527.44         3620.87 
      0.0921407         3235.15          3289.5 
      0.0982031         2908.52         2970.96 
       0.104506         2693.01         2686.24 
       0.110769         2470.32         2461.75 
       0.116806         2292.22         2298.41 
       0.122832         2183.59         2175.52 
       0.129052         2046.55          2073.4 
       0.135211         1956.18         1979.56 
       0.141259         1880.65         1882.12 
       0.147318         1785.13         1774.22 
       0.153489         1652.18          1655.8 
       0.159709         1556.73         1535.07 
       0.165845         1480.45          1423.3 
       0.171974          1378.9         1325.78 
       0.178125            1305         1245.31 
       0.184229         1249.89         1182.01 
        0.19034            1172         1131.51 
       0.196428         1153.49          1088.8 
       0.202534          1120.6         1048.37 
       0.208729         1071.25         1005.87 
       0.214876          1019.2         960.431 
       0.220989         990.587         912.474 
       0.227147         935.407         863.447 
        0.23329         896.106         816.486 
       0.239377         874.049         774.136 
       0.245482         816.388         737.111 
       0.251667         807.375         705.307 
       0.257832         779.412         678.399 
       0.263955         754.641         654.866 
       0.270079         730.718         632.873 
        0.27624         722.807         610.946 
       0.282372         693.064         588.568 
        0.28843         676.449          565.85 
       0.294538          645.85         542.752 
       0.300721         641.378         519.951 
        0.30691         612.099         498.431 
       0.313033         599.561         478.965 
       0.319153         580.418         461.471 
       0.325316           564.1         445.701 
        0.33145         548.681         431.427 
       0.337538         542.661         418.189 
       0.343633         525.902         405.395 
       0.349808         510.082         392.609 
       0.355968         504.995         379.878 
       0.362074          494.24         367.354 
       0.368217          481.35         355.013 
       0.374374          464.23         343.113 
       0.380519         458.626         331.895 
       0.386598         448.281         321.521 
       0.392688         444.993         311.869 
        0.39888          432.71         302.712 
       0.405048         424.692          294.11 
       0.411186         416.234         285.927 
       0.417313         409.033         277.999 
       0.423458         402.203          270.22 
       0.429607         393.428         262.596 
       0.435692         383.951         255.225 
       0.441815         381.674         248.031 
       0.447964         374.736         241.091 
       0.454126         361.563         234.452 
       0.460267         357.763         228.161 
       0.466387         353.757         222.208 
        0.47254         346.651           216.5 
       0.478662         344.963          211.05 
       0.484765         335.743         205.807 
       0.490885         331.632         200.708 
       0.497035         326.735          195.72 
       0.503198         319.603         190.853 
       0.509342         316.957         186.143 
       0.515458          313.12         181.606 
       0.521598         308.576         177.207 
       0.527764         303.342         172.953 
       0.533884         300.025         168.894 
           0.54          296.08         164.994 
       0.546137          294.88         161.218 
       0.552299          289.35         157.551 
       0.558452         285.838         154.004 
       0.564573         281.197          150.58 
       0.570708         276.847         147.243 
       0.576825          273.45         144.009 
       0.582926         270.507         140.875 
       0.589034         266.954          137.83 
       0.595184         264.734         134.859 
       0.601379         262.384         131.964 
       0.607522         257.171         129.182 
       0.613639         256.378         126.498 
       0.619772         250.511         123.887 
       0.625918          248.91         121.347 
       0.632068         245.983         118.879 
       0.638161         244.836           116.5 
         0.6443         240.853         114.168 
       0.650464         238.775         111.889 
       0.656582         237.193         109.688 
       0.662703         234.091         107.546 
       0.668861         230.934          105.45 
       0.675024         228.595         103.411 
       0.681124         227.635         101.449 
       0.687237         224.012         99.5359 
       0.693381         221.171         97.6645 
       0.699536           219.7         95.8386 
       0.705665         219.569         94.0674 
       0.711789         215.258         92.3427 
       0.717957          214.38         90.6496 
        0.72409          211.86         89.0089 
       0.730186         208.815         87.4192 
       0.736317         207.765         85.8604 
       0.742472         206.597         84.3345 
       0.748622         205.155         82.8478 
        0.75476         203.386         81.4008 
       0.760888         200.632         79.9911 
       0.767043         199.511         78.6097 
       0.773185         197.496         77.2644 
       0.779291         194.705         75.9587 
       0.785407          193.95         74.6817 
       0.791564         192.201         73.4266 
       0.797719         189.944         72.2013 
       0.803834         189.213         71.0123 
       0.809972         186.987         69.8462 
       0.816124          187.04         68.7041 
       0.822261         184.503          67.591 
       0.828378         183.002         66.5063 
       0.834502         182.599         65.4449 
       0.840667          179.98            64.4 
       0.846816         178.968         63.3812 
       0.852925         177.377         62.3912 
       0.859047         175.748         61.4205 
       0.865192         175.001         60.4675 
       0.871341         173.114         59.5344 
       0.877463         172.006         58.6255 
       0.883569         170.488          57.738 
       0.889708         169.589         56.8646 
       0.895864         167.929         56.0073 
       0.902008          166.99         55.1697 
       0.908149         166.173         54.3499 
       0.914301         164.361         53.5456 
       0.920448         163.454         52.7585 
       0.926574         162.556         51.9903 
       0.932687         161.555         51.2391 
       0.938823         159.678         50.5003 
       0.944975         158.636         49.7745 
       0.951105         157.746         49.0658 
       0.957225         155.848         48.3722 
       0.963368         155.051         47.6899 
       0.969511         154.412         47.0208 
       0.975621         153.767         46.3684 
       0.981748          152.82         45.7268 
       0.987916         151.093         45.0935 
        0.99406         150.566         44.4747 
        1.00019         149.409         43.8689 
        1.00632         148.477         43.2751 
        1.01246         147.426         42.6915 
        1.01859         145.854         42.1198 
        1.02471         146.087         41.5594 
        1.03085         144.587         41.0074 
        1.03698         143.322         40.4667 
        1.04314         142.381         39.9336 
        1.04929         141.586         39.4114 
        1.05541         140.781         38.9008 
        1.06154         139.865         38.3982 
        1.06769         139.537         37.9037 
        1.07382          138.81         37.4197 
        1.07993         137.805         36.9454 
        1.08607         136.653         36.4774 
        1.09222         135.958         36.0171 
        1.09836         134.915         35.5654 
        1.10449         134.174          35.122 
        1.11063         133.457         34.6858 
        1.11677         132.826         34.2572 
         1.1229         131.518         33.8367 
        1.12903         130.628          33.423 
        1.13518         130.795         33.0159 
        1.14131         129.533         32.6159 
        1.14745         128.614         32.2228 
        1.15359         127.914         31.8361 
        1.15973         127.571         31.4558 
        1.16584         126.542         31.0834 
        1.17197         125.782         30.7165 
        1.17811         125.131         30.3545 
        1.18424         124.168         29.9995 
        1.19038         123.638         29.6491 
        1.19652          123.01         29.3046 
        1.20267         122.106         28.9655 
        1.20881         121.474          28.632 
        1.21495         120.639         28.3043 
        1.22108         119.987         27.9818 
         1.2272         119.304         27.6651 
        1.23334         118.702         27.3527 
        1.23949         117.589         27.0444 
        1.24562         117.541         26.7418 
        1.25174         116.587         26.4443 
        1.25789         116.017         26.1505 
        1.26402          115.56         25.8618 
        1.27014         114.537         25.5781 
        1.27628         114.253         25.2979 
        1.28244         113.346         25.0214 
        1.28858         112.819         24.7494 
        1.29471         112.129         24.4821 
        1.30084         111.518         24.2191 
        1.30697         110.842         23.9596 
        1.31312           110.5         23.7035 
        1.31925         109.929         23.4521 
        1.32537          109.43         23.2045 
        1.33151         108.388         22.9597 
        1.33765          107.87         22.7186 
        1.34378         107.203         22.4815 
        1.34992          106.99         22.2476 
        1.35606         106.367         22.0166 
         1.3622         105.468         21.7893 
        1.36833         105.273         21.5657 
        1.37445         104.459         21.3455 
        1.38059         103.871         21.1276 
        1.38675         103.317         20.9124 
        1.39288         102.721         20.7009 
        1.39901         102.575         20.4926 
        1.40515         102.071         20.2867 
         1.4113          101.02         20.0837 
        1.41742          100.86         19.8842 
        1.42355         100.099         19.6872 
         1.4297         99.6421         19.4922 
        1.43585         99.0195            19.3 
        1.44198         98.7842         19.1111 
        1.44809         97.9992         18.9251 
        1.45423         97.5692          18.741 
        1.46036         97.1505         18.5596 
        1.46649         96.6014         18.3806 
        1.47263         96.2089         18.2038 
        1.47877         95.8161         18.0295 
        1.48491         95.1646         17.8572 
        1.49104         94.6216         17.6875 
        1.49718         94.1838         17.5199 
        1.50333         93.6437         17.3543 
        1.50947         92.9782         17.1911 
         1.5156         92.8739         17.0303 
        1.52172         92.1978         16.8716 
        1.52787         91.9833         16.7146 
          1.534         91.5544         16.5598 
        1.54013         90.8037         16.4072 
        1.54627         90.3915         16.2562 
        1.55241         89.8742         16.1071 
        1.55855         89.4895         15.9601 
        1.56467         88.9076         15.8153 
         1.5708         88.5837          15.672 
        1.57695         88.2916         15.5302 
        1.58308         87.6186         15.3905 
        1.58922         87.4181         15.2525 
        1.59535         87.0574         15.1162 
         1.6015         86.4011         14.9814 
        1.60764         86.1556         14.8484 
        1.61376         85.5741         14.7173 
        1.61989         85.1475         14.5877 
        1.62604         84.7266         14.4594 
        1.63218         84.5338         14.3328 
        1.63831         83.9814         14.2079 
        1.64444          83.649         14.0845 
        1.65059         82.8713         13.9623 
        1.65673         82.7035         13.8417 
        1.66285         82.3378         13.7229 
        1.66898         81.8774         13.6054 
        1.67512         81.3346         13.4891 
        1.68127         80.9587          13.374 
         1.6874         80.6468         13.2606 
        1.69353         80.2797         13.1485 
        1.69967         79.8196         13.0375 
        1.70581         79.5983         12.9278 
        1.71193         79.2251         12.8198 
        1.71806         78.5639         12.7129 
        1.72421         78.4722         12.6069 
        1.73035          77.905         12.5023 
        1.73649          77.502         12.3989 
        1.74262         77.2169         12.2967 
        1.74876         76.8805         12.1957 
        1.75489          76.365          12.096 
        1.76101          76.136         11.9974 
        1.76715         75.6482         11.8999 
        1.77329         75.3605         11.8033 
        1.77943         75.0551         11.7077 
        1.78557          74.712         11.6134 
        1.79171          74.272           11.52 
        1.79785         74.0556         11.4277 
        1.80399         73.5405         11.3365 
        1.81012         73.3529         11.2463 
        1.81625         72.7583         11.1572 
        1.82239         72.4473         11.0689 
        1.82853         72.0384         10.9817 
        1.83466         71.7874         10.8954 
        1.84078         71.2383         10.8102 
        1.84692         71.0492         10.7258 
        1.85306         70.7812         10.6421 
         1.8592         70.2963         10.5595 
        1.86533         69.9556         10.4779 
        1.87147         69.6587          10.397 
        1.87761         69.3614         10.3169 
        1.88375         69.2256         10.2378 
        1.88988         68.9337         10.1596 
        1.89601         68.3569         10.0822 
        1.90215         68.1033         10.0055 
        1.90829         67.8621         9.92968 
        1.91442         67.4363         9.85464 
        1.92056         67.1554         9.78044 
         1.9267          66.716         9.70694 
        1.93284         66.3776         9.63415 
        1.93897         66.1482         9.56225 
        1.94509         65.6955         9.49124 
        1.95123         65.5549         9.42078 
        1.95737         65.3114         9.35099 
        1.96349         64.9503         9.28209 
        1.96964         64.6659         9.21369 
        1.97578         64.2909         9.14595 
        1.98192         64.0879         9.07904 
        1.98805         63.8388         9.01279 
        1.99419         63.4182          8.9472 
        2.00033         63.1053         8.88224 
        2.00647          62.905         8.81795 
         2.0126         62.4815         8.75441 
        2.01874         62.1774         8.69139 
        2.02488         62.0213         8.62895 
        2.03101           61.63         8.56725 
        2.03714         61.3141          8.5062 
        2.04328         61.0211         8.44569 
        2.04941         60.7205         8.38582 
        2.05554         60.3725         8.32658 
        2.06167         60.3237         8.26783 
        2.06781         59.9036         8.20964 
        2.07396         59.5672         8.15194 
        2.08009         59.4185         8.09489 
        2.08622         58.9761         8.03846 
        2.09237         58.7964         7.98246 
        2.09851         58.4546         7.92699 
        2.10464         58.2061         7.87213 
        2.11077         58.0393         7.81787 
        2.11691         57.6437           7.764 
        2.12305          57.298         7.71064 
        2.12918          57.082         7.65792 
        2.13531         56.8476         7.60568 
        2.14145         56.5957         7.55382 
         2.1476         56.4105         7.50238 
        2.15372         56.0399         7.45169 
        2.15985          55.862         7.40141 
        2.16599         55.6061         7.35146 
        2.17213         55.4842         7.30202 
        2.17827         55.0608         7.25306 
         2.1844         54.6713         7.20459 
        2.19054         54.5004         7.15655 
        2.19666         54.3214         7.10902 
         2.2028          54.109         7.06188 
        2.20893         53.8598         7.01515 
        2.21508         53.6346         6.96879 
        2.22122          53.324         6.92284 
        2.22736         53.0014          6.8774 
        2.23349         52.8455         6.83238 
        2.23962         52.5468         6.78774 
        2.24577         52.2929         6.74347 
         2.2519          52.077         6.69965 
        2.25802         51.9752         6.65629 
        2.26417         51.5687          6.6132 
        2.27031         51.3731         6.57046 
        2.27644         51.0263         6.52822 
        2.28257         50.9142         6.48635 
        2.28872         50.5388         6.44478 
        2.29486         50.3784         6.40358 
        2.30099         50.1746         6.36283 
        2.30712         49.9506         6.32241 
        2.31326         49.7246         6.28228 
         2.3194          49.486         6.24253 
        2.32553         49.2762         6.20319 
        2.33166         48.9973          6.1642 
         2.3378         48.7635          6.1255 
        2.34394         48.4233         6.08713 
        2.35007         48.2925         6.04913 
        2.35619         48.2235         6.01151 
        2.36233         47.9657         5.97413 
        2.36848         47.6145         5.93698 
        2.37462         47.5465         5.90024 
        2.38075         47.2018         5.86384 
        2.38689         47.0606         5.82771 
        2.39303          46.876          5.7919 
        2.39916         46.6684         5.75643 
        2.40529         46.3467         5.72127 
        2.41143         46.1671         5.68637 
        2.41757         45.9734         5.65175 
         2.4237         45.7951         5.61748 
        2.42983         45.5518          5.5835 
        2.43598         45.3458         5.54972 
        2.44211         45.2065         5.51627 
        2.44823          44.928         5.48317 
        2.45437         44.7593         5.45026 
        2.46052         44.5035         5.41759 
        2.46665         44.3453         5.38524 
        2.47279         44.1668         5.35318 
        2.47892         43.8742         5.32135 
        2.48507         43.7179         5.28976 
         2.4912         43.5137         5.25848 
