# k  (h/Mpc)    Pcb(k)  (Mpc/h)^3    Pcb_linear(k)  (Mpc/h)^3
     0.00783031           11434           11591 
       0.013688         14803.2           14696 
       0.019231         15231.2         15220.7 
      0.0249154         14133.8         14416.6 
      0.0312784         12703.8         12851.7 
      0.0375637         11234.7           11269 
      0.0433917         9851.42         10053.4 
      0.0492413         9031.73         9134.37 
      0.0555754         8127.82         8406.09 
      0.0619321         7781.89         7819.59 
       0.067871         7062.18         7290.81 
      0.0738098         6509.56         6722.44 
      0.0800417         5826.15         6082.82 
      0.0862327         5287.94         5448.29 
      0.0921407         4832.12          4897.4 
      0.0982031         4348.83         4427.25 
       0.104506         4096.79         4053.68 
       0.110769         3812.12         3782.86 
       0.116806          3588.3         3583.72 
       0.122832         3424.65         3409.29 
       0.129052         3177.88         3224.61 
       0.135211         2999.07         3022.54 
       0.141259         2850.02         2808.33 
       0.147318         2673.43          2592.3 
       0.153489         2451.91         2388.53 
       0.159709         2321.71         2213.46 
       0.165845         2238.17         2075.39 
       0.171974         2116.41         1968.03 
       0.178125         2019.65         1881.31 
       0.184229         1941.12         1804.57 
        0.19034         1826.32         1727.48 
       0.196428         1789.32         1645.25 
       0.202534         1720.91         1557.29 
       0.208729         1637.82         1466.38 
       0.214876         1561.91         1380.09 
       0.220989         1512.21         1302.85 
       0.227147         1442.87         1236.16 
        0.23329         1388.98         1180.48 
       0.239377         1367.39         1133.61 
       0.245482         1281.96         1091.49 
       0.251667         1274.22         1050.53 
       0.257832         1225.54         1009.19 
       0.263955         1185.21         966.924 
       0.270079         1144.75         924.171 
        0.27624          1132.2         882.151 
       0.282372         1083.98         842.878 
        0.28843         1072.05         807.621 
       0.294538         1019.54         775.915 
       0.300721         1016.14         747.348 
        0.30691         973.191         721.325 
       0.313033         955.154         697.092 
       0.319153         935.564         673.489 
       0.325316         905.619         649.916 
        0.33145         883.865         626.591 
       0.337538         871.557         603.899 
       0.343633         848.343         582.046 
       0.349808         820.316          561.19 
       0.355968         815.691         541.877 
       0.362074         804.949         524.176 
       0.368217         781.731         507.635 
       0.374374         750.508         491.997 
       0.380519         749.571         477.047 
       0.386598         730.902         462.681 
       0.392688         728.475         448.603 
        0.39888         707.189         434.646 
       0.405048         696.087         421.176 
       0.411186         685.693         408.314 
       0.417313         672.239         396.107 
       0.423458         661.328          384.51 
       0.429607         650.603         373.527 
       0.435692          636.35         363.202 
       0.441815         632.278          353.25 
       0.447964         619.047         343.611 
       0.454126         608.067         334.261 
       0.460267         597.008         325.216 
       0.466387         590.654         316.471 
        0.47254         581.104         307.975 
       0.478662         579.132         299.843 
       0.484765         561.887         292.058 
       0.490885         557.513         284.571 
       0.497035         546.962         277.356 
       0.503198         540.999         270.411 
       0.509342         536.279         263.733 
       0.515458         532.207         257.301 
       0.521598         520.227         251.046 
       0.527764         510.001          244.96 
       0.533884         508.738         239.107 
           0.54         502.116         233.444 
       0.546137         499.954         227.948 
       0.552299           490.8         222.619 
       0.558452         488.468         217.486 
       0.564573         481.045         212.551 
       0.570708         474.656         207.765 
       0.576825         463.488         203.143 
       0.582926         463.392         198.672 
       0.589034         459.262          194.33 
       0.595184         454.955         190.088 
       0.601379          449.32         185.942 
       0.607522         442.839         181.953 
       0.613639         441.943         178.097 
       0.619772         430.765         174.347 
       0.625918         429.933         170.703 
       0.632068         423.735         167.165 
       0.638161         422.212         163.762 
         0.6443         414.423         160.432 
       0.650464         411.962         157.183 
       0.656582         410.394         154.047 
       0.662703         407.819         150.995 
       0.668861         400.532         148.008 
       0.675024          397.23         145.101 
       0.681124         394.831         142.303 
       0.687237          390.92         139.574 
       0.693381          385.81         136.906 
       0.699536         381.569         134.304 
       0.705665         379.374         131.783 
       0.711789         376.558         129.329 
       0.717957          373.45         126.922 
        0.72409         370.384          124.59 
       0.730186         366.425         122.331 
       0.736317         363.077         120.116 
       0.742472         361.758         117.949 
       0.748622         357.698         115.838 
        0.75476         354.089         113.784 
       0.760888         350.136         111.783 
       0.767043         350.717         109.823 
       0.773185         345.973         107.915 
       0.779291         341.081         106.064 
       0.785407         339.943         104.254 
       0.791564         336.025         102.475 
       0.797719         333.693         100.739 
       0.803834         331.215          99.055 
       0.809972         329.594         97.4036 
       0.816124         329.455         95.7868 
       0.822261         324.144         94.2114 
       0.828378         322.256         92.6765 
       0.834502         320.507          91.175 
       0.840667         316.527         89.6974 
       0.846816         315.103         88.2571 
       0.852925         312.816         86.8578 
       0.859047         311.205         85.4863 
       0.865192         308.005         84.1402 
       0.871341         305.564         82.8226 
       0.877463         303.774         81.5394 
       0.883569         302.204         80.2871 
       0.889708         299.377         79.0549 
       0.895864         296.082         77.8457 
       0.902008         295.149         76.6646 
       0.908149         293.511          75.509 
       0.914301         289.927         74.3756 
       0.920448         287.939         73.2667 
       0.926574         285.484         72.1846 
       0.932687         285.844         71.1269 
       0.938823         282.313         70.0868 
       0.944975         281.241         69.0654 
       0.951105         279.152         68.0681 
       0.957225         276.933         67.0925 
       0.963368         273.629         66.1329 
       0.969511         272.445         65.1922 
       0.975621         270.092         64.2751 
       0.981748         270.363         63.3734 
       0.987916         267.631         62.4835 
        0.99406         264.165         61.6142 
        1.00019         264.299         60.7633 
        1.00632         262.292         59.9294 
        1.01246           260.1         59.1101 
        1.01859         260.156         58.3075 
        1.02471         256.724          57.521 
        1.03085          254.34         56.7464 
        1.03698         253.593         55.9878 
        1.04314         251.277         55.2399 
        1.04929         249.587         54.5076 
        1.05541          249.57         53.7917 
        1.06154         246.351         53.0869 
        1.06769         245.825         52.3939 
        1.07382         244.171         51.7155 
        1.07993         242.153         51.0509 
        1.08607         241.417         50.3953 
        1.09222          239.75         49.7506 
        1.09836         237.718         49.1181 
        1.10449         235.386         48.4974 
        1.11063         233.506         47.8868 
        1.11677         233.279         47.2871 
         1.1229         231.511         46.6988 
        1.12903         230.048           46.12 
        1.13518         228.708         45.5507 
        1.14131          226.94         44.9914 
        1.14745         226.608         44.4418 
        1.15359         224.548         43.9015 
        1.15973         223.543           43.37 
        1.16584         221.305         42.8497 
        1.17197         220.974         42.3373 
        1.17811         219.046         41.8318 
        1.18424         217.776          41.336 
        1.19038         217.002          40.847 
        1.19652         215.416         40.3661 
        1.20267         214.778          39.893 
        1.20881         212.682         39.4277 
        1.21495          211.57         38.9705 
        1.22108         210.548         38.5208 
         1.2272         208.795         38.0792 
        1.23334         207.835         37.6437 
        1.23949         206.561         37.2139 
        1.24562         205.591         36.7921 
        1.25174          203.31         36.3776 
        1.25789         202.195         35.9682 
        1.26402         201.236         35.5658 
        1.27014         199.858         35.1707 
        1.27628         198.906         34.7804 
        1.28244          198.57         34.3953 
        1.28858         196.575         34.0166 
        1.29471         194.828         33.6444 
        1.30084         194.187         33.2783 
        1.30697         192.809          32.917 
        1.31312         191.623         32.5606 
        1.31925         191.026         32.2107 
        1.32537         189.824         31.8663 
        1.33151         188.076         31.5258 
        1.33765         187.258         31.1904 
        1.34378         186.299         30.8607 
        1.34992         185.406         30.5355 
        1.35606         184.962         30.2143 
         1.3622         183.381         29.8984 
        1.36833         181.649         29.5877 
        1.37445         180.685         29.2817 
        1.38059         179.715         28.9791 
        1.38675         178.855         28.6801 
        1.39288         177.808         28.3865 
        1.39901         177.639         28.0972 
        1.40515         175.856         27.8113 
         1.4113         174.481         27.5295 
        1.41742         173.771         27.2527 
        1.42355          172.49         26.9793 
         1.4297         171.659         26.7087 
        1.43585         170.317         26.4421 
        1.44198         169.728         26.1801 
        1.44809         168.902         25.9222 
        1.45423          167.63         25.6668 
        1.46036         166.857         25.4153 
        1.46649         165.731         25.1672 
        1.47263         164.799         24.9222 
        1.47877         164.055         24.6805 
        1.48491          162.44         24.4417 
        1.49104         162.292         24.2066 
        1.49718          160.43         23.9744 
        1.50333         159.979          23.745 
        1.50947         159.352          23.519 
         1.5156         158.084         23.2963 
        1.52172         157.181         23.0765 
        1.52787         156.119         22.8591 
          1.534         155.573         22.6448 
        1.54013         154.346         22.4335 
        1.54627         153.758         22.2245 
        1.55241         152.606         22.0182 
        1.55855         151.841         21.8147 
        1.56467         151.035         21.6145 
         1.5708         150.154         21.4162 
        1.57695         149.284         21.2201 
        1.58308         148.656         21.0269 
        1.58922         147.792          20.836 
        1.59535         146.604         20.6476 
         1.6015         146.217         20.4612 
        1.60764         145.234         20.2772 
        1.61376         144.439         20.0961 
        1.61989         143.432          19.917 
        1.62604         142.793         19.7397 
        1.63218          142.03         19.5647 
        1.63831         141.025         19.3922 
        1.64444         140.609         19.2217 
        1.65059         139.841         19.0529 
        1.65673         138.517         18.8864 
        1.66285         138.332         18.7223 
        1.66898         137.394         18.5601 
        1.67512         136.856         18.3995 
        1.68127         135.644         18.2407 
         1.6874         134.496         18.0841 
        1.69353         134.338         17.9294 
        1.69967         133.524         17.7763 
        1.70581         132.739         17.6249 
        1.71193         131.952          17.476 
        1.71806         131.373         17.3284 
        1.72421         130.519         17.1822 
        1.73035         130.148          17.038 
        1.73649          129.29         16.8954 
        1.74262         128.415         16.7545 
        1.74876         128.028         16.6152 
        1.75489         126.788         16.4778 
        1.76101         126.315         16.3419 
        1.76715         125.489         16.2075 
        1.77329         125.283         16.0744 
        1.77943         124.124         15.9427 
        1.78557         123.508         15.8127 
        1.79171          122.83         15.6841 
        1.79785         122.109          15.557 
        1.80399         121.452         15.4313 
        1.81012         120.846         15.3071 
        1.81625         120.094         15.1844 
        1.82239         119.785         15.0629 
        1.82853         119.109         14.9427 
        1.83466         118.217          14.824 
        1.84078         117.806         14.7067 
        1.84692         116.843         14.5905 
        1.85306         116.395         14.4754 
         1.8592         115.592         14.3617 
        1.86533         114.865         14.2493 
        1.87147         114.207          14.138 
        1.87761          113.85         14.0279 
        1.88375         112.812         13.9191 
        1.88988         112.327         13.8115 
        1.89601         111.656          13.705 
        1.90215         111.266         13.5996 
        1.90829         110.574         13.4953 
        1.91442          110.11         13.3921 
        1.92056         109.386         13.2901 
         1.9267         108.961         13.1891 
        1.93284          108.35          13.089 
        1.93897         107.641         12.9902 
        1.94509         107.298         12.8927 
        1.95123         106.613         12.7958 
        1.95737         106.067            12.7 
        1.96349         105.431         12.6053 
        1.96964         104.609         12.5113 
        1.97578         104.216         12.4183 
        1.98192         103.807         12.3264 
        1.98805         102.841         12.2354 
        1.99419         102.566         12.1454 
        2.00033         102.044         12.0562 
        2.00647         101.458         11.9679 
         2.0126         100.855         11.8807 
        2.01874         100.274         11.7942 
        2.02488          99.781         11.7085 
        2.03101         99.1641         11.6238 
        2.03714          98.622           11.54 
        2.04328         98.1818          11.457 
        2.04941          97.603         11.3748 
        2.05554         97.0408         11.2936 
        2.06167         96.5789          11.213 
        2.06781         96.0975         11.1332 
        2.07396         95.4474          11.054 
        2.08009         94.9992         10.9758 
        2.08622         94.6286         10.8984 
        2.09237         93.8882         10.8216 
        2.09851         93.6253         10.7456 
        2.10464         92.9188         10.6704 
        2.11077         92.6572          10.596 
        2.11691         92.2124         10.5222 
        2.12305         91.4829          10.449 
        2.12918           90.97         10.3768 
        2.13531         90.7026         10.3052 
        2.14145         89.8005         10.2341 
         2.1476         89.5121         10.1636 
        2.15372          89.115         10.0942 
        2.15985         88.6475         10.0253 
        2.16599         88.2733         9.95689 
        2.17213         87.6078         9.88919 
        2.17827         87.3148         9.82213 
         2.1844         86.6808         9.75575 
        2.19054         86.5065         9.68997 
        2.19666         85.8905         9.62489 
         2.2028         85.6367         9.56035 
        2.20893         84.9486         9.49638 
        2.21508         84.4387         9.43292 
        2.22122         84.1319         9.37002 
        2.22736         83.6464         9.30783 
        2.23349         83.3448         9.24622 
        2.23962          82.742         9.18514 
        2.24577         82.3617         9.12456 
         2.2519         82.0998         9.06461 
        2.25802         81.4452          9.0053 
        2.26417         81.0261         8.94636 
        2.27031         80.6764         8.88789 
        2.27644         80.2529         8.83011 
        2.28257         79.6898         8.77285 
        2.28872         79.3148           8.716 
        2.29486          78.913         8.65966 
        2.30099         78.4938         8.60394 
        2.30712         78.1566         8.54868 
        2.31326         77.8119         8.49382 
         2.3194         77.3325         8.43948 
        2.32553          76.914          8.3857 
        2.33166         76.4449         8.33242 
         2.3378         76.0493         8.27952 
        2.34394         75.7553         8.22708 
        2.35007         75.2124         8.17516 
        2.35619         74.8103         8.12376 
        2.36233         74.5106         8.07268 
        2.36848         74.1114         8.02193 
        2.37462         73.6982         7.97173 
        2.38075         73.4951         7.92201 
        2.38689         72.9546         7.87267 
        2.39303          72.664         7.82376 
        2.39916         72.2065         7.77532 
        2.40529         71.9984          7.7273 
        2.41143         71.5001         7.67965 
        2.41757         71.2149         7.63238 
         2.4237         70.9122          7.5856 
        2.42983         70.4128         7.53921 
        2.43598         70.1425         7.49309 
        2.44211         69.7499         7.44743 
        2.44823         69.4212         7.40226 
        2.45437         68.9556         7.35734 
        2.46052         68.5992         7.31276 
        2.46665         68.3176         7.26863 
        2.47279         67.9387         7.22487 
        2.47892         67.6082         7.18145 
        2.48507         67.1651         7.13835 
         2.4912         66.9353         7.09569 
