# k  (h/Mpc)    P(k)  (Mpc/h)^3    P_linear(k)  (Mpc/h)^3
     0.00783031         2804.85         2814.21 
       0.013688         3432.58         3398.26 
       0.019231         3419.62         3384.72 
      0.0249154         3092.42         3088.07 
      0.0312784         2667.06            2647 
      0.0375637         2272.24         2244.22 
      0.0433917         1965.97         1954.75 
      0.0492413         1765.33         1748.09 
      0.0555754         1594.49         1593.48 
      0.0619321         1496.26         1474.11 
       0.067871          1370.6         1366.93 
      0.0738098          1252.9         1249.97 
      0.0800417         1115.29         1116.98 
      0.0862327         990.515         985.328 
      0.0921407         882.403         872.638 
      0.0982031         784.695         778.841 
       0.104506         722.434         707.108 
       0.110769         670.737          657.73 
       0.116806         630.631         623.175 
       0.122832         603.488         593.285 
       0.129052         564.939         560.603 
       0.135211         528.202         523.344 
       0.141259         492.235         482.838 
       0.147318         453.856         441.684 
       0.153489         413.064         403.151 
       0.159709          382.59         370.723 
       0.165845          361.65         345.987 
       0.171974         339.381          327.57 
       0.178125         325.335         313.275 
       0.184229         313.193         300.766 
        0.19034         295.015         287.886 
       0.196428         284.701         273.648 
       0.202534         272.125         258.003 
       0.208729         254.498         241.633 
       0.214876         237.697         226.114 
       0.220989         227.065         212.403 
       0.227147          213.12         200.829 
        0.23329         203.818         191.438 
       0.239377         197.423         183.744 
       0.245482         186.891         176.926 
       0.251667         182.965         170.246 
       0.257832         176.082         163.364 
       0.263955         168.766         156.194 
       0.270079         161.555         148.842 
        0.27624          156.55         141.594 
       0.282372          149.76         134.855 
        0.28843         143.112         128.877 
       0.294538         137.248         123.595 
       0.300721         134.247         118.911 
        0.30691         128.316         114.698 
       0.313033         124.559         110.778 
       0.319153         118.879          106.94 
       0.325316         116.672          103.06 
        0.33145         112.115         99.1921 
       0.337538           109.3         95.4057 
       0.343633         105.216         91.7643 
       0.349808         101.906          88.307 
       0.355968         99.1092         85.1311 
       0.362074         95.9225         82.2522 
       0.368217         93.1305         79.5789 
       0.374374         90.3564         77.0669 
       0.380519         88.1387         74.6623 
       0.386598         85.7105         72.3429 
       0.392688         83.9221          70.064 
        0.39888         81.4487         67.7922 
       0.405048           79.41         65.5999 
       0.411186         77.4953         63.5108 
       0.417313         75.0662          61.532 
       0.423458         73.1966         59.6646 
       0.429607         71.2753         57.9047 
       0.435692         68.9486         56.2539 
       0.441815         68.0353          54.667 
       0.447964         66.8578         53.1318 
       0.454126           64.03          51.638 
       0.460267         63.0564         50.1913 
       0.466387         61.4059         48.7936 
        0.47254         60.3916         47.4355 
       0.478662         59.3968         46.1357 
       0.484765         57.6302         44.8952 
       0.490885         56.3938         43.7069 
       0.497035         55.6624         42.5635 
       0.503198         54.1419         41.4639 
       0.509342         52.7727         40.4084 
       0.515458         51.7973         39.3934 
       0.521598         50.9785          38.406 
       0.527764          49.977         37.4439 
       0.533884         49.1268         36.5189 
           0.54          48.066         35.6254 
       0.546137         47.3941         34.7599 
       0.552299          46.655         33.9216 
       0.558452         45.2583         33.1142 
       0.564573         44.5282         32.3391 
       0.570708         43.8937         31.5889 
       0.576825         42.9287         30.8654 
       0.582926         42.0743         30.1663 
       0.589034         41.0661          29.487 
       0.595184         40.5601         28.8231 
       0.601379         39.8818         28.1746 
       0.607522         39.0369         27.5513 
       0.613639         38.7621           26.95 
       0.619772         37.7705         26.3658 
       0.625918         37.5586         25.7984 
       0.632068         36.9633         25.2479 
       0.638161         36.2619         24.7185 
         0.6443          35.586         24.2007 
       0.650464         35.0033          23.696 
       0.656582         34.7524         23.2094 
       0.662703         34.0621         22.7363 
       0.668861         33.4999         22.2737 
       0.675024         32.9572         21.8236 
       0.681124         32.3851         21.3906 
       0.687237         31.8394         20.9685 
       0.693381         31.5978          20.556 
       0.699536         30.8353          20.154 
       0.705665         30.8377         19.7646 
       0.711789         30.0938         19.3861 
       0.717957         29.7263          19.015 
        0.72409          29.313         18.6558 
       0.730186         28.8766         18.3082 
       0.736317         28.6174         17.9675 
       0.742472         28.1112         17.6343 
       0.748622         27.8643           17.31 
        0.75476         27.4113         16.9945 
       0.760888          26.999         16.6874 
       0.767043         26.6977         16.3867 
       0.773185         26.2574         16.0941 
       0.779291         26.1327         15.8104 
       0.785407         25.8335         15.5331 
       0.791564         25.3724         15.2608 
       0.797719         24.8342         14.9953 
       0.803834         24.8085         14.7378 
       0.809972         24.5566         14.4855 
       0.816124         24.0157         14.2385 
       0.822261         23.8278         13.9981 
       0.828378         23.6117         13.7639 
       0.834502         23.3625          13.535 
       0.840667         23.0701         13.3098 
       0.846816         22.6791         13.0904 
       0.852925         22.4736         12.8773 
       0.859047         22.2235         12.6686 
       0.865192         22.0109         12.4639 
       0.871341         21.8685         12.2636 
       0.877463         21.4532         12.0686 
       0.883569          21.222         11.8783 
       0.889708         20.9526         11.6913 
       0.895864         20.7838         11.5078 
       0.902008         20.6253         11.3286 
       0.908149         20.4036         11.1534 
       0.914301         20.3067         10.9816 
       0.920448         19.9049         10.8137 
       0.926574          19.755         10.6498 
       0.932687         19.5431         10.4898 
       0.938823         19.2863         10.3324 
       0.944975         19.1113          10.178 
       0.951105         18.9449         10.0272 
       0.957225         18.7455         9.87984 
       0.963368          18.616         9.73493 
       0.969511         18.4456         9.59294 
       0.975621         18.2877         9.45456 
       0.981748         18.0322         9.31857 
       0.987916          17.936         9.18442 
        0.99406         17.7086         9.05342 
        1.00019         17.4816         8.92526 
        1.00632         17.4185          8.7997 
        1.01246         17.2685         8.67638 
        1.01859         17.0003         8.55564 
        1.02471          16.953         8.43736 
        1.03085          16.788         8.32092 
        1.03698         16.5232         8.20693 
        1.04314         16.4368         8.09461 
        1.04929         16.2455         7.98465 
        1.05541         16.0792          7.8772 
        1.06154          15.989         7.77146 
        1.06769         15.9002         7.66751 
        1.07382         15.6999         7.56581 
        1.07993         15.6108         7.46619 
        1.08607         15.4303         7.36797 
        1.09222         15.3385         7.27141 
        1.09836         15.1507         7.17671 
        1.10449         15.0576         7.08382 
        1.11063         14.8916         6.99247 
        1.11677         14.8393         6.90277 
         1.1229         14.7517         6.81481 
        1.12903         14.5562         6.72832 
        1.13518         14.3955         6.64326 
        1.14131         14.3499         6.55972 
        1.14745         14.2311         6.47767 
        1.15359         14.1398         6.39702 
        1.15973         14.0011         6.31771 
        1.16584         13.8136         6.24011 
        1.17197         13.7832         6.16371 
        1.17811         13.6619         6.08836 
        1.18424         13.5463         6.01449 
        1.19038         13.4943         5.94164 
        1.19652         13.3633         5.87003 
        1.20267         13.2459         5.79961 
        1.20881         13.1929         5.73036 
        1.21495         13.0987         5.66235 
        1.22108         12.9552         5.59546 
         1.2272         12.8529         5.52982 
        1.23334         12.7608         5.46508 
        1.23949         12.6429         5.40122 
        1.24562         12.6036         5.33857 
        1.25174         12.5188         5.27701 
        1.25789         12.4198         5.21623 
        1.26402         12.3688         5.15653 
        1.27014         12.2502         5.09791 
        1.27628         12.1033         5.04002 
        1.28244         12.0484         4.98293 
        1.28858         12.0284          4.9268 
        1.29471         11.8991         4.87166 
        1.30084         11.7902         4.81742 
        1.30697         11.7482         4.76393 
        1.31312         11.6131         4.71117 
        1.31925         11.5345         4.65938 
        1.32537          11.496         4.60842 
        1.33151         11.4124         4.55804 
        1.33765         11.3346         4.50845 
        1.34378         11.2593         4.45969 
        1.34992         11.1516         4.41162 
        1.35606         11.1216         4.36416 
         1.3622         11.0506         4.31749 
        1.36833         10.9472         4.27161 
        1.37445         10.9052         4.22642 
        1.38059         10.8419         4.18175 
        1.38675         10.7307         4.13762 
        1.39288         10.7022          4.0943 
        1.39901         10.5983         4.05163 
        1.40515         10.5539         4.00947 
         1.4113         10.4839         3.96793 
        1.41742         10.4129         3.92714 
        1.42355         10.3423         3.88684 
         1.4297         10.2949         3.84699 
        1.43585         10.2523         3.80772 
        1.44198         10.1811         3.76915 
        1.44809         10.1147         3.73119 
        1.45423         10.0436         3.69361 
        1.46036         9.98338         3.65662 
        1.46649         9.94205         3.62012 
        1.47263         9.84869         3.58409 
        1.47877         9.79894         3.54857 
        1.48491         9.75532         3.51348 
        1.49104         9.69706         3.47894 
        1.49718         9.64033         3.44483 
        1.50333         9.59204         3.41113 
        1.50947         9.52615         3.37795 
         1.5156         9.46703         3.34526 
        1.52172         9.42763         3.31301 
        1.52787         9.35933         3.28111 
          1.534         9.29792         3.24967 
        1.54013         9.24852         3.21868 
        1.54627         9.18195         3.18804 
        1.55241         9.14929         3.15779 
        1.55855         9.10537         3.12798 
        1.56467         9.03778         3.09863 
         1.5708         9.02555         3.06958 
        1.57695         8.94297         3.04086 
        1.58308         8.89066         3.01257 
        1.58922         8.86026         2.98463 
        1.59535         8.81955         2.95705 
         1.6015         8.74821         2.92978 
        1.60764         8.69205         2.90286 
        1.61376         8.67791         2.87636 
        1.61989         8.61163         2.85017 
        1.62604         8.57989         2.82425 
        1.63218          8.5399         2.79867 
        1.63831         8.49755         2.77347 
        1.64444         8.44004         2.74856 
        1.65059         8.37593          2.7239 
        1.65673         8.37202         2.69958 
        1.66285         8.28248         2.67562 
        1.66898         8.26062         2.65194 
        1.67512         8.22408          2.6285 
        1.68127         8.17475         2.60533 
         1.6874         8.14422         2.58248 
        1.69353         8.08309         2.55993 
        1.69967         8.05097         2.53759 
        1.70581         8.01871         2.51553 
        1.71193         7.96255         2.49381 
        1.71806         7.94502         2.47231 
        1.72421         7.88545         2.45102 
        1.73035         7.86506            2.43 
        1.73649         7.82559         2.40923 
        1.74262         7.78004         2.38872 
        1.74876         7.75509         2.36844 
        1.75489         7.71358         2.34843 
        1.76101          7.6554         2.32866 
        1.76715         7.64369          2.3091 
        1.77329         7.58484         2.28973 
        1.77943         7.54701         2.27058 
        1.78557         7.53664         2.25167 
        1.79171         7.49702         2.23298 
        1.79785         7.44268         2.21449 
        1.80399         7.40874         2.19622 
        1.81012         7.38538         2.17818 
        1.81625         7.34246         2.16035 
        1.82239         7.31394         2.14269 
        1.82853         7.26863         2.12524 
        1.83466          7.2386         2.10801 
        1.84078         7.19918         2.09098 
        1.84692         7.19069         2.07411 
        1.85306         7.14015          2.0574 
         1.8592         7.10213         2.04091 
        1.86533          7.0787         2.02461 
        1.87147         7.04821         2.00847 
        1.87761         7.01953         1.99249 
        1.88375         6.97176         1.97671 
        1.88988         6.96452         1.96112 
        1.89601         6.92437         1.94569 
        1.90215         6.88891         1.93041 
        1.90829         6.85583          1.9153 
        1.91442         6.82624         1.90035 
        1.92056         6.80695         1.88558 
         1.9267         6.76574         1.87095 
        1.93284         6.73416         1.85646 
        1.93897         6.69968         1.84216 
        1.94509          6.6809         1.82803 
        1.95123         6.64939         1.81402 
        1.95737         6.61473         1.80015 
        1.96349         6.59505         1.78646 
        1.96964         6.55731         1.77287 
        1.97578         6.52769         1.75942 
        1.98192         6.50589         1.74613 
        1.98805         6.48315         1.73298 
        1.99419         6.44787         1.71996 
        2.00033         6.43725         1.70707 
        2.00647         6.39978         1.69432 
         2.0126          6.3736         1.68172 
        2.01874         6.34716         1.66923 
        2.02488         6.31916         1.65685 
        2.03101         6.28923         1.64462 
        2.03714         6.25583         1.63253 
        2.04328         6.23888         1.62054 
        2.04941          6.2041         1.60869 
        2.05554         6.18822         1.59696 
        2.06167         6.15365         1.58533 
        2.06781         6.14055         1.57382 
        2.07396         6.12155          1.5624 
        2.08009         6.08843         1.55112 
        2.08622         6.05576         1.53996 
        2.09237         6.04319         1.52889 
        2.09851         6.02625         1.51793 
        2.10464         5.99275         1.50709 
        2.11077         5.95463         1.49637 
        2.11691         5.93336         1.48574 
        2.12305         5.91681          1.4752 
        2.12918         5.90348          1.4648 
        2.13531         5.87212         1.45449 
        2.14145         5.85167         1.44426 
         2.1476         5.82226         1.43411 
        2.15372         5.80299         1.42411 
        2.15985         5.79692          1.4142 
        2.16599         5.75538         1.40435 
        2.17213         5.74261         1.39461 
        2.17827         5.72381         1.38497 
         2.1844         5.69604         1.37542 
        2.19054         5.65889         1.36596 
        2.19666         5.64846          1.3566 
         2.2028          5.6283         1.34732 
        2.20893         5.61157         1.33813 
        2.21508         5.58122         1.32901 
        2.22122         5.55753         1.31997 
        2.22736         5.54184         1.31103 
        2.23349         5.52642         1.30218 
        2.23962         5.50812         1.29341 
        2.24577         5.47893         1.28471 
         2.2519         5.46793          1.2761 
        2.25802         5.43722         1.26758 
        2.26417         5.41963         1.25912 
        2.27031         5.39571         1.25073 
        2.27644         5.37504         1.24244 
        2.28257         5.35696         1.23422 
        2.28872         5.34294         1.22606 
        2.29486         5.32347         1.21798 
        2.30099         5.30405         1.20999 
        2.30712         5.28444         1.20207 
        2.31326         5.25176          1.1942 
         2.3194         5.24085         1.18641 
        2.32553         5.22967          1.1787 
        2.33166         5.21117         1.17106 
         2.3378          5.1854         1.16348 
        2.34394         5.16896         1.15597 
        2.35007         5.14393         1.14853 
        2.35619         5.13026         1.14116 
        2.36233         5.11166         1.13385 
        2.36848         5.09381         1.12658 
        2.37462         5.08141         1.11939 
        2.38075         5.06354         1.11227 
        2.38689         5.04576         1.10521 
        2.39303          5.0193         1.09821 
        2.39916         5.00457         1.09128 
        2.40529         4.98804          1.0844 
        2.41143         4.96898         1.07759 
        2.41757         4.96839         1.07082 
         2.4237         4.94337         1.06413 
        2.42983         4.91936          1.0575 
        2.43598         4.90656          1.0509 
        2.44211         4.88676         1.04438 
        2.44823         4.87348         1.03792 
        2.45437         4.85639          1.0315 
        2.46052          4.8354         1.02512 
        2.46665         4.82205         1.01882 
        2.47279         4.79996         1.01257 
        2.47892          4.7825         1.00636 
        2.48507         4.77344         1.00021 
         2.4912         4.75057        0.994111 
