# k  (h/Mpc)    P(k)  (Mpc/h)^3    P_linear(k)  (Mpc/h)^3
     0.00783031         6548.24         6647.87 
       0.013688         8047.87         8025.05 
       0.019231         7996.82          7991.6 
      0.0249154         7194.63         7290.35 
      0.0312784         6216.83         6248.52 
      0.0375637         5309.25         5297.43 
      0.0433917         4574.85         4613.97 
      0.0492413         4118.12         4126.05 
      0.0555754          3699.4         3761.04 
      0.0619321         3497.86         3479.24 
       0.067871         3183.08         3226.22 
      0.0738098         2910.84         2950.15 
      0.0800417         2585.45         2636.24 
      0.0862327         2304.61         2325.51 
      0.0921407         2064.39         2059.53 
      0.0982031         1834.23         1838.15 
       0.104506         1702.14         1668.85 
       0.110769         1579.35          1552.3 
       0.116806          1484.2         1470.74 
       0.122832         1419.92          1400.2 
       0.129052         1322.49         1323.06 
       0.135211         1239.91         1235.13 
       0.141259         1163.02         1139.53 
       0.147318         1076.84          1042.4 
       0.153489         979.939         951.459 
       0.159709         914.761         874.925 
       0.165845          869.73         816.546 
       0.171974         817.938          773.08 
       0.178125         782.981         739.341 
       0.184229         753.448         709.819 
        0.19034         705.802         679.422 
       0.196428         686.899         645.819 
       0.202534         659.107         608.896 
       0.208729         619.342         570.262 
       0.214876         581.462         533.636 
       0.220989         558.555         501.277 
       0.227147           527.2         473.963 
        0.23329          505.34         451.799 
       0.239377         492.689          433.64 
       0.245482         461.695          417.55 
       0.251667         455.683         401.784 
       0.257832         439.252         385.543 
       0.263955         422.405         368.622 
       0.270079         405.294          351.27 
        0.27624         397.021         334.165 
       0.282372         380.283          318.26 
        0.28843         366.937         304.151 
       0.294538         350.304         291.687 
       0.300721          346.27         280.631 
        0.30691         330.319          270.69 
       0.313033         322.595         261.437 
       0.319153         310.061         252.381 
       0.325316          302.21         243.223 
        0.33145         291.881         234.095 
       0.337538         287.145         225.159 
       0.343633         277.111         216.565 
       0.349808         268.052         208.406 
       0.355968         263.583         200.911 
       0.362074         256.645         194.116 
       0.368217          249.59         187.807 
       0.374374         241.095         181.879 
       0.380519         237.077         176.204 
       0.386598         230.887          170.73 
       0.392688          227.65         165.352 
        0.39888         221.515          159.99 
       0.405048         216.207         154.817 
       0.411186         211.412         149.886 
       0.417313         206.887         145.216 
       0.423458         202.563         140.809 
       0.429607         197.827         136.656 
       0.435692         191.781          132.76 
       0.441815         190.308         129.015 
       0.447964         186.856         125.392 
       0.454126         178.946         121.866 
       0.460267         176.929         118.452 
       0.466387         174.473         115.154 
        0.47254         170.699         111.948 
       0.478662         169.236         108.881 
       0.484765         164.167         105.953 
       0.490885         161.617         103.149 
       0.497035         159.461          100.45 
       0.503198         155.147         97.8552 
       0.509342         152.772         95.3641 
       0.515458         150.598         92.9689 
       0.521598         148.324         90.6386 
       0.527764          146.09          88.368 
       0.533884         143.805          86.185 
           0.54         141.309         84.0763 
       0.546137         140.163         82.0338 
       0.552299         137.725         80.0552 
       0.558452         135.131         78.1498 
       0.564573         132.782         76.3206 
       0.570708         130.715         74.5501 
       0.576825         129.028         72.8427 
       0.582926         126.665         71.1928 
       0.589034          124.74         69.5895 
       0.595184         123.271         68.0226 
       0.601379         121.838         66.4922 
       0.607522         119.004         65.0212 
       0.613639         118.628         63.6021 
       0.619772         116.002         62.2236 
       0.625918          114.76         60.8845 
       0.632068         113.481         59.5851 
       0.638161         112.284         58.3359 
         0.6443         110.745         57.1139 
       0.650464         109.489         55.9227 
       0.656582         107.977         54.7742 
       0.662703          106.18         53.6578 
       0.668861         104.877         52.5661 
       0.675024         103.703         51.5039 
       0.681124         102.675          50.482 
       0.687237         100.803         49.4858 
       0.693381         99.6239         48.5122 
       0.699536         98.6039         47.5635 
       0.705665         98.8763         46.6447 
       0.711789         96.2493         45.7513 
       0.717957         95.7742         44.8756 
        0.72409         94.3751         44.0279 
       0.730186         92.8201         43.2074 
       0.736317         92.5635         42.4035 
       0.742472         91.6056         41.6172 
       0.748622         90.6989         40.8516 
        0.75476         89.7464          40.107 
       0.760888         88.4819         39.3823 
       0.767043         87.7344         38.6726 
       0.773185         86.7257         37.9821 
       0.779291         85.9122         37.3125 
       0.785407         85.2199         36.6583 
       0.791564         84.2793         36.0157 
       0.797719         83.0044          35.389 
       0.803834         82.6719         34.7813 
       0.809972         81.3241         34.1858 
       0.816124         80.8888          33.603 
       0.822261         80.1994         33.0355 
       0.828378         79.5072          32.483 
       0.834502         78.7693         31.9426 
       0.840667         77.9701         31.4112 
       0.846816         77.0188         30.8934 
       0.852925         76.4022         30.3906 
       0.859047         75.4255          29.898 
       0.865192         75.0684         29.4149 
       0.871341         74.5506         28.9421 
       0.877463         73.3816         28.4819 
       0.883569         72.9346          28.033 
       0.889708         72.5053         27.5915 
       0.895864         71.8775         27.1584 
       0.902008         71.2224         26.7356 
       0.908149         70.7456         26.3221 
       0.914301         70.0487         25.9167 
       0.920448         69.5209         25.5203 
       0.926574         68.8841         25.1337 
       0.932687         68.5946         24.7559 
       0.938823          67.496         24.3845 
       0.944975         67.1868           24.02 
       0.951105         66.5928         23.6643 
       0.957225         65.7765         23.3165 
       0.963368         65.6598         22.9745 
       0.969511         65.2235         22.6394 
       0.975621          64.783         22.3128 
       0.981748           64.08         21.9919 
       0.987916         63.6222         21.6753 
        0.99406         63.2384         21.3661 
        1.00019         62.5309         21.0636 
        1.00632         62.2579         20.7673 
        1.01246         61.7125         20.4763 
        1.01859         60.8896         20.1914 
        1.02471         61.0677         19.9122 
        1.03085         60.3791         19.6374 
        1.03698          59.891         19.3684 
        1.04314         59.3229         19.1033 
        1.04929         59.0132         18.8438 
        1.05541          58.425         18.5902 
        1.06154         58.3666         18.3407 
        1.06769         57.8264         18.0954 
        1.07382         57.5515         17.8553 
        1.07993         57.2298         17.6203 
        1.08607         56.6745         17.3884 
        1.09222         56.3998         17.1606 
        1.09836         55.9914         16.9371 
        1.10449         55.5888         16.7178 
        1.11063         55.0718         16.5023 
        1.11677           54.76         16.2906 
         1.1229         54.4352          16.083 
        1.12903         53.7009         15.8789 
        1.13518          53.906         15.6781 
        1.14131         53.5572          15.481 
        1.14745         52.8393         15.2873 
        1.15359         52.7764          15.097 
        1.15973         52.2241         14.9098 
        1.16584         51.9246         14.7267 
        1.17197          51.652         14.5464 
        1.17811         51.3896         14.3685 
        1.18424         50.8641         14.1942 
        1.19038         50.6716         14.0223 
        1.19652         50.4789         13.8533 
        1.20267         50.0638         13.6871 
        1.20881         49.7653         13.5237 
        1.21495         49.3549         13.3632 
        1.22108         49.1045         13.2053 
         1.2272         48.6214         13.0504 
        1.23334          48.466         12.8976 
        1.23949         48.3776         12.7469 
        1.24562         47.9436          12.599 
        1.25174         47.7562         12.4538 
        1.25789         47.4786         12.3103 
        1.26402         47.0748         12.1694 
        1.27014         46.6671         12.0311 
        1.27628         46.5485         11.8945 
        1.28244         46.1914         11.7597 
        1.28858         46.0283         11.6273 
        1.29471         45.8476         11.4971 
        1.30084         45.5746         11.3691 
        1.30697          45.214         11.2429 
        1.31312         44.8736         11.1184 
        1.31925         44.7961         10.9962 
        1.32537         44.5523         10.8759 
        1.33151         44.1592          10.757 
        1.33765          44.097           10.64 
        1.34378         43.7946         10.5249 
        1.34992         43.3941         10.4114 
        1.35606         43.1687         10.2994 
         1.3622         42.9399         10.1893 
        1.36833         42.7296          10.081 
        1.37445         42.6477         9.97436 
        1.38059         42.3611         9.86894 
        1.38675         42.0295         9.76479 
        1.39288         41.9076         9.66257 
        1.39901         41.5917         9.56186 
        1.40515         41.4047         9.46236 
         1.4113         41.2756         9.36433 
        1.41742         40.9335         9.26806 
        1.42355         40.7405         9.17296 
         1.4297         40.5189         9.07892 
        1.43585         40.4086         8.98624 
        1.44198         40.1048         8.89521 
        1.44809         39.9469         8.80562 
        1.45423         39.7774         8.71693 
        1.46036         39.5988         8.62963 
        1.46649         39.3159         8.54349 
        1.47263         39.1186         8.45847 
        1.47877         39.0109         8.37464 
        1.48491         38.8702         8.29182 
        1.49104         38.5689          8.2103 
        1.49718         38.2046         8.12982 
        1.50333         38.1735         8.05028 
        1.50947         38.0084         7.97198 
         1.5156         37.7532         7.89483 
        1.52172         37.5666         7.81871 
        1.52787         37.5358         7.74343 
          1.534         37.2399         7.66924 
        1.54013         37.0047          7.5961 
        1.54627         36.9167         7.52378 
        1.55241         36.6634          7.4524 
        1.55855         36.4854         7.38204 
        1.56467          36.194         7.31278 
         1.5708         36.2281         7.24422 
        1.57695         35.9007         7.17644 
        1.58308         35.8547         7.10968 
        1.58922         35.7439         7.04373 
        1.59535         35.4891         6.97864 
         1.6015         35.2516         6.91428 
        1.60764         35.1277         6.85077 
        1.61376         34.9506         6.78823 
        1.61989           34.68         6.72642 
        1.62604         34.6499         6.66525 
        1.63218         34.4705         6.60487 
        1.63831         34.3057         6.54539 
        1.64444          34.161         6.48661 
        1.65059         33.8979         6.42842 
        1.65673         33.7413         6.37101 
        1.66285         33.6352         6.31446 
        1.66898         33.4391         6.25858 
        1.67512         33.3302         6.20327 
        1.68127         33.0996         6.14858 
         1.6874         33.0115         6.09467 
        1.69353         32.8295         6.04144 
        1.69967          32.675         5.98872 
        1.70581         32.5855         5.93666 
        1.71193         32.4233         5.88541 
        1.71806         32.2063         5.83465 
        1.72421          32.033          5.7844 
        1.73035         31.8943          5.7348 
        1.73649         31.7768         5.68579 
        1.74262         31.6136         5.63739 
        1.74876          31.606         5.58952 
        1.75489         31.3659         5.54231 
        1.76101         31.2011         5.49565 
        1.76715         31.0873         5.44947 
        1.77329         30.9609         5.40377 
        1.77943         30.8232         5.35857 
        1.78557         30.6567         5.31395 
        1.79171         30.5254         5.26983 
        1.79785          30.373         5.22621 
        1.80399         30.2624         5.18309 
        1.81012         30.1718         5.14051 
        1.81625         29.9794         5.09843 
        1.82239         29.9072         5.05676 
        1.82853         29.6704         5.01558 
        1.83466         29.5803          4.9749 
        1.84078         29.3665         4.93471 
        1.84692         29.3062          4.8949 
        1.85306         29.1696         4.85548 
         1.8592         29.0274         4.81656 
        1.86533         28.8765         4.77808 
        1.87147         28.7826         4.73999 
        1.87761         28.7355         4.70229 
        1.88375         28.5792         4.66504 
        1.88988         28.4763         4.62824 
        1.89601         28.2799         4.59182 
        1.90215         28.2225         4.55576 
        1.90829         28.1495         4.52011 
        1.91442         27.9375         4.48483 
        1.92056         27.8874         4.44997 
         1.9267         27.6905         4.41543 
        1.93284         27.5429         4.38125 
        1.93897         27.4975         4.34749 
        1.94509         27.3536         4.31416 
        1.95123          27.225          4.2811 
        1.95737         27.1022         4.24836 
        1.96349         26.9979         4.21604 
        1.96964         26.8492         4.18397 
        1.97578         26.8053         4.15222 
        1.98192         26.6213         4.12086 
        1.98805         26.5658         4.08983 
        1.99419         26.4106         4.05911 
        2.00033         26.2584         4.02869 
        2.00647         26.1849          3.9986 
         2.0126          26.061         3.96886 
        2.01874         25.9884         3.93937 
        2.02488         25.9499         3.91016 
        2.03101         25.7372         3.88131 
        2.03714         25.6407         3.85277 
        2.04328         25.5157         3.82448 
        2.04941         25.4541          3.7965 
        2.05554         25.3393         3.76882 
        2.06167         25.2297         3.74138 
        2.06781         25.1232         3.71421 
        2.07396          25.037         3.68727 
        2.08009         24.9629         3.66065 
        2.08622         24.8052         3.63431 
        2.09237         24.7122         3.60819 
        2.09851         24.6107         3.58232 
        2.10464          24.562         3.55674 
        2.11077         24.3616         3.53145 
        2.11691         24.3206         3.50634 
        2.12305         24.2247         3.48148 
        2.12918         24.1837         3.45692 
        2.13531         24.0417         3.43259 
        2.14145         23.9852         3.40844 
         2.1476         23.8213          3.3845 
        2.15372         23.7293         3.36091 
        2.15985         23.6142         3.33751 
        2.16599         23.5599         3.31428 
        2.17213         23.4951         3.29129 
        2.17827         23.3014         3.26852 
         2.1844         23.2115         3.24599 
        2.19054         23.1327         3.22366 
        2.19666         23.0657         3.20158 
         2.2028         22.9911         3.17968 
        2.20893         22.8929         3.15798 
        2.21508         22.7907         3.13645 
        2.22122         22.6307         3.11512 
        2.22736         22.6325         3.09403 
        2.23349         22.5057         3.07314 
        2.23962         22.4093         3.05244 
        2.24577         22.2926          3.0319 
         2.2519         22.2492         3.01159 
        2.25802         22.1402         2.99149 
        2.26417         22.0769         2.97152 
        2.27031         21.9931         2.95172 
        2.27644          21.899         2.93215 
        2.28257         21.7913         2.91276 
        2.28872         21.6793         2.89351 
        2.29486         21.6361         2.87444 
        2.30099         21.5303         2.85557 
        2.30712         21.4934         2.83687 
        2.31326          21.407         2.81831 
         2.3194         21.2926         2.79992 
        2.32553         21.2002         2.78173 
        2.33166         21.0908         2.76371 
         2.3378         21.0072         2.74582 
        2.34394         20.9559         2.72808 
        2.35007          20.862         2.71053 
        2.35619         20.7465         2.69315 
        2.36233         20.7201         2.67588 
        2.36848         20.5842         2.65873 
        2.37462         20.5178         2.64176 
        2.38075         20.4489         2.62496 
        2.38689         20.4008         2.60829 
        2.39303           20.27         2.59177 
        2.39916         20.1988         2.57541 
        2.40529         20.1129         2.55919 
        2.41143         20.0638          2.5431 
        2.41757          19.978         2.52714 
         2.4237         19.8838         2.51135 
        2.42983         19.8119         2.49569 
        2.43598         19.7528         2.48013 
        2.44211         19.6579         2.46472 
        2.44823         19.5587         2.44948 
        2.45437         19.5005         2.43433 
        2.46052         19.4392         2.41929 
        2.46665         19.3804         2.40441 
        2.47279           19.27         2.38965 
        2.47892         19.2282         2.37501 
        2.48507         19.1393         2.36048 
         2.4912         19.0881          2.3461 
