# k  (h/Mpc)    P(k)  (Mpc/h)^3    P_linear(k)  (Mpc/h)^3
     0.00783031         746.771         755.547 
       0.013688         873.607         876.171 
       0.019231         836.504         836.624 
      0.0249154         724.999          727.75 
      0.0312784         591.244          590.57 
      0.0375637         479.586          477.65 
      0.0433917         404.366         403.878 
      0.0492413         357.356         356.458 
      0.0555754         324.212         324.954 
      0.0619321         303.233         302.051 
       0.067871         279.437         280.044 
      0.0738098         253.107         253.712 
      0.0800417         221.488          222.27 
      0.0862327         191.151         191.069 
      0.0921407          165.69         165.211 
      0.0982031         145.129         144.973 
       0.104506         131.941         130.947 
       0.110769         123.262         122.558 
       0.116806         117.445         117.367 
       0.122832         113.059         112.691 
       0.129052         106.508         106.634 
       0.135211         98.6934         98.7932 
       0.141259         90.1858         89.8358 
       0.147318         81.4272         80.7578 
       0.153489         73.1068         72.5788 
       0.159709         66.7534         66.1608 
       0.165845          62.666           61.74 
       0.171974         59.2924         58.8347 
       0.178125         57.2885         56.7679 
       0.184229         55.4143         54.8603 
        0.19034         52.7269           52.58 
       0.196428         50.1712         49.7451 
       0.202534         47.2259         46.4627 
       0.208729         43.6259         43.0206 
       0.214876         40.3512         39.8634 
       0.220989         37.9864         37.2342 
       0.227147          35.693         35.1836 
        0.23329         34.1547         33.6562 
       0.239377         33.0305          32.473 
       0.245482         31.7471         31.4037 
       0.251667         30.8226         30.2618 
       0.257832         29.4758         28.9763 
       0.263955         28.1103         27.5632 
       0.270079         26.6598         26.0939 
        0.27624         25.3977         24.6715 
       0.282372         24.1463         23.3999 
        0.28843         22.9693         22.3317 
       0.294538         22.0514         21.4374 
       0.300721          21.401         20.6744 
        0.30691         20.5742          19.989 
       0.313033         19.9102         19.3276 
       0.319153         19.0515         18.6449 
       0.325316         18.5752         17.9253 
        0.33145         17.7982         17.1925 
       0.337538         17.1026         16.4776 
       0.343633         16.3693         15.8028 
       0.349808         15.8086         15.1832 
       0.355968         15.2626         14.6321 
       0.362074         14.7414         14.1462 
       0.368217         14.2927         13.6991 
       0.374374         13.8076          13.274 
       0.380519         13.4402         12.8581 
       0.386598         13.0473         12.4454 
       0.392688         12.6793         12.0331 
        0.39888           12.23         11.6198 
       0.405048         11.8524         11.2228 
       0.411186          11.491         10.8507 
       0.417313         11.0996         10.5049 
       0.423458         10.7946         10.1833 
       0.429607         10.4639         9.88386 
       0.435692          10.164         9.60313 
       0.441815          9.9008         9.33055 
       0.447964          9.6818          9.0639 
       0.454126         9.34746         8.80189 
       0.460267         9.11307          8.5459 
       0.466387         8.82274         8.29841 
        0.47254         8.61693         8.05959 
       0.478662         8.41706         7.83303 
       0.484765         8.15461         7.61836 
       0.490885         7.95339         7.41427 
       0.497035         7.82046         7.21888 
       0.503198         7.59296         7.03082 
       0.509342         7.40939          6.8492 
       0.515458         7.21582          6.6736 
       0.521598          7.0534         6.50234 
       0.527764         6.86076         6.33529 
       0.533884         6.73665         6.17463 
           0.54         6.56436         6.01971 
       0.546137         6.42184         5.87028 
       0.552299         6.28207         5.72641 
       0.558452         6.10144         5.58834 
       0.564573         5.99328         5.45586 
       0.570708         5.85962         5.32738 
       0.576825         5.71097         5.20323 
       0.582926         5.60288         5.08316 
       0.589034          5.4429         4.96652 
       0.595184         5.34499         4.85254 
       0.601379          5.2216         4.74122 
       0.607522         5.13731         4.63427 
       0.613639         5.05135         4.53118 
       0.619772          4.9091         4.43123 
       0.625918         4.84016         4.33437 
       0.632068         4.75819         4.24053 
       0.638161         4.63807         4.15037 
         0.6443         4.54221         4.06214 
       0.650464          4.4393         3.97605 
       0.656582         4.38339         3.89296 
       0.662703         4.29537         3.81217 
       0.668861         4.22097          3.7332 
       0.675024         4.12852         3.65645 
       0.681124         4.04532         3.58272 
       0.687237         3.98279         3.51095 
       0.693381         3.91185         3.44086 
       0.699536         3.80858         3.37261 
       0.705665         3.75116         3.30651 
       0.711789         3.68929         3.24224 
       0.717957         3.61608         3.17923 
        0.72409         3.55248         3.11823 
       0.730186         3.49176          3.0592 
       0.736317         3.45359         3.00138 
       0.742472         3.39225         2.94485 
       0.748622         3.32407         2.88985 
        0.75476         3.25648         2.83639 
       0.760888         3.20457         2.78439 
       0.767043         3.16569          2.7335 
       0.773185         3.09741           2.684 
       0.779291         3.05895         2.63602 
       0.785407         3.00476         2.58916 
       0.791564          2.9608         2.54314 
       0.797719         2.91381         2.49827 
       0.803834         2.87666         2.45477 
       0.809972         2.83111         2.41215 
       0.816124         2.77581         2.37045 
       0.822261         2.72385         2.32986 
       0.828378         2.68929         2.29035 
       0.834502         2.66129         2.25172 
       0.840667          2.6019         2.21374 
       0.846816          2.5612         2.17675 
       0.852925         2.53795         2.14085 
       0.859047         2.49809         2.10568 
       0.865192         2.46111          2.0712 
       0.871341         2.42964         2.03746 
       0.877463         2.39568         2.00464 
       0.883569         2.35096         1.97263 
       0.889708         2.31596         1.94116 
       0.895864         2.28297          1.9103 
       0.902008         2.24866         1.88017 
       0.908149           2.223         1.85072 
       0.914301         2.17993         1.82186 
       0.920448         2.15257         1.79364 
       0.926574          2.1205         1.76612 
       0.932687         2.09311         1.73924 
       0.938823         2.07081         1.71283 
       0.944975          2.0413         1.68691 
       0.951105         2.01629         1.66162 
       0.957225         1.99957         1.63689 
       0.963368         1.96848         1.61259 
       0.969511         1.93753         1.58878 
       0.975621         1.90808         1.56558 
       0.981748         1.89036         1.54279 
       0.987916         1.86283         1.52031 
        0.99406         1.83213         1.49837 
        1.00019           1.815         1.47691 
        1.00632         1.78935         1.45588 
        1.01246         1.76794         1.43524 
        1.01859         1.74681         1.41503 
        1.02471         1.72296         1.39524 
        1.03085         1.70364         1.37576 
        1.03698         1.67944         1.35669 
        1.04314         1.66221         1.33791 
        1.04929         1.64017         1.31953 
        1.05541          1.6218         1.30156 
        1.06154          1.6009         1.28389 
        1.06769         1.58498         1.26653 
        1.07382         1.56251         1.24954 
        1.07993         1.53979          1.2329 
        1.08607         1.53094          1.2165 
        1.09222         1.50825         1.20038 
        1.09836         1.49607         1.18457 
        1.10449         1.47819         1.16907 
        1.11063         1.45522         1.15383 
        1.11677          1.4391         1.13886 
         1.1229         1.42375         1.12419 
        1.12903         1.40605         1.10977 
        1.13518         1.39341         1.09559 
        1.14131         1.37365         1.08166 
        1.14745          1.3508         1.06799 
        1.15359         1.34318         1.05455 
        1.15973         1.32212         1.04133 
        1.16584         1.31668         1.02841 
        1.17197         1.29991         1.01568 
        1.17811         1.28795         1.00314 
        1.18424         1.27549        0.990837 
        1.19038         1.25848        0.978711 
        1.19652         1.24393        0.966792 
        1.20267         1.23459        0.955073 
        1.20881         1.21735        0.943551 
        1.21495         1.20795        0.932239 
        1.22108         1.19509        0.921114 
         1.2272         1.18562        0.910197 
        1.23334         1.16943        0.899433 
        1.23949         1.15648        0.888818 
        1.24562         1.14749        0.878404 
        1.25174         1.13475        0.868174 
        1.25789          1.1238        0.858075 
        1.26402         1.10896        0.848155 
        1.27014         1.09847        0.838416 
        1.27628         1.09291        0.828802 
        1.28244         1.07621         0.81932 
        1.28858         1.06741        0.809999 
        1.29471         1.05657        0.800845 
        1.30084         1.04447         0.79184 
        1.30697         1.03632        0.782961 
        1.31312         1.02121        0.774206 
        1.31925         1.01544        0.765612 
        1.32537         1.00541        0.757158 
        1.33151        0.997564        0.748801 
        1.33765        0.985832        0.740576 
        1.34378        0.975076        0.732491 
        1.34992        0.969198        0.724522 
        1.35606        0.956163        0.716654 
         1.3622        0.950172        0.708917 
        1.36833        0.940163        0.701313 
        1.37445        0.928827        0.693825 
        1.38059        0.922219        0.686423 
        1.38675        0.918659        0.679112 
        1.39288        0.906058        0.671937 
        1.39901        0.897186        0.664869 
        1.40515        0.889927        0.657887 
         1.4113        0.881305        0.651008 
        1.41742        0.873368        0.644254 
        1.42355        0.869647        0.637584 
         1.4297        0.857529        0.630988 
        1.43585        0.850905        0.624488 
        1.44198        0.846667        0.618105 
        1.44809         0.83528        0.611823 
        1.45423        0.828802        0.605606 
        1.46036        0.821467        0.599486 
        1.46649         0.81434        0.593448 
        1.47263        0.806728         0.58749 
        1.47877        0.798852        0.581615 
        1.48491        0.792365        0.575812 
        1.49104        0.785382        0.570101 
        1.49718        0.780562        0.564463 
        1.50333        0.771866        0.558892 
        1.50947        0.767201        0.553408 
         1.5156        0.759636        0.548006 
        1.52172        0.753027        0.542676 
        1.52787        0.745938        0.537407 
          1.534        0.741036        0.532214 
        1.54013        0.733006        0.527095 
        1.54627        0.727084        0.522034 
        1.55241        0.720691        0.517039 
        1.55855         0.71545        0.512116 
        1.56467        0.711278        0.507271 
         1.5708        0.702812        0.502475 
        1.57695        0.699685        0.497734 
        1.58308         0.69351        0.493065 
        1.58922        0.687278        0.488453 
        1.59535         0.68191        0.483901 
         1.6015        0.676329        0.479402 
        1.60764        0.671942        0.474961 
        1.61376        0.665442         0.47059 
        1.61989        0.660862        0.466269 
        1.62604         0.65477        0.461994 
        1.63218        0.651693        0.457775 
        1.63831        0.645203        0.453618 
        1.64444        0.639944        0.449511 
        1.65059        0.635673        0.445446 
        1.65673        0.629403        0.441435 
        1.66285        0.625089        0.437485 
        1.66898        0.622488        0.433582 
        1.67512        0.614843        0.429719 
        1.68127        0.610226          0.4259 
         1.6874        0.607876        0.422136 
        1.69353        0.601541        0.418419 
        1.69967        0.596715        0.414739 
        1.70581        0.593519        0.411104 
        1.71193        0.588409        0.407527 
        1.71806        0.584875        0.403985 
        1.72421         0.57994        0.400478 
        1.73035        0.574699        0.397016 
        1.73649        0.572233        0.393597 
        1.74262        0.567571         0.39022 
        1.74876        0.562642        0.386881 
        1.75489        0.557775        0.383588 
        1.76101        0.554334        0.380334 
        1.76715        0.550548        0.377113 
        1.77329         0.54709        0.373926 
        1.77943        0.541886        0.370774 
        1.78557        0.538144        0.367664 
        1.79171        0.535403        0.364588 
        1.79785        0.530875        0.361547 
        1.80399        0.527375        0.358542 
        1.81012        0.524124        0.355574 
        1.81625        0.519953        0.352642 
        1.82239        0.516879        0.349738 
        1.82853        0.511178        0.346868 
        1.83466        0.508737        0.344034 
        1.84078        0.504337        0.341234 
        1.84692        0.502416         0.33846 
        1.85306        0.499005        0.335714 
         1.8592        0.495604        0.333003 
        1.86533        0.492053        0.330323 
        1.87147         0.48864         0.32767 
        1.87761         0.48523        0.325045 
        1.88375        0.480806        0.322451 
        1.88988        0.478895        0.319889 
        1.89601        0.474739        0.317353 
        1.90215        0.471994        0.314843 
        1.90829        0.468171        0.312361 
        1.91442        0.465399        0.309905 
        1.92056        0.462695        0.307479 
         1.9267        0.458814        0.305075 
        1.93284         0.45692        0.302696 
        1.93897        0.453111        0.300347 
        1.94509        0.450613        0.298028 
        1.95123        0.447084        0.295727 
        1.95737        0.444691        0.293449 
        1.96349         0.44081        0.291201 
        1.96964        0.438847         0.28897 
        1.97578        0.435514        0.286762 
        1.98192        0.433654        0.284581 
        1.98805        0.429905        0.282422 
        1.99419        0.427748        0.280286 
        2.00033        0.425899         0.27817 
        2.00647        0.422026        0.276078 
         2.0126        0.419512         0.27401 
        2.01874        0.417176         0.27196 
        2.02488        0.415021         0.26993 
        2.03101        0.411037        0.267924 
        2.03714        0.408044         0.26594 
        2.04328        0.407136        0.263974 
        2.04941        0.404056        0.262029 
        2.05554         0.40125        0.260106 
        2.06167        0.398779        0.258199 
        2.06781        0.395652        0.256311 
        2.07396        0.393065         0.25444 
        2.08009        0.391125         0.25259 
        2.08622        0.388728        0.250761 
        2.09237        0.387306        0.248946 
        2.09851        0.384821        0.247149 
        2.10464        0.382534        0.245372 
        2.11077        0.380045        0.243616 
        2.11691        0.377324        0.241872 
        2.12305        0.375181        0.240146 
        2.12918        0.373209         0.23844 
        2.13531        0.370453        0.236751 
        2.14145        0.368858        0.235074 
         2.1476        0.366119        0.233412 
        2.15372        0.364888        0.231774 
        2.15985        0.361713         0.23015 
        2.16599        0.359178        0.228537 
        2.17213        0.357739        0.226942 
        2.17827        0.356231        0.225362 
         2.1844        0.354321        0.223798 
        2.19054        0.352063        0.222249 
        2.19666        0.349447        0.220716 
         2.2028        0.347779        0.219197 
        2.20893        0.346022        0.217691 
        2.21508        0.343977        0.216198 
        2.22122         0.34075        0.214718 
        2.22736        0.339417        0.213255 
        2.23349        0.338395        0.211806 
        2.23962         0.33624         0.21037 
        2.24577        0.333347        0.208945 
         2.2519        0.332178        0.207536 
        2.25802        0.329882        0.206143 
        2.26417        0.328018        0.204758 
        2.27031        0.326062        0.203384 
        2.27644        0.324722        0.202027 
        2.28257        0.322948        0.200683 
        2.28872        0.321018        0.199348 
        2.29486        0.319032        0.198026 
        2.30099        0.317234        0.196718 
        2.30712        0.315772        0.195422 
        2.31326        0.313921        0.194135 
         2.3194        0.313185         0.19286 
        2.32553        0.311173        0.191599 
        2.33166        0.309535         0.19035 
         2.3378        0.307814         0.18911 
        2.34394        0.305097        0.187881 
        2.35007        0.303987        0.186665 
        2.35619        0.302556         0.18546 
        2.36233        0.300124        0.184264 
        2.36848        0.299254        0.183076 
        2.37462        0.297078          0.1819 
        2.38075         0.29645        0.180736 
        2.38689        0.294322        0.179582 
        2.39303        0.293346        0.178437 
        2.39916        0.290879        0.177304 
        2.40529         0.28986        0.176181 
        2.41143        0.288439        0.175066 
        2.41757        0.286978        0.173961 
         2.4237        0.285541        0.172867 
        2.42983        0.284081        0.171783 
        2.43598        0.282743        0.170705 
        2.44211        0.281394        0.169638 
        2.44823        0.279885        0.168583 
        2.45437        0.277892        0.167534 
        2.46052        0.277253        0.166493 
        2.46665        0.275312        0.165462 
        2.47279        0.273939        0.164441 
        2.47892        0.272299        0.163427 
        2.48507        0.271228        0.162421 
         2.4912        0.270077        0.161426 
