# k  (h/Mpc)    P(k)  (Mpc/h)^3    P_linear(k)  (Mpc/h)^3
     0.00783031         4070.26         4127.52 
       0.013688         4787.82         4782.53 
       0.019231         4570.36         4565.03 
      0.0249154         3935.32         3970.15 
      0.0312784         3217.97         3221.34 
      0.0375637         2618.54         2605.18 
      0.0433917         2198.02          2202.7 
      0.0492413         1947.96            1944 
      0.0555754         1757.07         1772.13 
      0.0619321         1659.09          1647.2 
       0.067871         1517.29         1527.16 
      0.0738098         1374.65         1383.55 
      0.0800417         1200.52         1212.07 
      0.0862327         1040.71         1041.92 
      0.0921407         907.677         900.904 
      0.0982031         793.317         790.539 
       0.104506         728.251         714.052 
       0.110769          679.31         668.301 
       0.116806         645.045         639.994 
       0.122832         621.848         614.493 
       0.129052         582.111         581.464 
       0.135211         540.666         538.709 
       0.141259         498.039         489.864 
       0.147318         452.252         440.362 
       0.153489         406.061         395.762 
       0.159709         373.622         360.765 
       0.165845          352.95         336.658 
       0.171974         333.016         320.816 
       0.178125         321.567         309.546 
       0.184229         310.859         299.143 
        0.19034         292.633         286.709 
       0.196428         281.606         271.251 
       0.202534         267.409         253.352 
       0.208729         247.792         234.583 
       0.214876         229.865         217.367 
       0.220989         218.308          203.03 
       0.227147         205.272         191.849 
        0.23329         196.672          183.52 
       0.239377         191.261         177.068 
       0.245482         181.048         171.238 
       0.251667         177.525         165.011 
       0.257832         170.648         158.001 
       0.263955         162.963         150.296 
       0.270079         155.132         142.284 
        0.27624         149.878         134.528 
       0.282372         143.225         127.594 
        0.28843          136.68          121.77 
       0.294538          130.89         116.893 
       0.300721         128.284         112.733 
        0.30691         122.711         108.995 
       0.313033         119.136         105.389 
       0.319153         113.657         101.667 
       0.325316         111.368         97.7424 
        0.33145         106.692         93.7466 
       0.337538         103.903         89.8483 
       0.343633         99.7788         86.1689 
       0.349808         96.5083         82.7901 
       0.355968         93.9707         79.7852 
       0.362074         90.9671          77.136 
       0.368217         88.2032         74.6977 
       0.374374          85.546         72.3801 
       0.380519         83.5163         70.1122 
       0.386598         81.1237         67.8619 
       0.392688         79.3697         65.6134 
        0.39888         76.9529         63.3597 
       0.405048         74.8753         61.1949 
       0.411186         72.9886         59.1661 
       0.417313         70.7751         57.2804 
       0.423458         68.9438         55.5271 
       0.429607         67.1605         53.8942 
       0.435692         64.8917         52.3635 
       0.441815          64.033         50.8771 
       0.447964         62.8525         49.4232 
       0.454126         60.0645         47.9945 
       0.460267         59.2027         46.5986 
       0.466387         57.7081         45.2491 
        0.47254         56.6153         43.9469 
       0.478662         55.7357         42.7115 
       0.484765         53.9868          41.541 
       0.490885         52.8412         40.4281 
       0.497035          52.138         39.3627 
       0.503198         50.6367         38.3372 
       0.509342         49.3706         37.3469 
       0.515458         48.4297         36.3894 
       0.521598           47.63         35.4556 
       0.527764         46.6948         34.5447 
       0.533884         45.9208         33.6687 
           0.54         44.8318         32.8239 
       0.546137          44.238         32.0091 
       0.552299         43.5166         31.2246 
       0.558452         42.2355         30.4718 
       0.564573         41.4938         29.7494 
       0.570708          40.873         29.0488 
       0.576825         40.0415         28.3719 
       0.582926          39.163         27.7172 
       0.589034         38.2491         27.0811 
       0.595184          37.759         26.4597 
       0.601379         37.0859         25.8527 
       0.607522         36.2614         25.2695 
       0.613639         36.0148         24.7073 
       0.619772         35.1159         24.1623 
       0.625918         34.8307         23.6342 
       0.632068         34.3126         23.1225 
       0.638161          33.666         22.6309 
         0.6443         33.0486         22.1498 
       0.650464         32.4922         21.6804 
       0.656582         32.2176         21.2273 
       0.662703         31.5602         20.7867 
       0.668861         31.0357         20.3562 
       0.675024         30.5428         19.9377 
       0.681124          30.004         19.5356 
       0.687237         29.4689         19.1443 
       0.693381         29.2359         18.7621 
       0.699536         28.5472         18.3899 
       0.705665          28.564         18.0295 
       0.711789         27.8232         17.6791 
       0.717957         27.4685         17.3355 
        0.72409         27.1005         17.0029 
       0.730186         26.6754          16.681 
       0.736317         26.4411         16.3657 
       0.742472         25.9706         16.0575 
       0.748622         25.7267         15.7576 
        0.75476         25.3186         15.4661 
       0.760888         24.9036         15.1825 
       0.767043         24.5998          14.905 
       0.773185         24.2184         14.6352 
       0.779291         24.0959         14.3735 
       0.785407         23.8472          14.118 
       0.791564         23.4164         13.8671 
       0.797719         22.8809         13.6224 
       0.803834         22.8512         13.3852 
       0.809972         22.5821         13.1528 
       0.816124         22.1336         12.9255 
       0.822261         21.9194         12.7041 
       0.828378         21.7557         12.4887 
       0.834502         21.5082          12.278 
       0.840667         21.2282          12.071 
       0.846816         20.8511         11.8693 
       0.852925         20.6648         11.6735 
       0.859047          20.426         11.4817 
       0.865192         20.2082         11.2937 
       0.871341         20.0882         11.1097 
       0.877463         19.7063         10.9308 
       0.883569         19.4912         10.7562 
       0.889708         19.2463         10.5846 
       0.895864         19.0582         10.4163 
       0.902008          18.907         10.2521 
       0.908149         18.7003         10.0915 
       0.914301         18.6297         9.93411 
       0.920448         18.2841         9.78024 
       0.926574         18.1132         9.63019 
       0.932687         17.9085         9.48362 
       0.938823         17.6701          9.3396 
       0.944975         17.5264         9.19825 
       0.951105         17.3495         9.06035 
       0.957225         17.1508         8.92553 
       0.963368         17.0763         8.79301 
       0.969511         16.8891         8.66319 
       0.975621         16.7483         8.53671 
       0.981748         16.4896         8.41243 
       0.987916         16.3987         8.28987 
        0.99406          16.207         8.17022 
        1.00019         16.0032         8.05318 
        1.00632         15.9123         7.93854 
        1.01246         15.8124         7.82598 
        1.01859         15.5375          7.7158 
        1.02471         15.4972         7.60787 
        1.03085         15.3477         7.50165 
        1.03698         15.0884         7.39769 
        1.04314         15.0079         7.29526 
        1.04929         14.8394         7.19502 
        1.05541          14.679         7.09708 
        1.06154         14.6048         7.00072 
        1.06769          14.517         6.90602 
        1.07382         14.3389         6.81339 
        1.07993         14.2421         6.72267 
        1.08607         14.0708         6.63324 
        1.09222         13.9971         6.54534 
        1.09836         13.8236         6.45915 
        1.10449         13.7322         6.37462 
        1.11063         13.5597         6.29151 
        1.11677         13.5171         6.20992 
         1.1229         13.4353         6.12992 
        1.12903         13.2586         6.05127 
        1.13518         13.1133         5.97394 
        1.14131          13.082         5.89801 
        1.14745         12.9544         5.82344 
        1.15359          12.883         5.75016 
        1.15973         12.7369         5.67811 
        1.16584         12.5743         5.60763 
        1.17197         12.5598         5.53824 
        1.17811          12.419         5.46983 
        1.18424         12.3191         5.40277 
        1.19038         12.2686         5.33664 
        1.19652         12.1604         5.27165 
        1.20267         12.0563         5.20775 
        1.20881         11.9773         5.14493 
        1.21495         11.9037         5.08324 
        1.22108         11.7763         5.02258 
         1.2272         11.6754         4.96306 
        1.23334         11.6114         4.90436 
        1.23949         11.4941         4.84648 
        1.24562         11.4447          4.7897 
        1.25174         11.3695         4.73391 
        1.25789         11.2636         4.67885 
        1.26402         11.2275         4.62476 
        1.27014         11.1041         4.57166 
        1.27628         10.9936         4.51923 
        1.28244         10.9389         4.46753 
        1.28858         10.9095          4.4167 
        1.29471         10.7995         4.36679 
        1.30084         10.7019         4.31769 
        1.30697         10.6471         4.26927 
        1.31312         10.5278         4.22153 
        1.31925         10.4556         4.17467 
        1.32537         10.4241         4.12858 
        1.33151         10.3432         4.08301 
        1.33765         10.2782         4.03816 
        1.34378         10.2075         3.99407 
        1.34992         10.0973         3.95062 
        1.35606         10.0811         3.90772 
         1.3622         10.0167         3.86553 
        1.36833         9.90863         3.82407 
        1.37445         9.88148         3.78324 
        1.38059         9.80294         3.74288 
        1.38675         9.69399         3.70301 
        1.39288         9.68216         3.66389 
        1.39901         9.59598         3.62535 
        1.40515         9.55466         3.58728 
         1.4113          9.4791         3.54977 
        1.41742         9.40681         3.51294 
        1.42355         9.35165         3.47657 
         1.4297         9.32459          3.4406 
        1.43585         9.26675         3.40516 
        1.44198         9.20124         3.37036 
        1.44809         9.13852          3.3361 
        1.45423         9.07865          3.3022 
        1.46036         9.01987         3.26883 
        1.46649         8.98609         3.23591 
        1.47263         8.89907         3.20342 
        1.47877         8.85044         3.17139 
        1.48491         8.82331         3.13975 
        1.49104         8.76748          3.1086 
        1.49718          8.7042         3.07786 
        1.50333         8.65945         3.04749 
        1.50947         8.59766         3.01758 
         1.5156         8.54523         2.98813 
        1.52172         8.51321         2.95906 
        1.52787         8.45667         2.93033 
          1.534         8.39246         2.90201 
        1.54013         8.33627          2.8741 
        1.54627         8.28425         2.84651 
        1.55241         8.24947         2.81927 
        1.55855         8.20258         2.79243 
        1.56467         8.14908         2.76601 
         1.5708         8.14357         2.73986 
        1.57695         8.06919         2.71401 
        1.58308         8.02174         2.68855 
        1.58922         7.99027          2.6634 
        1.59535          7.9428         2.63858 
         1.6015         7.88025         2.61404 
        1.60764         7.83851         2.58983 
        1.61376         7.81316         2.56599 
        1.61989         7.75383         2.54244 
        1.62604         7.73787         2.51912 
        1.63218         7.69021         2.49612 
        1.63831         7.64893         2.47345 
        1.64444         7.58798         2.45106 
        1.65059         7.54191         2.42889 
        1.65673         7.53798         2.40702 
        1.66285         7.45778         2.38548 
        1.66898          7.4421          2.3642 
        1.67512         7.40669         2.34314 
        1.68127         7.36524         2.32231 
         1.6874         7.32292         2.30179 
        1.69353         7.26317         2.28152 
        1.69967         7.24914         2.26146 
        1.70581         7.22166         2.24164 
        1.71193         7.16362         2.22213 
        1.71806         7.13692         2.20282 
        1.72421         7.09715         2.18369 
        1.73035         7.06233         2.16482 
        1.73649         7.03346         2.14617 
        1.74262         7.00084         2.12776 
        1.74876         6.97573         2.10955 
        1.75489         6.92993          2.0916 
        1.76101         6.87991         2.07385 
        1.76715          6.8701         2.05629 
        1.77329         6.80917         2.03891 
        1.77943         6.78139         2.02173 
        1.78557         6.76913         2.00477 
        1.79171         6.73623           1.988 
        1.79785         6.68198         1.97142 
        1.80399         6.66036         1.95503 
        1.81012          6.6395         1.93885 
        1.81625         6.59504         1.92286 
        1.82239         6.56371         1.90702 
        1.82853         6.52475         1.89138 
        1.83466         6.49411         1.87592 
        1.84078         6.46459         1.86065 
        1.84692         6.44694         1.84553 
        1.85306         6.40664         1.83055 
         1.8592         6.37624         1.81577 
        1.86533          6.3569         1.80116 
        1.87147         6.32388         1.78669 
        1.87761         6.30093         1.77238 
        1.88375         6.24435         1.75824 
        1.88988         6.24752         1.74426 
        1.89601          6.2129         1.73044 
        1.90215         6.17766         1.71675 
        1.90829         6.14647         1.70322 
        1.91442         6.11943         1.68983 
        1.92056         6.10015         1.67659 
         1.9267         6.06855         1.66349 
        1.93284         6.03202         1.65052 
        1.93897         6.00541         1.63771 
        1.94509         5.98395         1.62506 
        1.95123         5.96453         1.61252 
        1.95737         5.93532          1.6001 
        1.96349         5.91204         1.58784 
        1.96964         5.87321         1.57567 
        1.97578         5.84842         1.56363 
        1.98192         5.82913         1.55174 
        1.98805         5.81022         1.53997 
        1.99419         5.77391         1.52832 
        2.00033          5.7593         1.51678 
        2.00647         5.73028         1.50537 
         2.0126         5.70596          1.4941 
        2.01874         5.68343         1.48292 
        2.02488         5.64896         1.47185 
        2.03101         5.63659         1.46091 
        2.03714         5.60073         1.45009 
        2.04328         5.58889         1.43937 
        2.04941          5.5472         1.42877 
        2.05554         5.54246         1.41828 
        2.06167         5.50492         1.40789 
        2.06781         5.49538         1.39759 
        2.07396         5.47861         1.38739 
        2.08009         5.45551          1.3773 
        2.08622         5.41209         1.36733 
        2.09237         5.40766         1.35743 
        2.09851         5.38717         1.34763 
        2.10464         5.35634         1.33795 
        2.11077         5.32505         1.32837 
        2.11691          5.3068         1.31886 
        2.12305           5.291         1.30945 
        2.12918          5.2731         1.30015 
        2.13531         5.25035         1.29094 
        2.14145         5.22757         1.28179 
         2.1476         5.21331         1.27273 
        2.15372         5.19027          1.2638 
        2.15985         5.17214         1.25494 
        2.16599         5.14931         1.24615 
        2.17213         5.12672         1.23745 
        2.17827         5.11393         1.22883 
         2.1844         5.08961         1.22031 
        2.19054         5.05535         1.21186 
        2.19666         5.04911          1.2035 
         2.2028          5.0272         1.19522 
        2.20893          5.0128         1.18701 
        2.21508         4.98751         1.17886 
        2.22122         4.96514         1.17079 
        2.22736         4.95157         1.16282 
        2.23349         4.92858         1.15492 
        2.23962         4.91903         1.14708 
        2.24577          4.8946         1.13932 
         2.2519         4.88072         1.13164 
        2.25802         4.85406         1.12404 
        2.26417         4.84061         1.11648 
        2.27031          4.8133         1.10899 
        2.27644         4.80017          1.1016 
        2.28257         4.77716         1.09427 
        2.28872         4.76835         1.08699 
        2.29486         4.75076         1.07978 
        2.30099         4.73787         1.07265 
        2.30712         4.71251         1.06558 
        2.31326         4.69089         1.05856 
         2.3194         4.67655         1.05161 
        2.32553         4.66345         1.04473 
        2.33166         4.64491         1.03792 
         2.3378         4.62615         1.03116 
        2.34394         4.61095         1.02446 
        2.35007         4.59101         1.01783 
        2.35619         4.57168         1.01126 
        2.36233           4.558         1.00474 
        2.36848         4.54681        0.998258 
        2.37462         4.52984        0.991849 
        2.38075         4.51225        0.985502 
        2.38689         4.49586        0.979206 
        2.39303         4.47446        0.972966 
        2.39916         4.46209        0.966786 
        2.40529         4.44683        0.960661 
        2.41143         4.42728        0.954585 
        2.41757         4.42696        0.948558 
         2.4237         4.40273        0.942594 
        2.42983         4.38547        0.936682 
        2.43598         4.37643        0.930805 
        2.44211         4.35408        0.924988 
        2.44823         4.33959        0.919234 
        2.45437         4.32962        0.913513 
        2.46052         4.31244        0.907836 
        2.46665         4.29797        0.902217 
        2.47279         4.27417        0.896647 
        2.47892         4.26321        0.891121 
        2.48507         4.24876        0.885637 
         2.4912         4.23366        0.880208 
