# k  (h/Mpc)    P(k)  (Mpc/h)^3    P_linear(k)  (Mpc/h)^3
     0.00783031         9847.15         9901.32 
       0.013688         12290.8         12577.3 
       0.019231         12972.7           13150 
      0.0249154           12597         12601.9 
      0.0312784         11238.5         11363.7 
      0.0375637         9845.55         10028.1 
      0.0433917          8875.3         8950.19 
      0.0492413          7968.8         8103.76 
      0.0555754         7347.14         7424.96 
      0.0619321         6638.52          6901.1 
       0.067871         6299.77         6463.24 
      0.0738098         5898.24         6013.24 
      0.0800417         5412.13         5504.22 
      0.0862327         4875.43         4977.61 
      0.0921407         4420.61         4492.46 
      0.0982031         4039.37         4050.34 
       0.104506         3625.34         3675.81 
       0.110769         3364.96         3393.18 
       0.116806         3220.26         3190.26 
       0.122832         3024.29         3030.74 
       0.129052         2877.66         2883.24 
       0.135211          2777.6         2732.41 
       0.141259          2582.5          2569.7 
       0.147318          2386.8         2394.31 
       0.153489         2244.85          2213.6 
       0.159709         2138.22         2043.24 
       0.165845         1951.28         1897.61 
       0.171974         1898.95         1779.19 
       0.178125         1828.53         1685.83 
       0.184229         1696.56            1612 
        0.19034         1667.11         1548.26 
       0.196428         1617.06         1486.78 
       0.202534          1517.1         1421.71 
       0.208729         1485.94          1350.5 
       0.214876         1422.14         1276.47 
       0.220989         1338.18         1203.47 
       0.227147         1303.94         1134.86 
        0.23329            1253          1074.5 
       0.239377         1236.91         1023.78 
       0.245482          1176.7         981.166 
       0.251667         1133.14         944.194 
       0.257832          1119.4         910.688 
       0.263955         1064.78         878.167 
       0.270079          1033.7         844.828 
        0.27624         990.569          810.06 
       0.282372         973.906         774.877 
        0.28843         962.738         740.801 
       0.294538         914.964         708.401 
       0.300721         891.969         678.605 
        0.30691         875.409         652.092 
       0.313033         839.483         628.894 
       0.319153          827.89         607.961 
       0.325316         815.748         588.287 
        0.33145         798.937         569.273 
       0.337538          771.13         550.496 
       0.343633         750.726         531.605 
       0.349808         734.088         512.597 
       0.355968         720.664           494.1 
       0.362074         697.853         476.636 
       0.368217         694.657         460.243 
       0.374374           683.1         445.074 
       0.380519         657.408          431.15 
       0.386598          651.49         418.317 
       0.392688         637.686         406.142 
        0.39888         621.095         394.202 
       0.405048         610.841         382.546 
       0.411186         608.452         371.142 
       0.417313         603.064         359.972 
       0.423458         584.545         349.077 
       0.429607         569.118         338.611 
       0.435692          561.85         328.768 
       0.441815          552.53         319.395 
       0.447964         542.562         310.521 
       0.454126         536.082         302.094 
       0.460267         527.613         294.061 
       0.466387         519.634          286.34 
        0.47254         511.368         278.805 
       0.478662         501.587         271.493 
       0.484765         496.672         264.383 
       0.490885         491.436         257.465 
       0.497035         482.017         250.752 
       0.503198         481.527         244.284 
       0.509342         470.516         238.101 
       0.515458           462.7         232.212 
       0.521598         456.655         226.545 
       0.527764          449.11         221.066 
       0.533884         446.999         215.806 
           0.54         441.114          210.71 
       0.546137          432.62         205.744 
       0.552299         431.709         200.898 
       0.558452         425.196         196.197 
       0.564573         420.678         191.661 
       0.570708         416.124         187.263 
       0.576825         408.361          183.03 
       0.582926         405.812         178.955 
       0.589034         400.057          175.01 
       0.595184          397.21         171.166 
       0.601379         390.764         167.413 
       0.607522           384.1         163.802 
       0.613639         382.516          160.31 
       0.619772         380.933         156.908 
       0.625918         374.579         153.592 
       0.632068         370.496         150.367 
       0.638161         367.256         147.262 
         0.6443         363.916         144.224 
       0.650464         359.094         141.266 
       0.656582         355.884         138.418 
       0.662703         353.307         135.651 
       0.668861         347.917         132.946 
       0.675024          345.87         130.313 
       0.681124         341.895         127.777 
       0.687237         339.324         125.301 
       0.693381         335.424         122.878 
       0.699536         332.635         120.515 
       0.705665         329.275         118.224 
       0.711789         327.499         115.997 
       0.717957         323.154         113.812 
        0.72409         319.856         111.698 
       0.730186         321.656          109.65 
       0.736317           315.7         107.644 
       0.742472         312.292         105.681 
       0.748622          308.97         103.768 
        0.75476         308.659         101.907 
       0.760888         305.155         100.095 
       0.767043         302.138         98.3189 
       0.773185         300.606         96.5903 
       0.779291         295.901         94.9134 
       0.785407         295.089         93.2743 
       0.791564         292.073         91.6639 
       0.797719         287.654         90.0928 
       0.803834         289.962         88.5688 
       0.809972          285.89          87.075 
       0.816124         282.384         85.6126 
       0.822261         279.809          84.188 
       0.828378         279.561         82.8002 
       0.834502         275.331         81.4427 
       0.840667         275.292          80.107 
       0.846816         270.671         78.8051 
       0.852925         270.337         77.5405 
       0.859047         267.634         76.3011 
       0.865192         267.228         75.0849 
       0.871341         263.454         73.8946 
       0.877463         261.257         72.7356 
       0.883569         260.513         71.6046 
       0.889708         258.126          70.492 
       0.895864         256.113         69.4003 
       0.902008          254.01         68.3342 
       0.908149         251.937         67.2912 
       0.914301         250.664         66.2685 
       0.920448         249.478         65.2681 
       0.926574         247.287         64.2919 
       0.932687         245.828         63.3379 
       0.938823         243.705            62.4 
       0.944975          242.54          61.479 
       0.951105          240.14         60.5799 
       0.957225         238.332         59.7005 
       0.963368         237.772         58.8357 
       0.969511          233.87          57.988 
       0.975621         232.962         57.1617 
       0.981748         231.674         56.3494 
       0.987916         230.664         55.5479 
        0.99406         228.605          54.765 
        1.00019         227.144         53.9988 
        1.00632         226.387         53.2481 
        1.01246          224.58         52.5106 
        1.01859         222.244         51.7882 
        1.02471         220.591         51.0804 
        1.03085           219.7         50.3835 
        1.03698         218.148         49.7011 
        1.04314         217.827         49.0285 
        1.04929         216.227         48.3699 
        1.05541         214.421         47.7262 
        1.06154         212.823         47.0926 
        1.06769          211.09         46.4696 
        1.07382         210.839           45.86 
        1.07993         208.419         45.2627 
        1.08607         207.005         44.6736 
        1.09222          205.98         44.0944 
        1.09836         205.081         43.5263 
        1.10449         203.155         42.9688 
        1.11063         201.908         42.4206 
        1.11677         200.984         41.8821 
         1.1229         199.449         41.3539 
        1.12903         198.631         40.8345 
        1.13518         197.109         40.3235 
        1.14131         196.167         39.8217 
        1.14745         194.303         39.3286 
        1.15359         192.613         38.8439 
        1.15973          192.29         38.3671 
        1.16584         191.427         37.9006 
        1.17197         190.035         37.4411 
        1.17811          188.33         36.9879 
        1.18424         187.423         36.5435 
        1.19038         186.202         36.1052 
        1.19652         184.669         35.6742 
        1.20267         183.854         35.2503 
        1.20881         182.487         34.8334 
        1.21495         182.183         34.4239 
        1.22108         180.719         34.0211 
         1.2272         179.212         33.6257 
        1.23334         178.539         33.2357 
        1.23949         177.942         32.8509 
        1.24562         176.536         32.4733 
        1.25174         175.288         32.1023 
        1.25789         174.032         31.7359 
        1.26402         173.827         31.3759 
        1.27014         172.756         31.0223 
        1.27628         170.678         30.6732 
        1.28244         170.246         30.3288 
        1.28858         169.121         29.9901 
        1.29471         168.244         29.6574 
        1.30084         167.109         29.3301 
        1.30697         166.068         29.0072 
        1.31312          165.04         28.6887 
        1.31925         163.868          28.376 
        1.32537         163.444         28.0683 
        1.33151         162.411          27.764 
        1.33765         160.884         27.4645 
        1.34378         160.737           27.17 
        1.34992         159.782         26.8796 
        1.35606         158.652         26.5928 
         1.3622         158.144         26.3107 
        1.36833         156.346         26.0334 
        1.37445         156.281         25.7602 
        1.38059          154.96         25.4902 
        1.38675         154.156         25.2233 
        1.39288         153.056         24.9614 
        1.39901         152.257         24.7033 
        1.40515         151.566         24.4483 
         1.4113         150.649          24.197 
        1.41742         149.428         23.9502 
        1.42355         149.408         23.7063 
         1.4297         147.956         23.4652 
        1.43585         147.169         23.2274 
        1.44198          145.83         22.9939 
        1.44809         145.083         22.7641 
        1.45423         144.795         22.5365 
        1.46036         143.658         22.3125 
        1.46649         142.743         22.0915 
        1.47263         142.312         21.8732 
        1.47877         141.067          21.658 
        1.48491         140.364         21.4454 
        1.49104         138.815         21.2361 
        1.49718         138.857         21.0294 
        1.50333         138.198         20.8252 
        1.50947         137.237         20.6241 
         1.5156         136.327         20.4259 
        1.52172         135.647         20.2303 
        1.52787         134.916         20.0369 
          1.534         134.222         19.8463 
        1.54013         133.491         19.6584 
        1.54627          132.53         19.4725 
        1.55241         132.024          19.289 
        1.55855         131.284         19.1082 
        1.56467         130.287         18.9301 
         1.5708         129.427         18.7538 
        1.57695         129.028         18.5795 
        1.58308         128.135         18.4079 
        1.58922         127.972         18.2382 
        1.59535         127.189         18.0708 
         1.6015         125.871         17.9053 
        1.60764         125.161         17.7419 
        1.61376         124.633          17.581 
        1.61989         124.051         17.4219 
        1.62604         123.196         17.2645 
        1.63218         122.736         17.1091 
        1.63831         121.853          16.956 
        1.64444          121.07         16.8047 
        1.65059         120.322         16.6549 
        1.65673         120.055         16.5071 
        1.66285         119.489         16.3615 
        1.66898         118.411         16.2176 
        1.67512         118.003         16.0752 
        1.68127          117.28         15.9343 
         1.6874         116.371         15.7955 
        1.69353         115.805         15.6584 
        1.69967         115.287         15.5226 
        1.70581         114.889         15.3884 
        1.71193         113.986         15.2564 
        1.71806         113.284         15.1256 
        1.72421         112.729         14.9961 
        1.73035         112.235         14.8682 
        1.73649         111.393         14.7419 
        1.74262          111.02         14.6172 
        1.74876         110.137         14.4938 
        1.75489         109.776         14.3721 
        1.76101         109.079         14.2518 
        1.76715         108.247         14.1327 
        1.77329         107.916         14.0148 
        1.77943         107.048         13.8983 
        1.78557         106.735         13.7832 
        1.79171         106.262         13.6694 
        1.79785         105.268         13.5569 
        1.80399         105.059         13.4456 
        1.81012         104.184         13.3358 
        1.81625         103.796         13.2272 
        1.82239         103.303         13.1197 
        1.82853         102.736         13.0135 
        1.83466         101.895         12.9085 
        1.84078          101.53         12.8047 
        1.84692         101.243          12.702 
        1.85306         100.495         12.6002 
         1.8592          100.12         12.4998 
        1.86533          99.402         12.4005 
        1.87147         98.9433         12.3021 
        1.87761         98.2049         12.2048 
        1.88375         97.6657         12.1086 
        1.88988          96.921         12.0136 
        1.89601         96.8458         11.9195 
        1.90215         96.1758         11.8264 
        1.90829         95.5064         11.7343 
        1.91442         95.1158         11.6432 
        1.92056         94.6779         11.5531 
         1.9267         94.0236         11.4639 
        1.93284         93.6002         11.3756 
        1.93897         93.2295         11.2884 
        1.94509         92.4881         11.2022 
        1.95123         92.0657         11.1168 
        1.95737          91.738         11.0322 
        1.96349         91.1907         10.9487 
        1.96964          90.739         10.8658 
        1.97578         90.0746         10.7837 
        1.98192         89.5786         10.7027 
        1.98805         89.1336         10.6225 
        1.99419         88.7045          10.543 
        2.00033         88.0298         10.4644 
        2.00647         87.8031         10.3866 
         2.0126         87.3217         10.3097 
        2.01874         87.0845         10.2335 
        2.02488           86.33         10.1579 
        2.03101         86.0041         10.0833 
        2.03714         85.5299         10.0095 
        2.04328          85.088         9.93635 
        2.04941            84.6         9.86398 
        2.05554         84.1943         9.79239 
        2.06167         83.4886         9.72141 
        2.06781         83.0741         9.65113 
        2.07396         82.8521         9.58143 
        2.08009         82.2491         9.51255 
        2.08622         81.9892         9.44442 
        2.09237         81.6052         9.37682 
        2.09851         80.8665         9.30988 
        2.10464         80.7169         9.24369 
        2.11077         80.2612         9.17823 
        2.11691         79.9512         9.11326 
        2.12305          79.412         9.04892 
        2.12918         78.9849         8.98535 
        2.13531         78.5958         8.92238 
        2.14145         77.9813         8.85988 
         2.1476         77.7649          8.7979 
        2.15372         77.3321         8.73682 
        2.15985          76.848         8.67626 
        2.16599         76.5048          8.6161 
        2.17213         76.1483         8.55657 
        2.17827         75.5607         8.49762 
         2.1844         75.2183         8.43928 
        2.19054         74.9968         8.38147 
        2.19666         74.5219         8.32427 
         2.2028         74.0745         8.26756 
        2.20893         73.6901         8.21135 
        2.21508          73.277          8.1556 
        2.22122         72.8589         8.10035 
        2.22736         72.5832         8.04572 
        2.23349         72.1711         7.99161 
        2.23962         71.9207         7.93797 
        2.24577         71.3946         7.88477 
         2.2519         71.0631         7.83213 
        2.25802         70.6342         7.78006 
        2.26417         70.2313         7.72832 
        2.27031         69.8876           7.677 
        2.27644         69.6217         7.62629 
        2.28257         69.2549         7.57605 
        2.28872         68.9038         7.52616 
        2.29486         68.5912         7.47673 
        2.30099         68.0699         7.42784 
        2.30712         67.9193         7.37938 
        2.31326          67.574         7.33126 
         2.3194         67.0726         7.28359 
        2.32553         66.8122         7.23643 
        2.33166         66.3682         7.18971 
         2.3378         66.1413         7.14334 
        2.34394         65.8159         7.09736 
        2.35007         65.4637         7.05184 
        2.35619         65.0954         7.00679 
        2.36233         64.8046         6.96202 
        2.36848         64.4267         6.91754 
        2.37462         64.0585         6.87355 
        2.38075         63.7852         6.82998 
        2.38689         63.4547         6.78676 
        2.39303         63.0927         6.74391 
        2.39916         62.8559         6.70148 
        2.40529         62.5074         6.65942 
        2.41143          62.212         6.61768 
        2.41757         61.7832         6.57629 
         2.4237         61.6543         6.53532 
        2.42983         61.2101         6.49471 
        2.43598         60.9752         6.45434 
        2.44211          60.512         6.41437 
        2.44823         60.3315         6.37483 
        2.45437         60.0091         6.33552 
        2.46052         59.6239         6.29651 
        2.46665         59.3033         6.25789 
        2.47279         59.0458         6.21961 
        2.47892         58.8182         6.18162 
        2.48507         58.4074         6.14392 
         2.4912         58.1967          6.1066 
