# k  (h/Mpc)    Pcb(k)  (Mpc/h)^3    Pcb_linear(k)  (Mpc/h)^3
     0.00783031         2927.91         2945.45 
       0.013688         3661.28         3713.01 
       0.019231         3807.82         3833.83 
      0.0249154         3612.89         3609.27 
      0.0312784         3167.42         3176.28 
      0.0375637         2716.64         2732.47 
      0.0433917         2390.16         2388.22 
      0.0492413         2122.54          2130.1 
      0.0555754          1940.5         1936.36 
      0.0619321         1773.35         1798.75 
       0.067871         1680.32         1689.27 
      0.0738098         1570.31          1575.2 
      0.0800417         1439.91         1440.06 
      0.0862327         1289.57         1293.88 
      0.0921407         1152.94         1155.28 
      0.0982031         1033.46         1027.43 
       0.104506          917.65         919.853 
       0.110769         841.979         841.341 
       0.116806         798.331         788.764 
       0.122832         753.491         751.392 
       0.129052         723.838          719.44 
       0.135211         695.318         686.427 
       0.141259         651.999         648.222 
       0.147318         602.869         603.839 
       0.153489         559.269         555.371 
       0.159709         518.441         507.948 
       0.165845         470.562         466.818 
       0.171974         448.603         433.779 
       0.178125         424.321         408.951 
       0.184229         400.572         390.994 
        0.19034         390.602         377.038 
       0.196428         377.518         364.281 
       0.202534         356.618         350.364 
       0.208729          346.01         333.942 
       0.214876         330.419         315.523 
       0.220989         306.071         296.268 
       0.227147         294.411         277.497 
        0.23329          279.59         260.774 
       0.239377         268.571          246.96 
       0.245482         255.104         235.925 
       0.251667         244.405         227.078 
       0.257832         240.929         219.685 
       0.263955         229.308         212.778 
       0.270079         221.511         205.532 
        0.27624         212.005         197.542 
       0.282372         204.748         188.927 
        0.28843         200.843         180.142 
       0.294538         190.813         171.514 
       0.300721         181.812         163.493 
        0.30691         177.758         156.474 
       0.313033         170.254          150.57 
       0.319153         167.186         145.551 
       0.325316         160.855         141.077 
        0.33145         156.108         136.879 
       0.337538         151.477         132.692 
       0.343633         147.049         128.336 
       0.349808         142.264          123.75 
       0.355968         137.986         119.105 
       0.362074         134.942         114.607 
       0.368217         131.186         110.336 
       0.374374         127.959         106.434 
       0.380519         122.435         102.942 
       0.386598         119.471         99.8419 
       0.392688         116.105         97.0053 
        0.39888         114.024          94.273 
       0.405048         111.456         91.6118 
       0.411186         109.002         88.9616 
       0.417313         106.048         86.2885 
       0.423458         103.208         83.6183 
       0.429607         101.243         81.0006 
       0.435692         99.4439         78.5135 
       0.441815         95.9855         76.1614 
       0.447964         93.1297         73.9678 
       0.454126         91.4332          71.924 
       0.460267         90.6538         70.0201 
       0.466387         88.3223         68.2189 
        0.47254          87.208         66.4626 
       0.478662         84.2566         64.7448 
       0.484765         82.7851         63.0565 
       0.490885         80.6182         61.3877 
       0.497035         79.7914         59.7429 
       0.503198         77.8402         58.1482 
       0.509342         75.8337         56.6284 
       0.515458         74.9164          55.191 
       0.521598         73.0838         53.8189 
       0.527764         72.1896         52.5079 
       0.533884         71.1515         51.2638 
           0.54         69.4549         50.0646 
       0.546137         67.5613         48.8921 
       0.552299         66.4879         47.7379 
       0.558452         65.1829          46.611 
       0.564573         64.8062         45.5184 
       0.570708         62.8903          44.455 
       0.576825         62.2314         43.4289 
       0.582926         61.3555         42.4411 
       0.589034         60.1982         41.4896 
       0.595184         59.3978         40.5694 
       0.601379         57.8437         39.6777 
       0.607522         57.0012         38.8222 
       0.613639         56.3373         37.9941 
       0.619772          55.316         37.1839 
       0.625918          54.419         36.3915 
       0.632068         53.8817         35.6193 
       0.638161         52.8093         34.8754 
         0.6443         52.2157         34.1477 
       0.650464         51.0166         33.4393 
       0.656582          50.744         32.7571 
       0.662703         50.1163         32.0949 
       0.668861         48.8883         31.4485 
       0.675024         48.5377         30.8206 
       0.681124         48.0228          30.217 
       0.687237         47.0538         29.6288 
       0.693381         46.4037         29.0534 
       0.699536         46.0774         28.4918 
       0.705665         45.2718         27.9466 
       0.711789         44.5618         27.4153 
       0.717957         43.8171         26.8938 
        0.72409         43.4052         26.3886 
       0.730186         43.1785         25.8996 
       0.736317          42.357         25.4208 
       0.742472         41.8646         24.9531 
       0.748622         41.2302         24.4982 
        0.75476         40.4127          24.056 
       0.760888         40.3465         23.6257 
       0.767043         39.6205         23.2043 
       0.773185         39.2471          22.794 
       0.779291         38.7589         22.3957 
       0.785407          38.175         22.0062 
       0.791564         38.1033         21.6234 
       0.797719         37.3627         21.2498 
       0.803834         37.1205         20.8873 
       0.809972         36.5366         20.5321 
       0.816124         36.1726         20.1844 
       0.822261         35.7619         19.8458 
       0.828378         35.4893         19.5161 
       0.834502         35.1019         19.1938 
       0.840667         34.7666         18.8768 
       0.846816         34.0974         18.5679 
       0.852925         34.0009         18.2679 
       0.859047         33.7161          17.974 
       0.865192         33.2034         17.6857 
       0.871341         32.8156         17.4035 
       0.877463         32.5229         17.1287 
       0.883569         32.3656         16.8606 
       0.889708          31.928         16.5969 
       0.895864         31.5461         16.3382 
       0.902008         31.2038         16.0856 
       0.908149          30.912         15.8385 
       0.914301         30.7262         15.5962 
       0.920448          30.341         15.3592 
       0.926574         29.9932          15.128 
       0.932687         29.7218          14.902 
       0.938823         29.3642         14.6799 
       0.944975         29.1415         14.4619 
       0.951105         28.8901          14.249 
       0.957225         28.7112         14.0409 
       0.963368         28.3141         13.8362 
       0.969511         28.0828         13.6356 
       0.975621         27.8481         13.4401 
       0.981748         27.5276         13.2479 
       0.987916         27.3673         13.0583 
        0.99406         27.0272         12.8731 
        1.00019         26.8689         12.6919 
        1.00632          26.645         12.5143 
        1.01246         26.4214         12.3399 
        1.01859         26.1295         12.1692 
        1.02471         25.9086         12.0018 
        1.03085         25.8044         11.8371 
        1.03698         25.5883         11.6758 
        1.04314         25.3105         11.5169 
        1.04929         25.0345         11.3613 
        1.05541          24.946         11.2091 
        1.06154         24.7706         11.0595 
        1.06769         24.4558         10.9123 
        1.07382          24.253         10.7683 
        1.07993         24.0462         10.6272 
        1.08607         23.9165         10.4881 
        1.09222         23.6936         10.3514 
        1.09836         23.4972         10.2173 
        1.10449         23.3576         10.0857 
        1.11063         23.1859         9.95626 
        1.11677         23.1036         9.82918 
         1.1229         22.8596         9.70454 
        1.12903         22.6782         9.58196 
        1.13518         22.5137          9.4614 
        1.14131         22.3688           9.343 
        1.14745         22.0908         9.22669 
        1.15359         21.9098         9.11235 
        1.15973         21.7677         8.99991 
        1.16584         21.6062         8.88987 
        1.17197          21.392         8.78152 
        1.17811         21.2895         8.67465 
        1.18424          21.113         8.56988 
        1.19038         21.0266         8.46654 
        1.19652         20.8176         8.36495 
        1.20267         20.7178         8.26502 
        1.20881         20.5171         8.16676 
        1.21495         20.3939         8.07025 
        1.22108         20.3434         7.97531 
         1.2272         20.1786         7.88213 
        1.23334         20.0389         7.79023 
        1.23949         19.8767         7.69958 
        1.24562         19.6804         7.61062 
        1.25174         19.6206         7.52321 
        1.25789         19.4873         7.43691 
        1.26402         19.3863         7.35212 
        1.27014         19.2742         7.26886 
        1.27628         19.0587         7.18664 
        1.28244         19.0601         7.10554 
        1.28858          18.845          7.0258 
        1.29471         18.6593         6.94747 
        1.30084         18.5591          6.8704 
        1.30697           18.51         6.79439 
        1.31312         18.3394         6.71942 
        1.31925         18.2471         6.64582 
        1.32537         18.1076          6.5734 
        1.33151          17.998          6.5018 
        1.33765         17.9317         6.43131 
        1.34378         17.8304           6.362 
        1.34992         17.7026         6.29368 
        1.35606         17.5383         6.22621 
         1.3622         17.4195         6.15985 
        1.36833         17.3886         6.09462 
        1.37445         17.2857         6.03037 
        1.38059         17.1726         5.96685 
        1.38675         17.0555          5.9041 
        1.39288         16.9213          5.8425 
        1.39901         16.8461          5.7818 
        1.40515         16.7471         5.72184 
         1.4113         16.6462         5.66275 
        1.41742         16.5766         5.60472 
        1.42355         16.4295          5.5474 
         1.4297         16.3518          5.4907 
        1.43585         16.2726         5.43483 
        1.44198         16.2099         5.37994 
        1.44809         16.0955         5.32592 
        1.45423         15.9905         5.27244 
        1.46036          15.903         5.21979 
        1.46649         15.8046         5.16785 
        1.47263         15.7461         5.11657 
        1.47877         15.6564         5.06601 
        1.48491         15.5628         5.01605 
        1.49104         15.4641         4.96687 
        1.49718         15.4011         4.91832 
        1.50333         15.3266         4.87033 
        1.50947          15.246         4.82309 
         1.5156         15.1632         4.77654 
        1.52172         15.0604         4.73061 
        1.52787         15.0056         4.68518 
          1.534          14.933         4.64041 
        1.54013         14.8556         4.59627 
        1.54627         14.7422         4.55263 
        1.55241         14.6443         4.50955 
        1.55855          14.606         4.46708 
        1.56467         14.5517         4.42528 
         1.5708         14.4845          4.3839 
        1.57695         14.3852         4.34298 
        1.58308          14.286         4.30268 
        1.58922         14.2377         4.26287 
        1.59535         14.1574         4.22357 
         1.6015         14.0389         4.18472 
        1.60764         14.0014         4.14637 
        1.61376         13.9598         4.10861 
        1.61989           13.85         4.07129 
        1.62604         13.8211         4.03435 
        1.63218         13.7525         3.99789 
        1.63831         13.6484         3.96197 
        1.64444         13.5733         3.92647 
        1.65059         13.5068         3.89133 
        1.65673         13.4755         3.85665 
        1.66285         13.3746          3.8225 
        1.66898         13.3559         3.78875 
        1.67512         13.2947         3.75533 
        1.68127         13.1773          3.7223 
         1.6874          13.158         3.68973 
        1.69353         13.0434         3.65757 
        1.69967         13.0038         3.62572 
        1.70581         12.9569         3.59426 
        1.71193         12.8859          3.5633 
        1.71806         12.8401         3.53263 
        1.72421         12.7631         3.50227 
        1.73035         12.7062         3.47229 
        1.73649          12.671         3.44267 
        1.74262         12.5454         3.41342 
        1.74876         12.5454         3.38449 
        1.75489         12.4863         3.35596 
        1.76101         12.3974         3.32776 
        1.76715         12.3674         3.29985 
        1.77329         12.3027         3.27222 
        1.77943         12.2214          3.2449 
        1.78557         12.2142         3.21793 
        1.79171         12.1307         3.19126 
        1.79785         12.1032         3.16489 
        1.80399          12.012         3.13882 
        1.81012         11.9853         3.11308 
        1.81625         11.8988         3.08765 
        1.82239         11.8574         3.06245 
        1.82853         11.7945         3.03755 
        1.83466         11.7234         3.01295 
        1.84078         11.7072         2.98865 
        1.84692         11.6785         2.96458 
        1.85306          11.618         2.94075 
         1.8592         11.5649         2.91721 
        1.86533          11.494         2.89394 
        1.87147         11.4472          2.8709 
        1.87761         11.4045         2.84811 
        1.88375         11.3611         2.82558 
        1.88988         11.2851         2.80333 
        1.89601         11.2669          2.7813 
        1.90215          11.194         2.75949 
        1.90829         11.1448         2.73792 
        1.91442         11.0946         2.71658 
        1.92056         11.0997         2.69549 
         1.9267         11.0228         2.67461 
        1.93284         11.0052         2.65393 
        1.93897         10.9214         2.63351 
        1.94509          10.882         2.61334 
        1.95123         10.8507         2.59334 
        1.95737         10.8131         2.57353 
        1.96349         10.7258         2.55398 
        1.96964         10.6952         2.53458 
        1.97578         10.6728         2.51537 
        1.98192         10.6171          2.4964 
        1.98805         10.5738         2.47762 
        1.99419         10.5334         2.45903 
        2.00033         10.4968         2.44062 
        2.00647         10.4482         2.42241 
         2.0126         10.4164         2.40442 
        2.01874         10.3421         2.38657 
        2.02488         10.3148          2.3689 
        2.03101         10.2867         2.35143 
        2.03714         10.2329         2.33416 
        2.04328         10.1748         2.31704 
        2.04941         10.1336         2.30011 
        2.05554         10.1219         2.28336 
        2.06167         10.0835         2.26675 
        2.06781         10.0279         2.25031 
        2.07396         10.0099           2.234 
        2.08009         9.92704         2.21788 
        2.08622         9.93533         2.20195 
        2.09237         9.89517         2.18613 
        2.09851         9.82732         2.17047 
        2.10464         9.81606         2.15499 
        2.11077         9.74401         2.13968 
        2.11691         9.74311         2.12448 
        2.12305         9.68067         2.10943 
        2.12918         9.62631         2.09456 
        2.13531         9.61265         2.07984 
        2.14145         9.57087         2.06522 
         2.1476         9.54094         2.05072 
        2.15372         9.50255         2.03644 
        2.15985         9.46649         2.02227 
        2.16599         9.43538         2.00821 
        2.17213         9.42384         1.99429 
        2.17827         9.36501          1.9805 
         2.1844         9.33903         1.96686 
        2.19054         9.31037         1.95334 
        2.19666         9.27119         1.93997 
         2.2028         9.23445         1.92671 
        2.20893         9.19294         1.91357 
        2.21508         9.16889         1.90053 
        2.22122         9.10884         1.88761 
        2.22736         9.08935         1.87484 
        2.23349         9.05731         1.86219 
        2.23962         9.03527         1.84965 
        2.24577         9.00662         1.83722 
         2.2519         8.98424         1.82492 
        2.25802         8.89469         1.81274 
        2.26417         8.90596         1.80065 
        2.27031         8.86419         1.78866 
        2.27644         8.83882          1.7768 
        2.28257         8.77582         1.76506 
        2.28872         8.76816          1.7534 
        2.29486         8.73595         1.74185 
        2.30099         8.71921         1.73043 
        2.30712         8.65873          1.7191 
        2.31326         8.62473         1.70785 
         2.3194         8.60599         1.69672 
        2.32553         8.57066          1.6857 
        2.33166         8.53774         1.67478 
         2.3378         8.51946         1.66394 
        2.34394         8.48873          1.6532 
        2.35007         8.45277         1.64256 
        2.35619         8.42678         1.63204 
        2.36233         8.38206         1.62158 
        2.36848         8.36327         1.61119 
        2.37462         8.33697         1.60091 
        2.38075         8.31402         1.59073 
        2.38689         8.29199         1.58063 
        2.39303         8.23531         1.57062 
        2.39916         8.22391         1.56071 
        2.40529         8.19529         1.55089 
        2.41143         8.15844         1.54114 
        2.41757         8.12737         1.53147 
         2.4237         8.11377          1.5219 
        2.42983         8.08433         1.51241 
        2.43598         8.05586         1.50298 
        2.44211         8.03302         1.49365 
        2.44823         7.99359         1.48442 
        2.45437         7.96644         1.47523 
        2.46052         7.95744         1.46612 
        2.46665         7.92538          1.4571 
        2.47279         7.89992         1.44816 
        2.47892         7.85489         1.43929 
        2.48507         7.83663         1.43049 
         2.4912         7.81166         1.42177 
