# k  (h/Mpc)    P(k)  (Mpc/h)^3    P_linear(k)  (Mpc/h)^3
     0.00783031         821.198         827.886 
       0.013688         1032.32         1043.17 
       0.019231         1072.07         1076.92 
      0.0249154         1013.49         1013.75 
      0.0312784         891.137         892.084 
      0.0375637         765.824         767.408 
      0.0433917         672.018         670.712 
      0.0492413         597.885         598.211 
      0.0555754         545.452         543.795 
      0.0619321          501.93         505.145 
       0.067871         473.785         474.397 
      0.0738098         442.102         442.359 
      0.0800417         404.991         404.407 
      0.0862327         363.138         363.355 
      0.0921407         324.301          324.43 
      0.0982031         289.613         288.527 
       0.104506         257.918         258.316 
       0.110769         236.208         236.268 
       0.116806         222.752         221.503 
       0.122832         211.055         211.008 
       0.129052         202.643         202.035 
       0.135211         193.857         192.764 
       0.141259         182.367         182.035 
       0.147318         169.172         169.571 
       0.153489         156.274          155.96 
       0.159709         143.638         142.643 
       0.165845         131.005         131.092 
       0.171974         123.318         121.814 
       0.178125         116.253         114.842 
       0.184229         110.568         109.799 
        0.19034         107.309          105.88 
       0.196428         103.514         102.298 
       0.202534         98.6042         98.3893 
       0.208729         94.7958         93.7776 
       0.214876         90.1317         88.6054 
       0.220989         83.8267         83.1979 
       0.227147         79.6618         77.9267 
        0.23329         75.1616         73.2304 
       0.239377          71.492          69.351 
       0.245482         68.1753         66.2523 
       0.251667         65.2975         63.7679 
       0.257832         63.7909         61.6921 
       0.263955          61.275         59.7523 
       0.270079         59.1996         57.7176 
        0.27624         56.6594         55.4739 
       0.282372         54.3726         53.0545 
        0.28843         52.5546         50.5873 
       0.294538         50.0176         48.1645 
       0.300721         47.4951          45.912 
        0.30691         45.9869         43.9411 
       0.313033         44.1598          42.283 
       0.319153          43.182         40.8737 
       0.325316         41.3249         39.6174 
        0.33145         40.0665         38.4384 
       0.337538         38.9648         37.2625 
       0.343633         37.8622         36.0391 
       0.349808         36.4804         34.7514 
       0.355968          35.147         33.4472 
       0.362074         34.1736         32.1838 
       0.368217         32.9356         30.9845 
       0.374374         32.0883         29.8889 
       0.380519         30.7796          28.908 
       0.386598         29.8229         28.0376 
       0.392688         28.9535         27.2409 
        0.39888         28.3335         26.4737 
       0.405048         27.6217         25.7264 
       0.411186         26.8281         24.9821 
       0.417313         26.0583         24.2315 
       0.423458         25.1967         23.4817 
       0.429607          24.672         22.7465 
       0.435692         24.0901         22.0481 
       0.441815         23.2033         21.3876 
       0.447964         22.4751         20.7716 
       0.454126          22.051         20.1976 
       0.460267         21.7068         19.6631 
       0.466387         21.0733         19.1572 
        0.47254         20.6739          18.664 
       0.478662         20.0798         18.1816 
       0.484765         19.6093         17.7075 
       0.490885         19.0396         17.2388 
       0.497035           18.57          16.777 
       0.503198         18.1879         16.3291 
       0.509342         17.6586         15.9023 
       0.515458         17.3689         15.4987 
       0.521598         16.9647         15.1134 
       0.527764         16.6845         14.7452 
       0.533884         16.1859         14.3959 
           0.54         15.8917         14.0591 
       0.546137         15.4296         13.7298 
       0.552299         15.1465         13.4057 
       0.558452          14.814         13.0893 
       0.564573         14.5733         12.7825 
       0.570708         14.2371         12.4838 
       0.576825         13.9629         12.1957 
       0.582926         13.6608         11.9183 
       0.589034         13.4043          11.651 
       0.595184         13.2075         11.3927 
       0.601379         12.8552         11.1423 
       0.607522          12.616          10.902 
       0.613639         12.3383         10.6695 
       0.619772         12.1521         10.4419 
       0.625918         11.8956         10.2194 
       0.632068         11.7329         10.0026 
       0.638161         11.4915         9.79367 
         0.6443         11.2669         9.58934 
       0.650464         11.0052         9.39039 
       0.656582         10.9046         9.19883 
       0.662703         10.7301         9.01287 
       0.668861          10.441         8.83135 
       0.675024         10.2727         8.65502 
       0.681124         10.2353         8.48552 
       0.687237         9.99552         8.32034 
       0.693381         9.74072         8.15876 
       0.699536         9.67346         8.00105 
       0.705665         9.49161         7.84794 
       0.711789         9.28972         7.69875 
       0.717957         9.10717         7.55229 
        0.72409         9.00636         7.41042 
       0.730186         8.92637          7.2731 
       0.736317         8.72282         7.13865 
       0.742472         8.61188          7.0073 
       0.748622         8.47826         6.87955 
        0.75476         8.26669         6.75539 
       0.760888         8.20005         6.63454 
       0.767043         8.01576         6.51621 
       0.773185         7.91825         6.40098 
       0.779291         7.86827         6.28915 
       0.785407         7.70674         6.17977 
       0.791564         7.60642         6.07226 
       0.797719          7.4647         5.96734 
       0.803834         7.38644         5.86556 
       0.809972         7.25267         5.76579 
       0.816124         7.15926         5.66816 
       0.822261         7.06385         5.57308 
       0.828378         6.95542          5.4805 
       0.834502          6.8676         5.38999 
       0.840667         6.79391         5.30096 
       0.846816         6.65891         5.21422 
       0.852925         6.58165         5.12998 
       0.859047         6.49242         5.04745 
       0.865192         6.40171         4.96647 
       0.871341         6.31147         4.88723 
       0.877463         6.22371         4.81007 
       0.883569         6.15641         4.73479 
       0.889708         6.06972         4.66073 
       0.895864         5.99088         4.58808 
       0.902008         5.89952         4.51714 
       0.908149         5.82384         4.44774 
       0.914301         5.76612          4.3797 
       0.920448         5.69124         4.31315 
       0.926574         5.65132         4.24822 
       0.932687         5.55521         4.18478 
       0.938823         5.46346         4.12241 
       0.944975         5.42336         4.06117 
       0.951105         5.32564         4.00141 
       0.957225         5.28894         3.94295 
       0.963368         5.22897         3.88547 
       0.969511         5.16683         3.82914 
       0.975621         5.09556         3.77423 
       0.981748         5.00649         3.72026 
       0.987916         4.96309         3.66701 
        0.99406         4.92872         3.61501 
        1.00019         4.87046         3.56413 
        1.00632         4.82086         3.51427 
        1.01246         4.75029         3.46529 
        1.01859         4.69734         3.41734 
        1.02471         4.62446         3.37035 
        1.03085         4.59574         3.32409 
        1.03698         4.54505          3.2788 
        1.04314         4.49824         3.23416 
        1.04929          4.4373         3.19046 
        1.05541         4.38517         3.14774 
        1.06154         4.35068         3.10571 
        1.06769         4.32339         3.06438 
        1.07382         4.24907         3.02395 
        1.07993         4.19725         2.98434 
        1.08607         4.17136         2.94527 
        1.09222         4.11275         2.90687 
        1.09836         4.10096          2.8692 
        1.10449         4.01477         2.83225 
        1.11063         3.99081         2.79591 
        1.11677         3.95589         2.76022 
         1.1229         3.90764         2.72522 
        1.12903         3.88214          2.6908 
        1.13518          3.8236         2.65694 
        1.14131         3.78789         2.62369 
        1.14745         3.74445         2.59103 
        1.15359          3.7119         2.55892 
        1.15973         3.67128         2.52735 
        1.16584         3.63909         2.49645 
        1.17197         3.59842         2.46602 
        1.17811         3.56272         2.43601 
        1.18424         3.52821         2.40659 
        1.19038         3.49594         2.37757 
        1.19652         3.47007         2.34904 
        1.20267         3.44013         2.32098 
        1.20881         3.40095         2.29338 
        1.21495         3.37072         2.26628 
        1.22108         3.34208         2.23962 
         1.2272         3.29583         2.21345 
        1.23334         3.28627         2.18765 
        1.23949         3.24648         2.16219 
        1.24562         3.22006         2.13721 
        1.25174         3.19581         2.11266 
        1.25789         3.15212         2.08843 
        1.26402         3.12432         2.06462 
        1.27014         3.09708         2.04123 
        1.27628         3.06947         2.01815 
        1.28244         3.04767         1.99537 
        1.28858         3.02252         1.97298 
        1.29471         2.98272         1.95098 
        1.30084         2.96028         1.92934 
        1.30697         2.94317           1.908 
        1.31312         2.91536         1.88694 
        1.31925         2.88928         1.86627 
        1.32537         2.86874         1.84594 
        1.33151         2.83787         1.82583 
        1.33765         2.81704         1.80603 
        1.34378         2.79661         1.78657 
        1.34992         2.77323         1.76739 
        1.35606         2.74989         1.74844 
         1.3622         2.72893          1.7298 
        1.36833         2.69874         1.71149 
        1.37445         2.67493         1.69344 
        1.38059         2.65467         1.67561 
        1.38675         2.63423         1.65798 
        1.39288          2.6198         1.64069 
        1.39901         2.58937         1.62364 
        1.40515         2.57087          1.6068 
         1.4113         2.55545         1.59021 
        1.41742         2.52713         1.57391 
        1.42355         2.50626         1.55782 
         1.4297         2.49396          1.5419 
        1.43585         2.47236          1.5262 
        1.44198         2.45202         1.51079 
        1.44809         2.43713         1.49562 
        1.45423         2.41787          1.4806 
        1.46036         2.39983         1.46582 
        1.46649         2.37043         1.45123 
        1.47263         2.36442         1.43683 
        1.47877         2.34955         1.42263 
        1.48491         2.32196          1.4086 
        1.49104         2.30861         1.39479 
        1.49718         2.29133         1.38116 
        1.50333         2.27241         1.36768 
        1.50947         2.25679         1.35442 
         1.5156          2.2403         1.34134 
        1.52172         2.22564         1.32845 
        1.52787         2.20889         1.31569 
          1.534         2.19541         1.30312 
        1.54013         2.17564         1.29072 
        1.54627         2.16044         1.27847 
        1.55241         2.14079         1.26637 
        1.55855         2.12965         1.25444 
        1.56467         2.11493          1.2427 
         1.5708         2.09972         1.23108 
        1.57695         2.08043         1.21959 
        1.58308           2.064         1.20828 
        1.58922         2.05791          1.1971 
        1.59535         2.03631         1.18606 
         1.6015         2.02133         1.17515 
        1.60764          2.0118         1.16438 
        1.61376         1.99367         1.15378 
        1.61989         1.98178          1.1433 
        1.62604         1.96389         1.13292 
        1.63218         1.95893         1.12269 
        1.63831         1.94489          1.1126 
        1.64444         1.92928         1.10263 
        1.65059         1.92049         1.09276 
        1.65673         1.90099         1.08302 
        1.66285         1.88947         1.07343 
        1.66898         1.87983         1.06395 
        1.67512         1.86146         1.05457 
        1.68127         1.84952         1.04529 
         1.6874         1.84569         1.03615 
        1.69353         1.82558         1.02712 
        1.69967         1.81586         1.01817 
        1.70581         1.80946         1.00934 
        1.71193         1.78741         1.00064 
        1.71806         1.77996        0.992032 
        1.72421         1.77177        0.983504 
        1.73035         1.75428        0.975087 
        1.73649         1.75077        0.966769 
        1.74262         1.73633        0.958555 
        1.74876         1.72454        0.950431 
        1.75489          1.7145        0.942418 
        1.76101         1.70009          0.9345 
        1.76715         1.69323        0.926662 
        1.77329         1.68158        0.918903 
        1.77943         1.67208        0.911231 
        1.78557          1.6635        0.903657 
        1.79171         1.65395        0.896168 
        1.79785         1.64258        0.888763 
        1.80399         1.63143        0.881442 
        1.81012         1.62076        0.874214 
        1.81625         1.60828        0.867071 
        1.82239         1.60162        0.859996 
        1.82853         1.59174        0.853004 
        1.83466         1.57891        0.846096 
        1.84078         1.57068        0.839272 
        1.84692         1.56254        0.832512 
        1.85306         1.55637        0.825819 
         1.8592         1.54306        0.819209 
        1.86533         1.53579        0.812676 
        1.87147         1.52439        0.806206 
        1.87761         1.51845        0.799803 
        1.88375         1.50823        0.793478 
        1.88988         1.49916        0.787228 
        1.89601         1.48966        0.781042 
        1.90215         1.48158        0.774917 
        1.90829          1.4752        0.768862 
        1.91442         1.46402         0.76287 
        1.92056           1.459        0.756947 
         1.9267         1.45076        0.751081 
        1.93284          1.4393        0.745274 
        1.93897         1.43043         0.73954 
        1.94509         1.42624        0.733878 
        1.95123         1.41451        0.728261 
        1.95737         1.40952        0.722698 
        1.96349         1.40043        0.717208 
        1.96964         1.39504        0.711759 
        1.97578         1.38323        0.706365 
        1.98192         1.37466        0.701037 
        1.98805         1.36947        0.695763 
        1.99419         1.36141        0.690544 
        2.00033         1.35397        0.685375 
        2.00647         1.34882         0.68026 
         2.0126         1.34289        0.675207 
        2.01874         1.33314        0.670196 
        2.02488           1.324        0.665233 
        2.03101         1.31844        0.660328 
        2.03714         1.31294        0.655478 
        2.04328         1.30418        0.650671 
        2.04941         1.29686        0.645916 
        2.05554         1.29029        0.641211 
        2.06167         1.28309        0.636548 
        2.06781         1.27554         0.63193 
        2.07396         1.27091        0.627351 
        2.08009         1.26422        0.622825 
        2.08622          1.2564        0.618349 
        2.09237         1.25185        0.613909 
        2.09851         1.24272        0.609511 
        2.10464         1.23943        0.605163 
        2.11077         1.23115        0.600864 
        2.11691         1.22403        0.596596 
        2.12305         1.21994        0.592369 
        2.12918         1.21089        0.588194 
        2.13531         1.20583        0.584059 
        2.14145         1.19986        0.579953 
         2.1476         1.19344        0.575883 
        2.15372         1.18695        0.571871 
        2.15985         1.18116        0.567894 
        2.16599         1.17722        0.563943 
        2.17213          1.1705        0.560034 
        2.17827         1.16308        0.556163 
         2.1844         1.15794        0.552332 
        2.19054         1.15251        0.548536 
        2.19666         1.14762        0.544781 
         2.2028         1.14106        0.541057 
        2.20893         1.13541        0.537367 
        2.21508         1.13032        0.533706 
        2.22122           1.126        0.530079 
        2.22736         1.11682        0.526493 
        2.23349         1.11261         0.52294 
        2.23962         1.10903        0.519419 
        2.24577         1.10305        0.515927 
         2.2519         1.09673        0.512472 
        2.25802         1.09429        0.509054 
        2.26417         1.08674        0.505658 
        2.27031         1.08245        0.502289 
        2.27644         1.07794        0.498961 
        2.28257         1.06982        0.495664 
        2.28872         1.06862        0.492389 
        2.29486         1.06157        0.489146 
        2.30099         1.05634        0.485937 
        2.30712         1.05351        0.482757 
        2.31326         1.04777        0.479599 
         2.3194         1.04215        0.476471 
        2.32553         1.03692        0.473376 
        2.33166         1.03436         0.47031 
         2.3378         1.02859        0.467267 
        2.34394         1.02353         0.46425 
        2.35007         1.01616        0.461264 
        2.35619         1.01354        0.458308 
        2.36233         1.00879         0.45537 
        2.36848         1.00602        0.452452 
        2.37462         1.00092        0.449566 
        2.38075        0.995285        0.446708 
        2.38689        0.992087        0.443872 
        2.39303        0.987581        0.441062 
        2.39916        0.982209        0.438278 
        2.40529        0.980043        0.435519 
        2.41143        0.972089        0.432782 
        2.41757        0.969886        0.430066 
         2.4237        0.965401        0.427379 
        2.42983        0.959872        0.424716 
        2.43598        0.957031        0.422068 
        2.44211        0.952193        0.419446 
        2.44823        0.948733        0.416853 
        2.45437        0.945195        0.414275 
        2.46052        0.941792        0.411716 
        2.46665        0.937174        0.409184 
        2.47279        0.932691        0.406673 
        2.47892        0.927968        0.404182 
        2.48507         0.92584        0.401709 
         2.4912        0.919956        0.399262 
