# k  (h/Mpc)    P(k)  (Mpc/h)^3    P_linear(k)  (Mpc/h)^3
     0.00783031         2079.95          2096.3 
       0.013688         2605.29         2640.58 
       0.019231         2708.24         2725.63 
      0.0249154         2566.56         2565.53 
      0.0312784         2252.33         2257.49 
      0.0375637         1933.04         1941.92 
      0.0433917         1699.32         1697.19 
      0.0492413         1509.95         1513.71 
      0.0555754         1379.62            1376 
      0.0619321         1263.61         1278.18 
       0.067871         1195.94         1200.37 
      0.0738098         1117.04          1119.3 
      0.0800417         1024.03         1023.26 
      0.0862327         917.403         919.387 
      0.0921407         819.793         820.894 
      0.0982031         733.906         730.047 
       0.104506         652.181         653.605 
       0.110769         598.001         597.816 
       0.116806         566.035         560.456 
       0.122832         534.858           533.9 
       0.129052         513.853         511.196 
       0.135211         492.878         487.737 
       0.141259         462.672          460.59 
       0.147318         428.202         429.053 
       0.153489         396.661         394.613 
       0.159709         366.549         360.918 
       0.165845         333.135         331.692 
       0.171974         316.306         308.217 
       0.178125         298.751         290.575 
       0.184229         282.805         277.816 
        0.19034         275.351         267.899 
       0.196428         265.908         258.835 
       0.202534         251.832         248.946 
       0.208729         243.606         237.277 
       0.214876         232.365          224.19 
       0.220989         215.368         210.508 
       0.227147         206.416         197.171 
        0.23329         195.593         185.288 
       0.239377         187.193         175.473 
       0.245482          178.02         167.632 
       0.251667         170.474         161.346 
       0.257832         167.623         156.094 
       0.263955         159.974         151.186 
       0.270079         154.544         146.037 
        0.27624         147.875          140.36 
       0.282372         142.472         134.239 
        0.28843         139.124         127.996 
       0.294538         132.282         121.866 
       0.300721          125.79         116.167 
        0.30691         122.641          111.18 
       0.313033         117.568         106.985 
       0.319153         115.368         103.419 
       0.325316         110.625          100.24 
        0.33145         107.267         97.2569 
       0.337538         104.218         94.2816 
       0.343633         101.253         91.1863 
       0.349808            97.8         87.9282 
       0.355968         94.6007         84.6281 
       0.362074         92.4577         81.4315 
       0.368217         89.5503         78.3972 
       0.374374          87.366          75.625 
       0.380519         83.6035          73.143 
       0.386598         81.3363         70.9407 
       0.392688          79.006         68.9251 
        0.39888         77.5714         66.9838 
       0.405048         75.7636         65.0929 
       0.411186         73.8543         63.2098 
       0.417313         71.7731         61.3106 
       0.423458         69.7183         59.4134 
       0.429607         68.4174         57.5533 
       0.435692         67.1421         55.7861 
       0.441815         64.6061         54.1149 
       0.447964          62.655         52.5563 
       0.454126         61.5421         51.1039 
       0.460267         60.9359         49.7514 
       0.466387         59.2545         48.4715 
        0.47254         58.4154         47.2238 
       0.478662         56.5172          46.003 
       0.484765         55.3922         44.8036 
       0.490885         53.8288         43.6176 
       0.497035         53.0582         42.4491 
       0.503198         51.8056         41.3159 
       0.509342         50.4189         40.2361 
       0.515458         49.7804         39.2148 
       0.521598         48.5801         38.2399 
       0.527764         47.9277         37.3083 
       0.533884         46.9472         36.4244 
           0.54         45.9634         35.5723 
       0.546137          44.612         34.7392 
       0.552299         43.8719         33.9192 
       0.558452         42.9709         33.1185 
       0.564573         42.6042         32.3422 
       0.570708         41.4213         31.5866 
       0.576825         40.9019         30.8574 
       0.582926         40.2196         30.1557 
       0.589034         39.4293         29.4794 
       0.595184         38.9132         28.8258 
       0.601379         37.8682         28.1921 
       0.607522         37.2957         27.5843 
       0.613639          36.733         26.9959 
       0.619772         36.0991         26.4202 
       0.625918         35.4034         25.8572 
       0.632068          35.102         25.3085 
       0.638161         34.3787         24.7799 
         0.6443         33.8708         24.2629 
       0.650464         33.0441         23.7596 
       0.656582         32.8441         23.2749 
       0.662703         32.4498         22.8044 
       0.668861         31.6023         22.3451 
       0.675024         31.2489         21.8989 
       0.681124         31.0313         21.4701 
       0.687237         30.4013         21.0521 
       0.693381         29.8092         20.6433 
       0.699536         29.6626         20.2442 
       0.705665          29.111         19.8568 
       0.711789          28.608         19.4794 
       0.717957          28.052         19.1088 
        0.72409         27.8023         18.7498 
       0.730186         27.6657         18.4024 
       0.736317         27.1013         18.0622 
       0.742472         26.7675         17.7299 
       0.748622          26.348         17.4066 
        0.75476         25.7191         17.0925 
       0.760888         25.6457         16.7867 
       0.767043         25.2104         16.4873 
       0.773185         24.9512         16.1958 
       0.779291         24.6869         15.9128 
       0.785407         24.2769          15.636 
       0.791564         24.1361          15.364 
       0.797719         23.6198         15.0986 
       0.803834         23.5118          14.841 
       0.809972         23.0735         14.5886 
       0.816124         22.8307         14.3416 
       0.822261         22.5831          14.101 
       0.828378         22.3483         13.8668 
       0.834502         22.1213         13.6377 
       0.840667         21.8866         13.4125 
       0.846816         21.4154          13.193 
       0.852925         21.3564         12.9799 
       0.859047         21.1114          12.771 
       0.865192         20.8137         12.5662 
       0.871341         20.5499         12.3656 
       0.877463         20.3368         12.1704 
       0.883569         20.2211         11.9799 
       0.889708         19.8992         11.7926 
       0.895864         19.6537         11.6087 
       0.902008         19.4301         11.4292 
       0.908149         19.1944         11.2537 
       0.914301         19.0991         11.0815 
       0.920448         18.8138         10.9131 
       0.926574          18.675         10.7488 
       0.932687         18.4315         10.5883 
       0.938823         18.2019         10.4305 
       0.944975         18.0663         10.2756 
       0.951105         17.8732         10.1243 
       0.957225         17.7637         9.97644 
       0.963368         17.4907           9.831 
       0.969511         17.3242         9.68847 
       0.975621          17.169         9.54955 
       0.981748         16.9529           9.413 
       0.987916         16.8418         9.27827 
        0.99406          16.651         9.14669 
        1.00019         16.5302         9.01794 
        1.00632         16.3882         8.89179 
        1.01246         16.2287         8.76788 
        1.01859         16.0379         8.64653 
        1.02471          15.871         8.52765 
        1.03085         15.8089          8.4106 
        1.03698         15.6627           8.296 
        1.04314         15.4687         8.18306 
        1.04929         15.2831         8.07249 
        1.05541         15.2197         7.96441 
        1.06154         15.0885         7.85806 
        1.06769         14.9611         7.75349 
        1.07382         14.7465         7.65118 
        1.07993         14.6295         7.55096 
        1.08607         14.5617         7.45212 
        1.09222         14.3836         7.35496 
        1.09836         14.3137         7.25965 
        1.10449         14.1353         7.16615 
        1.11063         14.0759          7.0742 
        1.11677         13.9865          6.9839 
         1.1229         13.8478         6.89534 
        1.12903         13.7409         6.80825 
        1.13518         13.5655         6.72259 
        1.14131         13.4964         6.63846 
        1.14745         13.3118         6.55582 
        1.15359         13.2114         6.47458 
        1.15973         13.1068         6.39468 
        1.16584         13.0059          6.3165 
        1.17197         12.8913         6.23952 
        1.17811         12.7954         6.16358 
        1.18424         12.7111         6.08914 
        1.19038         12.6403         6.01571 
        1.19652         12.5215         5.94353 
        1.20267          12.437         5.87253 
        1.20881         12.2964         5.80271 
        1.21495         12.2116         5.73413 
        1.22108          12.161         5.66668 
         1.2272         12.0535         5.60047 
        1.23334         11.9933         5.53517 
        1.23949         11.8748         5.47076 
        1.24562         11.7762         5.40756 
        1.25174         11.7163         5.34545 
        1.25789         11.5821         5.28413 
        1.26402         11.5474         5.22388 
        1.27014         11.4849         5.16472 
        1.27628         11.3335         5.10631 
        1.28244         11.3269         5.04868 
        1.28858         11.2189         4.99203 
        1.29471         11.0743         4.93637 
        1.30084         11.0091         4.88161 
        1.30697         10.9999          4.8276 
        1.31312         10.8786         4.77433 
        1.31925         10.8208         4.72204 
        1.32537         10.7456         4.67058 
        1.33151         10.6673         4.61971 
        1.33765         10.5887         4.56962 
        1.34378         10.5692         4.52038 
        1.34992         10.4607         4.47183 
        1.35606         10.3708         4.42389 
         1.3622         10.2959         4.37674 
        1.36833         10.2572          4.3304 
        1.37445         10.1912         4.28474 
        1.38059         10.1231         4.23961 
        1.38675         10.0561         4.19502 
        1.39288         9.96112         4.15126 
        1.39901         9.90811         4.10813 
        1.40515         9.84412         4.06553 
         1.4113         9.76983         4.02354 
        1.41742         9.73508         3.98231 
        1.42355          9.6408         3.94158 
         1.4297         9.60199          3.9013 
        1.43585          9.5508          3.8616 
        1.44198          9.4932          3.8226 
        1.44809         9.43034         3.78421 
        1.45423         9.35557         3.74622 
        1.46036         9.30994         3.70881 
        1.46649         9.24801          3.6719 
        1.47263           9.206         3.63546 
        1.47877         9.14236         3.59954 
        1.48491         9.10042         3.56404 
        1.49104         9.02189          3.5291 
        1.49718         8.99363          3.4946 
        1.50333         8.93247         3.46051 
        1.50947         8.86544         3.42694 
         1.5156         8.84071         3.39386 
        1.52172         8.78034         3.36123 
        1.52787         8.73587         3.32895 
          1.534         8.68064         3.29714 
        1.54013         8.64206         3.26578 
        1.54627         8.58075         3.23477 
        1.55241         8.51039         3.20416 
        1.55855         8.50058         3.17399 
        1.56467         8.44297         3.14429 
         1.5708         8.39893         3.11488 
        1.57695         8.33386         3.08581 
        1.58308         8.27996         3.05718 
        1.58922         8.25314         3.02889 
        1.59535         8.20504         3.00097 
         1.6015          8.1339         2.97336 
        1.60764          8.1066         2.94611 
        1.61376         8.07909         2.91928 
        1.61989         8.00429         2.89277 
        1.62604         7.98464         2.86652 
        1.63218         7.94656         2.84061 
        1.63831         7.89685         2.81509 
        1.64444         7.83252         2.78987 
        1.65059         7.79805          2.7649 
        1.65673         7.77634         2.74026 
        1.66285         7.73265         2.71599 
        1.66898         7.69396         2.69201 
        1.67512         7.64578         2.66827 
        1.68127         7.58953          2.6448 
         1.6874         7.56991         2.62166 
        1.69353         7.51474         2.59881 
        1.69967         7.49179         2.57618 
        1.70581         7.43725         2.55383 
        1.71193         7.41945         2.53182 
        1.71806         7.37741         2.51003 
        1.72421         7.32814         2.48846 
        1.73035         7.30088         2.46716 
        1.73649         7.26662         2.44612 
        1.74262         7.20507         2.42533 
        1.74876         7.20819         2.40478 
        1.75489         7.15912          2.3845 
        1.76101         7.10408         2.36447 
        1.76715         7.09485         2.34463 
        1.77329         7.05901         2.32501 
        1.77943         7.00017         2.30559 
        1.78557         7.00088         2.28643 
        1.79171         6.96014         2.26748 
        1.79785         6.92945         2.24874 
        1.80399         6.86561         2.23022 
        1.81012         6.85422         2.21193 
        1.81625         6.80784         2.19386 
        1.82239         6.78448         2.17596 
        1.82853         6.74123         2.15827 
        1.83466          6.6965         2.14079 
        1.84078         6.68171         2.12352 
        1.84692         6.65242         2.10642 
        1.85306         6.62172         2.08948 
         1.8592         6.60165         2.07276 
        1.86533         6.57289         2.05623 
        1.87147         6.53371         2.03986 
        1.87761         6.51548         2.02366 
        1.88375         6.47301         2.00765 
        1.88988         6.44123         1.99184 
        1.89601         6.42276         1.97619 
        1.90215         6.37519         1.96069 
        1.90829          6.3626         1.94537 
        1.91442         6.32183         1.93021 
        1.92056         6.31822         1.91522 
         1.9267          6.2672         1.90038 
        1.93284         6.26359         1.88569 
        1.93897         6.21722         1.87118 
        1.94509         6.17476         1.85685 
        1.95123         6.16795         1.84264 
        1.95737         6.14408         1.82857 
        1.96349         6.09594         1.81468 
        1.96964          6.0743         1.80089 
        1.97578         6.05418         1.78724 
        1.98192         6.02304         1.77376 
        1.98805         6.00331         1.76042 
        1.99419         5.98416         1.74721 
        2.00033         5.94196         1.73413 
        2.00647         5.93134         1.72119 
         2.0126         5.90487          1.7084 
        2.01874         5.87706         1.69573 
        2.02488         5.85556         1.68317 
        2.03101         5.81661         1.67076 
        2.03714         5.79135         1.65849 
        2.04328         5.77633         1.64632 
        2.04941         5.74341         1.63429 
        2.05554         5.73355         1.62239 
        2.06167         5.70816         1.61059 
        2.06781         5.67807          1.5989 
        2.07396         5.65235         1.58732 
        2.08009         5.63288         1.57587 
        2.08622         5.61767         1.56454 
        2.09237         5.60193         1.55331 
        2.09851         5.55779         1.54218 
        2.10464         5.54426         1.53118 
        2.11077         5.52453          1.5203 
        2.11691         5.51082          1.5095 
        2.12305          5.4758         1.49881 
        2.12918         5.46138         1.48825 
        2.13531         5.43384         1.47778 
        2.14145          5.4164         1.46739 
         2.1476         5.39427         1.45709 
        2.15372         5.36763         1.44695 
        2.15985         5.35638         1.43688 
        2.16599         5.33526         1.42689 
        2.17213         5.32534           1.417 
        2.17827         5.28445          1.4072 
         2.1844         5.26675         1.39751 
        2.19054         5.25408          1.3879 
        2.19666         5.23097          1.3784 
         2.2028         5.19824         1.36898 
        2.20893         5.19635         1.35964 
        2.21508         5.17426         1.35038 
        2.22122         5.13316          1.3412 
        2.22736         5.12496         1.33213 
        2.23349         5.10605         1.32314 
        2.23962         5.09598         1.31423 
        2.24577         5.06064          1.3054 
         2.2519          5.0606         1.29665 
        2.25802         5.01551         1.28801 
        2.26417          5.0098         1.27941 
        2.27031         4.98905         1.27089 
        2.27644         4.97026         1.26247 
        2.28257         4.95235         1.25413 
        2.28872         4.93885         1.24584 
        2.29486         4.91507         1.23763 
        2.30099         4.89904         1.22952 
        2.30712            4.88         1.22147 
        2.31326         4.86297         1.21348 
         2.3194          4.8421         1.20556 
        2.32553         4.82255         1.19773 
        2.33166          4.8116         1.18998 
         2.3378         4.79351         1.18228 
        2.34394         4.77215         1.17464 
        2.35007         4.75125         1.16709 
        2.35619          4.7461         1.15961 
        2.36233         4.71588         1.15217 
        2.36848         4.70865         1.14479 
        2.37462         4.69055         1.13749 
        2.38075         4.68065         1.13026 
        2.38689         4.66192         1.12308 
        2.39303           4.638         1.11597 
        2.39916         4.62717         1.10893 
        2.40529         4.60426         1.10195 
        2.41143         4.59592         1.09502 
        2.41757         4.58151         1.08815 
         2.4237          4.5597         1.08135 
        2.42983         4.55129         1.07461 
        2.43598         4.53783         1.06791 
        2.44211         4.51536         1.06128 
        2.44823         4.49311         1.05472 
        2.45437         4.48042          1.0482 
        2.46052         4.46952         1.04172 
        2.46665         4.45587         1.03531 
        2.47279         4.43085         1.02896 
        2.47892         4.41914         1.02266 
        2.48507         4.40996          1.0164 
         2.4912         4.39168         1.01021 
