# k  (h/Mpc)    Pcb(k)  (Mpc/h)^3    Pcb_linear(k)  (Mpc/h)^3
     0.00783031         18105.8         18386.1 
       0.013688         22294.3         22075.6 
       0.019231         21608.6           21552 
      0.0249154         18706.7         19115.1 
      0.0312784         15715.3         15875.8 
      0.0375637         13221.6         13187.7 
      0.0433917         11261.5         11442.8 
      0.0492413         10255.7         10319.7 
      0.0555754          9227.2         9528.58 
      0.0619321         8867.14         8859.55 
       0.067871         7923.58          8150.5 
      0.0738098         7132.39         7312.94 
      0.0800417         6178.48         6373.24 
      0.0862327         5450.21         5509.71 
      0.0921407         4919.28          4847.1 
      0.0982031         4405.89         4365.03 
       0.104506         4204.72         4047.91 
       0.110769         3957.04         3847.74 
       0.116806         3763.96         3685.73 
       0.122832         3574.26         3495.72 
       0.129052         3265.36         3245.15 
       0.135211         3023.45         2956.27 
       0.141259         2837.06         2669.33 
       0.147318         2635.66         2415.38 
       0.153489         2408.68         2213.89 
       0.159709         2291.47         2071.93 
       0.165845         2226.34          1977.8 
       0.171974         2125.99         1906.47 
       0.178125         2029.55         1835.02 
       0.184229         1935.26          1749.7 
        0.19034         1816.35         1646.99 
       0.196428         1760.46         1534.65 
       0.202534         1679.05         1424.05 
       0.208729         1592.21         1325.24 
       0.214876         1526.15         1246.57 
       0.220989         1474.27         1187.19 
       0.227147         1418.38         1141.22 
        0.23329         1365.51         1101.81 
       0.239377         1342.78         1062.46 
       0.245482         1256.93          1018.7 
       0.251667         1246.57         969.556 
       0.257832         1192.87          918.34 
       0.263955         1150.41          869.04 
       0.270079         1108.39         824.603 
        0.27624         1094.25         786.573 
       0.282372         1050.15         755.098 
        0.28843          1040.8         728.684 
       0.294538         987.773         704.424 
       0.300721         982.319         680.264 
        0.30691         942.668         655.161 
       0.313033         923.079         629.355 
       0.319153         904.789         603.289 
       0.325316         875.803         577.947 
        0.33145         854.422         554.576 
       0.337538          838.15         533.786 
       0.343633         818.896         515.258 
       0.349808         789.438         498.371 
       0.355968         784.155         482.641 
       0.362074         775.849         467.511 
       0.368217         751.221         452.372 
       0.374374         720.958         437.156 
       0.380519         721.897         422.174 
       0.386598         700.331         407.833 
       0.392688         697.362         394.239 
        0.39888         676.932         381.404 
       0.405048         666.991         369.569 
       0.411186         657.675         358.595 
       0.417313         644.052         348.238 
       0.423458         630.824         338.212 
       0.429607         623.799         328.404 
       0.435692         608.681         318.902 
       0.441815          602.81         309.554 
       0.447964         590.751          300.46 
       0.454126         583.605         291.743 
       0.460267         569.554         283.505 
       0.466387          563.11         275.717 
        0.47254         557.244         268.275 
       0.478662         552.664         261.205 
       0.484765         534.436         254.417 
       0.490885         530.555         247.807 
       0.497035         520.049         241.337 
       0.503198         515.675         235.046 
       0.509342         511.524         228.979 
       0.515458         507.245         223.153 
       0.521598         493.516         217.525 
       0.527764         486.028         212.099 
       0.533884         483.017         206.935 
           0.54         477.186         201.971 
       0.546137         473.823         197.158 
       0.552299         466.187         192.471 
       0.558452          463.18         187.927 
       0.564573         457.485         183.542 
       0.570708         450.771         179.283 
       0.576825         439.658         175.175 
       0.582926         439.813         171.211 
       0.589034         435.337         167.371 
       0.595184         431.852          163.63 
       0.601379         424.525         159.984 
       0.607522         419.121         156.484 
       0.613639         417.659         153.107 
       0.619772         409.399         149.822 
       0.625918         407.399         146.625 
       0.632068         400.935         143.518 
       0.638161         399.204         140.526 
         0.6443         392.967         137.598 
       0.650464         390.116         134.743 
       0.656582         386.321         131.993 
       0.662703         385.599         129.322 
       0.668861         379.365         126.713 
       0.675024         375.848         124.176 
       0.681124         372.618         121.736 
       0.687237         369.232         119.357 
       0.693381         363.972          117.03 
       0.699536         359.416         114.761 
       0.705665         357.347         112.562 
       0.711789         355.909         110.423 
       0.717957         352.718         108.325 
        0.72409         350.558         106.294 
       0.730186         345.479         104.328 
       0.736317         342.665         102.402 
       0.742472         340.463         100.519 
       0.748622         337.086         98.6854 
        0.75476         332.727         96.9022 
       0.760888         329.541         95.1663 
       0.767043          329.77         93.4665 
       0.773185         326.274         91.8123 
       0.779291         321.531         90.2078 
       0.785407         320.551         88.6398 
       0.791564         316.559         87.0996 
       0.797719         314.369         85.5971 
       0.803834         310.822           84.14 
       0.809972         310.428          82.712 
       0.816124         309.175         81.3144 
       0.822261         305.658         79.9532 
       0.828378         302.992         78.6277 
       0.834502         300.158         77.3314 
       0.840667         298.012         76.0564 
       0.846816         296.431          74.814 
       0.852925         294.517         73.6076 
       0.859047         292.217         72.4255 
       0.865192         288.626         71.2659 
       0.871341         286.296         70.1311 
       0.877463         286.021         69.0265 
       0.883569         283.789         67.9488 
       0.889708         280.838         66.8888 
       0.895864         279.678          65.849 
       0.902008          277.17         64.8337 
       0.908149         274.612         63.8406 
       0.914301         272.071          62.867 
       0.920448         270.605         61.9148 
       0.926574         267.367         60.9858 
       0.932687          267.45         60.0781 
       0.938823         264.457         59.1857 
       0.944975         264.002         58.3096 
       0.951105         261.681         57.4545 
       0.957225          259.97         56.6182 
       0.963368         256.366         55.7958 
       0.969511         255.673         54.9899 
       0.975621         253.658         54.2044 
       0.981748          252.74         53.4324 
       0.987916         251.165         52.6707 
        0.99406         247.973         51.9268 
        1.00019         246.904         51.1989 
        1.00632         245.725         50.4857 
        1.01246          243.63         49.7851 
        1.01859         243.889         49.0991 
        1.02471         239.863          48.427 
        1.03085         238.664         47.7652 
        1.03698         237.431         47.1174 
        1.04314         235.307         46.4789 
        1.04929         233.823         45.8539 
        1.05541         234.012         45.2429 
        1.06154         230.357         44.6418 
        1.06769         229.975         44.0507 
        1.07382         228.033         43.4724 
        1.07993          226.65         42.9059 
        1.08607         226.226         42.3472 
        1.09222         223.891         41.7981 
        1.09836         222.414         41.2594 
        1.10449         220.327         40.7309 
        1.11063          218.58         40.2112 
        1.11677         218.033         39.7008 
         1.1229         216.046         39.2002 
        1.12903         215.297         38.7079 
        1.13518         213.721         38.2238 
        1.14131         212.043         37.7482 
        1.14745         212.126         37.2811 
        1.15359         209.994         36.8219 
        1.15973         208.115         36.3702 
        1.16584         207.043         35.9282 
        1.17197         206.949          35.493 
        1.17811          204.19         35.0637 
        1.18424         203.233         34.6429 
        1.19038         202.608         34.2277 
        1.19652         200.691         33.8196 
        1.20267         200.535         33.4182 
        1.20881         198.587         33.0234 
        1.21495          197.44         32.6357 
        1.22108         196.127         32.2543 
         1.2272         194.825         31.8799 
        1.23334         194.448         31.5107 
        1.23949         192.245         31.1465 
        1.24562         191.611          30.789 
        1.25174         190.529         30.4378 
        1.25789         189.258          30.091 
        1.26402         187.329         29.7503 
        1.27014         186.298         29.4157 
        1.27628         185.346         29.0853 
        1.28244         185.313         28.7594 
        1.28858         183.306         28.4389 
        1.29471         182.253         28.1241 
        1.30084         181.197         27.8144 
        1.30697         179.727         27.5089 
        1.31312         178.506         27.2076 
        1.31925         177.479         26.9118 
        1.32537         177.209         26.6207 
        1.33151         175.412         26.3329 
        1.33765          174.21         26.0496 
        1.34378         173.622         25.7711 
        1.34992         172.764         25.4964 
        1.35606          172.59         25.2252 
         1.3622         170.659         24.9584 
        1.36833         169.391         24.6962 
        1.37445         168.737         24.4379 
        1.38059         167.325         24.1825 
        1.38675         166.801         23.9302 
        1.39288         165.819         23.6826 
        1.39901         165.175         23.4385 
        1.40515         163.568         23.1974 
         1.4113         162.876         22.9598 
        1.41742         161.554         22.7264 
        1.42355         160.956         22.4959 
         1.4297         159.686         22.2679 
        1.43585         158.957         22.0431 
        1.44198         158.281         21.8223 
        1.44809         157.426          21.605 
        1.45423         156.707         21.3899 
        1.46036         155.398         21.1781 
        1.46649          154.37         20.9691 
        1.47263         153.486         20.7627 
        1.47877         152.407         20.5593 
        1.48491         151.093         20.3583 
        1.49104         151.068         20.1604 
        1.49718         149.615          19.965 
        1.50333         148.904         19.7719 
        1.50947          148.01         19.5817 
         1.5156         147.253         19.3944 
        1.52172         146.482         19.2095 
        1.52787         145.146         19.0267 
          1.534         144.844         18.8465 
        1.54013         143.917         18.6689 
        1.54627         142.974         18.4932 
        1.55241         142.068         18.3198 
        1.55855         141.358         18.1488 
        1.56467         140.195         17.9806 
         1.5708         139.435         17.8139 
        1.57695         139.134         17.6492 
        1.58308         138.256          17.487 
        1.58922         137.619         17.3266 
        1.59535         136.522         17.1684 
         1.6015         135.977         17.0119 
        1.60764         135.234         16.8575 
        1.61376           134.3         16.7054 
        1.61989         133.508         16.5551 
        1.62604         132.469         16.4063 
        1.63218         132.261         16.2595 
        1.63831         131.259         16.1148 
        1.64444         130.518         15.9718 
        1.65059         129.885         15.8302 
        1.65673         128.969         15.6905 
        1.66285         128.387         15.5528 
        1.66898         127.555         15.4168 
        1.67512         126.996         15.2822 
        1.68127          126.12          15.149 
         1.6874          125.37         15.0178 
        1.69353         124.856         14.8882 
        1.69967         124.017         14.7598 
        1.70581         123.224          14.633 
        1.71193         122.525         14.5081 
        1.71806         122.042         14.3845 
        1.72421         121.443         14.2621 
        1.73035         121.024         14.1412 
        1.73649         120.161         14.0218 
        1.74262         119.425         13.9038 
        1.74876         118.869         13.7872 
        1.75489          118.01         13.6721 
        1.76101          117.14         13.5584 
        1.76715         116.913         13.4458 
        1.77329         116.322         13.3344 
        1.77943         115.551         13.2242 
        1.78557         115.164         13.1154 
        1.79171         114.164         13.0078 
        1.79785         113.603         12.9015 
        1.80399         112.957         12.7963 
        1.81012         112.448         12.6924 
        1.81625         111.917         12.5898 
        1.82239         111.319         12.4881 
        1.82853         110.474         12.3877 
        1.83466         109.939         12.2884 
        1.84078         109.417         12.1903 
        1.84692         108.511         12.0932 
        1.85306         108.304          11.997 
         1.8592         107.515          11.902 
        1.86533          106.94         11.8081 
        1.87147         106.282         11.7151 
        1.87761         105.516          11.623 
        1.88375         105.055         11.5321 
        1.88988         104.423         11.4422 
        1.89601         103.951         11.3533 
        1.90215         103.377         11.2652 
        1.90829         102.807         11.1781 
        1.91442         102.367          11.092 
        1.92056         101.601         11.0068 
         1.9267         101.338         10.9224 
        1.93284         100.614         10.8389 
        1.93897         100.053         10.7564 
        1.94509         99.6466         10.6749 
        1.95123         99.1264         10.5941 
        1.95737         98.4662         10.5141 
        1.96349         97.9879         10.4351 
        1.96964         97.1367         10.3567 
        1.97578         96.6787          10.279 
        1.98192         96.4058         10.2024 
        1.98805         95.7927         10.1265 
        1.99419         95.3553         10.0513 
        2.00033         94.7064         9.97693 
        2.00647         94.3946         9.90331 
         2.0126         93.7182         9.83056 
        2.01874         93.1385         9.75843 
        2.02488         92.8976         9.68696 
        2.03101         92.1103         9.61635 
        2.03714         91.6097         9.54651 
        2.04328         91.1772         9.47729 
        2.04941         90.6808         9.40881 
        2.05554         90.1726         9.34107 
        2.06167         89.8228          9.2739 
        2.06781         89.0916         9.20738 
        2.07396         88.8666         9.14143 
        2.08009          88.424         9.07623 
        2.08622         87.7518         9.01176 
        2.09237         87.4864         8.94778 
        2.09851         86.9155         8.88442 
        2.10464         86.5524         8.82177 
        2.11077         85.9573         8.75982 
        2.11691         85.6928         8.69832 
        2.12305         85.1337         8.63741 
        2.12918         84.5981         8.57723 
        2.13531          84.184         8.51763 
        2.14145         83.6034         8.45846 
         2.1476         83.1848         8.39978 
        2.15372         82.8469         8.34196 
        2.15985         82.4081         8.28462 
        2.16599         81.8339         8.22766 
        2.17213         81.4738         8.17131 
        2.17827         81.0053         8.11549 
         2.1844            80.6         8.06025 
        2.19054         80.2693         8.00551 
        2.19666         79.8542         7.95135 
         2.2028         79.4143         7.89765 
        2.20893         78.9959         7.84442 
        2.21508         78.6009         7.79163 
        2.22122         78.1631          7.7393 
        2.22736         77.6861         7.68757 
        2.23349         77.3537         7.63632 
        2.23962         77.0449         7.58551 
        2.24577         76.6049         7.53513 
         2.2519         76.2619         7.48527 
        2.25802         75.7638         7.43595 
        2.26417         75.3987         7.38694 
        2.27031         74.9729         7.33832 
        2.27644         74.4653         7.29028 
        2.28257         74.1496         7.24269 
        2.28872         73.9494         7.19542 
        2.29486         73.3436         7.14859 
        2.30099          72.836         7.10228 
        2.30712         72.6858         7.05636 
        2.31326         72.2649         7.01076 
         2.3194         71.8899          6.9656 
        2.32553         71.5695         6.92091 
        2.33166         71.2205         6.87664 
         2.3378         70.7209         6.83269 
        2.34394         70.3857         6.78912 
        2.35007         70.0511         6.74599 
        2.35619         69.6648         6.70329 
        2.36233         69.2875         6.66086 
        2.36848          68.933          6.6187 
        2.37462         68.5163         6.57701 
        2.38075         68.2794         6.53571 
        2.38689         67.8776         6.49474 
        2.39303         67.4479         6.45412 
        2.39916         67.1584          6.4139 
        2.40529         66.9988         6.37402 
        2.41143         66.3961         6.33446 
        2.41757         66.2305         6.29521 
         2.4237         65.8294         6.25637 
        2.42983         65.5119         6.21786 
        2.43598         65.1234         6.17958 
        2.44211         64.8868         6.14169 
        2.44823         64.4997         6.10419 
        2.45437         64.0804         6.06691 
        2.46052         63.8755         6.02991 
        2.46665         63.5632         5.99329 
        2.47279         63.1337         5.95698 
        2.47892         62.8494         5.92096 
        2.48507         62.5148         5.88519 
         2.4912         62.2377          5.8498 
