# k  (h/Mpc)    P(k)  (Mpc/h)^3    P_linear(k)  (Mpc/h)^3
     0.00783031         21125.3         21553.2 
       0.013688         23287.1         23082.8 
       0.019231           20856         20787.1 
      0.0249154           16878         17210.9 
      0.0312784         13307.7           13386 
      0.0375637         10639.7         10545.5 
      0.0433917         8757.53         8819.04 
      0.0492413         7776.13         7754.69 
      0.0555754         6882.44         7032.13 
      0.0619321         6531.03         6445.39 
       0.067871         5759.04         5844.74 
      0.0738098         5106.64            5153 
      0.0800417         4347.03         4394.02 
      0.0862327         3752.22         3711.47 
      0.0921407         3324.92         3198.35 
      0.0982031         2925.99         2832.44 
       0.104506          2765.5          2597.3 
       0.110769         2586.08         2453.82 
       0.116806         2453.62         2341.69 
       0.122832         2319.87         2211.65 
       0.129052         2105.64          2039.7 
       0.135211         1934.15         1840.94 
       0.141259         1795.82         1643.43 
       0.147318            1649         1468.75 
       0.153489         1492.65         1330.19 
       0.159709         1408.36         1232.59 
       0.165845         1352.01         1168.35 
       0.171974         1289.09         1121.05 
       0.178125         1229.13         1075.69 
       0.184229         1167.55         1022.96 
        0.19034         1089.05         959.924 
       0.196428          1048.7          890.77 
       0.202534         997.233         822.124 
       0.208729         936.938         760.045 
       0.214876         890.661         709.826 
       0.220989         854.407         671.313 
       0.227147         821.024         641.333 
        0.23329         785.866         616.139 
       0.239377         768.107          592.01 
       0.245482          714.31         566.197 
       0.251667         706.957         537.794 
       0.257832         674.492         508.316 
       0.263955         648.566         479.742 
       0.270079          620.37         453.567 
        0.27624         610.633         430.704 
       0.282372         586.515         411.413 
        0.28843         574.005         395.082 
       0.294538          543.32         380.279 
       0.300721         538.605         365.954 
        0.30691         515.208          351.57 
       0.313033         503.414         337.102 
       0.319153         488.319         322.639 
       0.325316         473.858         308.518 
        0.33145         459.288         295.346 
       0.337538         449.865         283.417 
       0.343633         436.538         272.626 
       0.349808         419.556         262.717 
       0.355968         415.406         253.541 
       0.362074         409.356         244.881 
       0.368217         396.646          236.39 
       0.374374         379.181         228.024 
       0.380519         377.151         219.863 
       0.386598         366.287         212.054 
       0.392688         362.726         204.612 
        0.39888         352.166         197.504 
       0.405048         344.931         190.883 
       0.411186         339.054         184.722 
       0.417313         331.812         178.912 
       0.423458         323.778          173.34 
       0.429607         319.604         167.967 
       0.435692         310.678         162.817 
       0.441815         307.054         157.788 
       0.447964         300.336         152.918 
       0.454126         294.222          148.24 
       0.460267         287.925         143.791 
       0.466387         283.631         139.567 
        0.47254         279.165         135.527 
       0.478662         277.237         131.688 
       0.484765         266.829         128.015 
       0.490885         264.144         124.463 
       0.497035         258.893         121.019 
       0.503198         255.326         117.685 
       0.509342         253.616         114.476 
       0.515458          249.73         111.395 
       0.521598         242.889         108.419 
       0.527764         240.312          105.55 
       0.533884         237.329         102.813 
           0.54          233.71         100.181 
       0.546137          232.26         97.6342 
       0.552299         227.646         95.1656 
       0.558452         226.224         92.7852 
       0.564573         222.997         90.4956 
       0.570708         217.997         88.2753 
       0.576825          214.51          86.134 
       0.582926         212.125         84.0691 
       0.589034         209.829         82.0706 
       0.595184         208.284         80.1267 
       0.601379          203.92         78.2349 
       0.607522         201.703         76.4205 
       0.613639         199.832         74.6714 
       0.619772         196.377         72.9722 
       0.625918         195.025         71.3218 
       0.632068         191.696          69.721 
       0.638161         190.545         68.1834 
         0.6443         187.505         66.6813 
       0.650464         185.897         65.2195 
       0.656582         182.849         63.8124 
       0.662703          182.88         62.4468 
       0.668861         179.986         61.1136 
       0.675024         177.304         59.8184 
       0.681124         175.808         58.5738 
       0.687237         173.837          57.362 
       0.693381         171.035         56.1789 
       0.699536         169.497         55.0272 
       0.705665         167.847         53.9128 
       0.711789          166.55         52.8304 
       0.717957         165.874         51.7705 
        0.72409         163.803         50.7456 
       0.730186         161.732         49.7548 
       0.736317         159.838         48.7852 
       0.742472          158.51         47.8379 
       0.748622         157.287         46.9167 
        0.75476         155.559         46.0217 
       0.760888         154.013         45.1514 
       0.767043         153.246         44.3002 
       0.773185         152.124         43.4727 
       0.779291         149.295         42.6711 
       0.785407         148.687         41.8886 
       0.791564         147.557         41.1207 
       0.797719         144.966         40.3726 
       0.803834         144.132         39.6478 
       0.809972         143.497         38.9383 
       0.816124         142.478         38.2446 
       0.822261         141.648         37.5697 
       0.828378         139.971         36.9132 
       0.834502         139.093         36.2717 
       0.840667         137.437         35.6414 
       0.846816         136.339         35.0278 
       0.852925         135.323         34.4326 
       0.859047         134.388         33.8499 
       0.865192         132.672         33.2787 
       0.871341         131.606         32.7204 
       0.877463         130.866         32.1774 
       0.883569         130.316         31.6481 
       0.889708         128.616          31.128 
       0.895864         127.785         30.6182 
       0.902008         126.657         30.1209 
       0.908149         126.263          29.635 
       0.914301         124.621          29.159 
       0.920448         123.856         28.6939 
       0.926574         122.793         28.2406 
       0.932687         122.797          27.798 
       0.938823         120.956         27.3633 
       0.944975         120.529          26.937 
       0.951105         119.383         26.5212 
       0.957225         118.962          26.115 
       0.963368         117.058         25.7158 
       0.969511         116.696          25.325 
       0.975621         115.719         24.9445 
       0.981748          115.59         24.5708 
       0.987916         114.408         24.2023 
        0.99406         113.607         23.8429 
        1.00019         113.148         23.4914 
        1.00632         112.067         23.1473 
        1.01246         111.307         22.8097 
        1.01859          110.96         22.4793 
        1.02471         109.653         22.1558 
        1.03085         108.667         21.8376 
        1.03698          108.18         21.5263 
        1.04314         107.112         21.2197 
        1.04929         106.938         20.9198 
        1.05541         106.057         20.6269 
        1.06154         105.462         20.3389 
        1.06769         105.087         20.0559 
        1.07382         104.072         19.7793 
        1.07993         103.498         19.5084 
        1.08607         102.808         19.2415 
        1.09222         102.325         18.9794 
        1.09836         101.453         18.7224 
        1.10449         100.606         18.4705 
        1.11063         100.089         18.2229 
        1.11677         99.3508         17.9799 
         1.1229         98.7065         17.7417 
        1.12903          98.464         17.5077 
        1.13518         97.9598         17.2777 
        1.14131         96.9384         17.0519 
        1.14745         96.8188         16.8303 
        1.15359         95.8064         16.6126 
        1.15973         95.4966         16.3986 
        1.16584         94.7049         16.1893 
        1.17197         94.1959         15.9834 
        1.17811         93.4432         15.7805 
        1.18424         93.2707         15.5817 
        1.19038         93.0414         15.3857 
        1.19652         92.2004         15.1931 
        1.20267         91.5369         15.0038 
        1.20881         91.2534         14.8178 
        1.21495         90.1791         14.6353 
        1.22108         90.0635         14.4558 
         1.2272         89.2475         14.2798 
        1.23334         88.8423         14.1063 
        1.23949         88.4566         13.9352 
        1.24562         87.8321         13.7675 
        1.25174         87.5637         13.6028 
        1.25789         87.0221         13.4402 
        1.26402         85.9752         13.2806 
        1.27014         85.7464          13.124 
        1.27628         85.3955         12.9694 
        1.28244         85.1293          12.817 
        1.28858         84.6089         12.6673 
        1.29471         83.9696         12.5202 
        1.30084          83.846         12.3757 
        1.30697         82.9656         12.2331 
        1.31312         82.5936         12.0926 
        1.31925         82.1303         11.9548 
        1.32537          81.685         11.8192 
        1.33151         81.2514         11.6853 
        1.33765         80.7383         11.5535 
        1.34378         80.3557          11.424 
        1.34992         80.1225         11.2963 
        1.35606          79.692         11.1704 
         1.3622         79.0333         11.0465 
        1.36833         78.6604         10.9249 
        1.37445         78.3373         10.8051 
        1.38059         77.6479         10.6868 
        1.38675         77.1844         10.5699 
        1.39288         77.1411         10.4553 
        1.39901         76.6837         10.3424 
        1.40515         76.0256         10.2309 
         1.4113         75.8727          10.121 
        1.41742         75.3291         10.0133 
        1.42355         75.0762         9.90683 
         1.4297         74.6125         9.80162 
        1.43585         74.1983         9.69798 
        1.44198          73.826         9.59623 
        1.44809         73.6103         9.49613 
        1.45423         73.2851         9.39709 
        1.46036         72.7114         9.29963 
        1.46649         72.3436         9.20351 
        1.47263         71.8301         9.10867 
        1.47877         71.4572         9.01521 
        1.48491          71.164          8.9229 
        1.49104         70.8996         8.83208 
        1.49718         70.6121         8.74245 
        1.50333         70.2631         8.65391 
        1.50947         69.7318         8.56678 
         1.5156         69.6168         8.48098 
        1.52172         69.2727         8.39634 
        1.52787         68.7539         8.31269 
          1.534          68.402         8.23028 
        1.54013         68.0449         8.14906 
        1.54627         67.7829         8.06879 
        1.55241         67.4739         7.98958 
        1.55855         67.0544         7.91155 
        1.56467         66.8005         7.83476 
         1.5708         66.3687         7.75878 
        1.57695         66.2425         7.68368 
        1.58308         65.9063         7.60975 
        1.58922         65.5303         7.53673 
        1.59535         65.1738         7.46469 
         1.6015         64.9558         7.39349 
        1.60764         64.6317         7.32325 
        1.61376         64.2836         7.25411 
        1.61989         64.0297          7.1858 
        1.62604         63.6164         7.11822 
        1.63218         63.4809         7.05154 
        1.63831         62.9382         6.98587 
        1.64444         62.5666           6.921 
        1.65059         62.3584         6.85681 
        1.65673         62.0088         6.79349 
        1.66285         61.8498         6.73115 
        1.66898         61.5772         6.66956 
        1.67512         61.0451         6.60863 
        1.68127         60.9339         6.54839 
         1.6874         60.5109         6.48904 
        1.69353         60.2572         6.43046 
        1.69967         60.1157         6.37246 
        1.70581          59.703         6.31519 
        1.71193         59.3955         6.25885 
        1.71806         59.1721         6.20306 
        1.72421         58.9991         6.14785 
        1.73035         58.6649         6.09337 
        1.73649         58.4053         6.03955 
        1.74262         58.0259         5.98643 
        1.74876         57.8458         5.93391 
        1.75489         57.5543         5.88212 
        1.76101         57.3122         5.83097 
        1.76715         56.8677         5.78035 
        1.77329         56.7175         5.73027 
        1.77943         56.4081         5.68076 
        1.78557         56.2401          5.6319 
        1.79171         55.8498         5.58361 
        1.79785         55.5134         5.53587 
        1.80399         55.3287          5.4887 
        1.81012         55.1107         5.44213 
        1.81625         54.8894         5.39613 
        1.82239          54.562         5.35059 
        1.82853          54.406         5.30559 
        1.83466           54.17         5.26115 
        1.84078         53.7471         5.21726 
        1.84692         53.6089          5.1738 
        1.85306         53.3348         5.13078 
         1.8592         53.1874         5.08831 
        1.86533         52.8275         5.04634 
        1.87147         52.5297          5.0048 
        1.87761         52.3389         4.96371 
        1.88375         52.1965         4.92312 
        1.88988         51.7326         4.88303 
        1.89601         51.7512         4.84335 
        1.90215         51.2337         4.80409 
        1.90829         51.0521         4.76528 
        1.91442         50.9513         4.72689 
        1.92056         50.7208         4.68896 
         1.9267         50.3893         4.65141 
        1.93284         50.2065         4.61424 
        1.93897         49.9279         4.57754 
        1.94509         49.8157         4.54133 
        1.95123         49.4939         4.50541 
        1.95737          49.324         4.46985 
        1.96349         49.0774         4.43476 
        1.96964          48.699         4.39995 
        1.97578         48.5324         4.36549 
        1.98192         48.5313         4.33147 
        1.98805         48.1399         4.29781 
        1.99419         47.9617          4.2645 
        2.00033          47.778         4.23153 
        2.00647         47.5171         4.19891 
         2.0126         47.2624         4.16669 
        2.01874         47.0169         4.13476 
        2.02488         46.9378         4.10313 
        2.03101         46.6873          4.0719 
        2.03714         46.4213         4.04101 
        2.04328         46.2172         4.01041 
        2.04941         45.9715         3.98015 
        2.05554         45.8169         3.95022 
        2.06167         45.6688         3.92055 
        2.06781         45.3421         3.89119 
        2.07396         45.2473         3.86208 
        2.08009         45.0252         3.83332 
        2.08622         44.7423         3.80489 
        2.09237         44.6239         3.77668 
        2.09851         44.4776         3.74876 
        2.10464         44.1607         3.72116 
        2.11077         44.0336         3.69387 
        2.11691         43.7776          3.6668 
        2.12305         43.6348         3.63999 
        2.12918         43.4314         3.61351 
        2.13531         43.1148          3.5873 
        2.14145         43.0035         3.56128 
         2.1476         42.8147         3.53549 
        2.15372         42.6364         3.51008 
        2.15985         42.4194         3.48489 
        2.16599         42.3049         3.45988 
        2.17213         42.0516         3.43514 
        2.17827         41.8926         3.41065 
         2.1844         41.6555         3.38641 
        2.19054         41.4749          3.3624 
        2.19666         41.3639         3.33866 
         2.2028         41.2152         3.31512 
        2.20893         40.8858          3.2918 
        2.21508         40.8619         3.26868 
        2.22122         40.5961         3.24577 
        2.22736         40.4023         3.22312 
        2.23349         40.2967          3.2007 
        2.23962         40.0737         3.17847 
        2.24577         39.8084         3.15644 
         2.2519         39.7376         3.13464 
        2.25802         39.4831         3.11309 
        2.26417         39.3346         3.09168 
        2.27031         39.2617         3.07044 
        2.27644          38.968         3.04947 
        2.28257         38.8206         3.02869 
        2.28872         38.6325         3.00807 
        2.29486         38.5528         2.98764 
        2.30099         38.2625         2.96744 
        2.30712          38.124         2.94742 
        2.31326         37.9577         2.92754 
         2.3194          37.796         2.90787 
        2.32553         37.6352          2.8884 
        2.33166         37.4664         2.86912 
         2.3378         37.3172         2.84999 
        2.34394         37.1399         2.83103 
        2.35007         36.9986         2.81226 
        2.35619         36.8113         2.79369 
        2.36233         36.6613         2.77524 
        2.36848         36.4965         2.75692 
        2.37462         36.3426          2.7388 
        2.38075         36.2634         2.72086 
        2.38689           36.01         2.70306 
        2.39303         35.8292         2.68543 
        2.39916         35.6861         2.66797 
        2.40529         35.6113         2.65067 
        2.41143         35.4289         2.63351 
        2.41757         35.3011         2.61649 
         2.4237         35.0796         2.59965 
        2.42983         34.9764         2.58296 
        2.43598         34.8019         2.56637 
        2.44211         34.6526         2.54996 
        2.44823          34.535         2.53372 
        2.45437          34.347         2.51758 
        2.46052         34.2132         2.50157 
        2.46665         34.0878         2.48572 
        2.47279         33.8535         2.47002 
        2.47892         33.7445         2.45443 
        2.48507         33.6143         2.43897 
         2.4912         33.4716         2.42367 
